1.504287901368463576e+00
1.494116833456873517e+00
1.473344939899025485e+00
1.436244735047249588e+00
1.372275270988258855e+00
1.385549050123410453e+00
1.289448816041097068e+00
1.141224805453566082e+00
1.162530067098997977e+00
1.026082563928303770e+00
1.010747409561542520e+00
8.347923418954384944e-01
7.770284018652445779e-01
6.869933854282747054e-01
6.823088858957095937e-01
6.591993151703389175e-01
5.579416049009385814e-01
4.191057548809189459e-01
4.282708774681074360e-01
3.603019177916289562e-01
3.061914438150720175e-01
3.287136731596027595e-01
2.888511210966798193e-01
2.876939585563023094e-01
2.479865669118003491e-01
2.221656860222995244e-01
2.093081888828298709e-01
1.926450656508262305e-01
1.981779824141437496e-01
1.727635190641509111e-01
2.286300108915155505e-01
1.907967501600456861e-01
1.995453231808457240e-01
1.688109814537158970e-01
2.031525307999537677e-01
1.730483926484275292e-01
2.391840860447253247e-01
2.689563076736257163e-01
2.819383890487922040e-01
2.895248165365139625e-01
2.406055709068346538e-01
2.077189016898556562e-01
2.660278981750897054e-01
2.612034327167777059e-01
2.758576451430403420e-01
2.260196574572334582e-01
2.770607432270729698e-01
2.853732059541065347e-01
2.802697864758209034e-01
2.564781821571112674e-01
2.563488474326851008e-01
2.609521042298707516e-01
2.812283462645432941e-01
3.000150208012268838e-01
3.116135084226198115e-01
2.701691588629052121e-01
3.263910834180066556e-01
2.647157157719487452e-01
3.011050886582983810e-01
3.009955701216396884e-01
2.510157893626192571e-01
3.297367640894306451e-01
2.920690550321644596e-01
3.187859709765255012e-01
2.959930688243133656e-01
3.365346178227489604e-01
3.077487497738177202e-01
3.222189658097335263e-01
3.083998895973715793e-01
2.902565098242763653e-01
2.636407988715151474e-01
2.508228683243766133e-01
2.529877970986759705e-01
2.871206014703798770e-01
3.452624732300190180e-01
2.835130746215960840e-01
2.829259694576755635e-01
2.465025801611140654e-01
2.191168443944895849e-01
2.639193925294882614e-01
2.444483818233250394e-01
2.511400122920018352e-01
2.046823829138215700e-01
2.585580145697622956e-01
2.575259556651797732e-01
2.306239399089982656e-01
2.075842802407573406e-01
3.012569967911989388e-01
2.655527871872188639e-01
1.638951645685775282e-01
2.374119401994096712e-01
2.552546997689080222e-01
1.713387437592379658e-01
1.683422862545039256e-01
1.839082764112889012e-01
2.124349317151397187e-01
1.573081429451299584e-01
1.952201250585710590e-01
1.873237433088421056e-01
1.437236227731119587e-01
1.467305080466671241e-01
1.655122238080223851e-01
1.715535546881782891e-01
1.587081445266799173e-01
1.403769924162825145e-01
1.315230869706829064e-01
1.544719885781924984e-01
1.575606460451670077e-01
8.817730571481158242e-02
1.336610167164599128e-01
9.019473125657445634e-02
1.100434210828202392e-01
1.031712944212833105e-01
9.954140314934384337e-02
8.530301031195189343e-02
9.221462108620814835e-02
9.884525481932159019e-02
5.655312701422219451e-02
9.710917937434618286e-02
3.303458412550629164e-02
6.496213003950035425e-02
8.345649879653596614e-02
3.363029554316898651e-02
4.764162688592026018e-02
6.016581770769687670e-02
8.025808540307088901e-02
6.517384823245908620e-02
4.683308698520323443e-02
9.258282820244595479e-02
1.316911245370208650e-01
5.594350004418205402e-02
1.293632369885736599e-01
9.204248209932097691e-02
5.870095076768062914e-02
6.262345028222605914e-02
2.217284317741638824e-02
2.351345010206021616e-02
4.832745654777607924e-02
6.999558109173886766e-02
3.714006766295233769e-02
5.039487741611501509e-02
4.943716194246892959e-02
5.074008749546510266e-02
4.372806031296301577e-02
3.974484931953142786e-02
4.481946282311979196e-02
8.244663608095699481e-02
3.602923879653838896e-02
8.609498721132025079e-02
2.597191061387235655e-02
7.934493260058442243e-02
4.855077846870812369e-02
1.685570773522495486e-02
7.576736111277111718e-02
6.037815906081052397e-04
-1.982459536267453665e-02
4.586722174719400080e-02
9.152101910718857258e-02
5.903962351531194530e-02
2.296912618203001549e-02
6.998468044603264882e-02
7.517929367548813191e-02
1.932529441268104539e-02
1.154863196833271627e-01
5.023013483977886717e-02
8.275687646794085972e-02
7.433340977570626618e-02
9.922489127475797588e-02
6.739329268497154524e-02
6.236817097462988430e-02
1.224447998211242727e-01
4.967403986617616174e-02
6.923860541848012029e-02
9.429148689279374940e-02
1.406858953994739592e-01
1.840706406263832584e-01
9.398616862221810531e-02
1.589827264366274195e-01
1.238193764590840296e-01
1.299541496846368382e-01
1.739454702087455118e-01
1.918159087189443279e-01
1.307180523791522941e-01
1.452135798226156238e-01
1.536483266296264083e-01
1.011399900830773080e-01
1.931801890145488365e-01
1.717060883118241010e-01
1.688132295321583820e-01
1.958256421082115728e-01
1.853643711480484069e-01
1.639585711573042781e-01
1.674792150494414655e-01
1.769591315601834469e-01
2.082562607730795157e-01
1.467163640874926400e-01
1.430478706413231271e-01
1.922918609423345804e-01
2.113564670825420488e-01
1.933277793587882820e-01
1.716894455122971730e-01
1.294248929165656981e-01
1.572983217527511302e-01
2.008857265335081410e-01
2.586750269426011384e-01
2.117251888107756219e-01
2.190725939130691857e-01
2.567791950517951394e-01
2.543460787971099646e-01
3.682806988727556630e-01
3.271439286357595289e-01
3.203480564145873566e-01
3.992279582782751191e-01
4.446676295159789349e-01
4.346846644559683170e-01
5.609149990022803678e-01
5.995742690785341722e-01
7.714604227555028615e-01
8.188780060754643486e-01
8.340598720657452780e-01
9.933181387226339698e-01
1.056642342316164163e+00
1.107178786678016502e+00
1.166423105837849139e+00
1.294432149990899061e+00
1.362682304685903345e+00
1.354764946563885797e+00
1.389976896061347222e+00
1.456909846716201828e+00
1.461513474229392928e+00
1.443731750512170953e+00
1.447811859812085489e+00
1.481040471466713804e+00
1.373278055422621824e+00
1.344474645127382795e+00
1.308115415101105627e+00
1.236256100369407029e+00
1.147199776479945088e+00
1.078966661303731644e+00
9.972697439174915690e-01
8.578979277726690444e-01
8.350775334836344488e-01
7.385164074017996905e-01
6.451558184267264240e-01
5.592865697834196181e-01
4.572006632097421197e-01
4.447079431620228895e-01
4.477645405296566405e-01
3.763638779997183770e-01
3.561079373522733627e-01
2.644119061778162361e-01
2.454799307928981211e-01
1.811477912741103480e-01
2.011816794835977751e-01
2.105631589901974521e-01
2.047186356941266550e-01
1.382159609103038311e-01
1.933855948522931467e-01
1.818827158469662753e-01
1.722093038193234504e-01
1.480468388158580340e-01
1.856500770907486275e-01
1.628915283934863623e-01
1.647414132056916336e-01
1.306075257154060698e-01
9.879094854384719293e-02
1.574776770169391549e-01
1.940820885033635590e-01
1.889074184148251123e-01
1.502327137170184346e-01
1.842326357508263512e-01
2.137105090172989608e-01
1.964358572792627711e-01
2.083759216586704155e-01
1.952665236676519311e-01
2.243125091564506512e-01
2.460794270637607084e-01
2.252644437385855070e-01
1.900326927430151247e-01
2.355194597932307732e-01
2.470892111510879507e-01
2.161845231064814243e-01
2.185516226501195980e-01
1.990136002269592697e-01
2.443302689778011350e-01
2.712204783827648069e-01
2.019863660132701078e-01
2.017761987450795436e-01
2.533659628798667351e-01
2.582502930696664589e-01
3.261430667713273723e-01
2.367265158210832277e-01
2.831201035363549723e-01
2.746538768080856174e-01
2.698877611850736269e-01
2.317350270399215484e-01
2.801759064278031008e-01
1.922792544700576145e-01
2.602444232163265148e-01
2.581476733628665365e-01
2.298415209422884631e-01
2.554886012045047838e-01
2.589673223939299440e-01
1.807581547384494169e-01
2.278114149599687333e-01
2.550554221971101931e-01
1.977512912782329602e-01
2.035738346816586830e-01
2.147799732335054779e-01
1.779572173345790598e-01
1.873497365192553221e-01
2.342433698520189622e-01
2.154007591593117277e-01
1.672531076782301229e-01
2.239733874746088482e-01
1.976090907958545362e-01
1.389174281521749210e-01
1.960335373387460667e-01
1.260919935380839241e-01
1.827420283932419953e-01
1.085190962853271324e-01
1.443439034454423731e-01
1.780611661622357178e-01
9.913092167906252528e-02
7.346748782872007666e-02
8.799909127504147721e-02
1.028159538184001548e-01
1.179466198220192469e-01
1.433514932767927796e-01
1.002713448434209981e-01
1.486805464933126930e-01
9.544217686993299032e-02
8.311329057396761588e-02
1.081945821670206448e-01
9.719244115251744753e-02
3.076609045278626969e-02
2.292641831451688178e-02
1.162144854173918773e-01
8.523757275577618919e-02
9.542560338062068548e-02
4.641329016322335438e-02
2.370056653453652545e-02
1.022604640583728436e-01
6.370465903437197430e-02
1.242823898658733731e-02
2.164910203953725881e-02
1.614384453200862213e-03
-4.222605014055410416e-03
3.566078845719644619e-02
5.481999145490096259e-02
8.784210260668997433e-03
-9.798997979099707822e-03
4.667146888370327790e-02
4.072023341813145458e-02
-5.890679149236414253e-03
5.997018581939124460e-02
9.685752064505493558e-03
-2.341707431602133016e-02
-3.266383362615001701e-02
3.925664051255924047e-02
5.168489040189286343e-02
5.584734029261129162e-05
6.822667248582080235e-02
-3.350791733101303460e-02
-2.513180766321704979e-02
2.919732280523616025e-03
8.368224040318679446e-03
-5.695689658028789404e-02
-1.873766237699907647e-02
5.666162856723748475e-02
-5.185417095747529154e-03
-2.241291306130120328e-02
2.964971313076328330e-02
-2.381710690608020153e-02
8.229988698712158157e-03
3.343122358486078083e-02
-1.260078484376720744e-02
7.697732250067351734e-02
3.493536042794068153e-02
1.764471985413532118e-02
-9.417301260242531835e-03
-9.923229488813497048e-03
-2.788626892193919390e-02
-3.372373162026629650e-02
-5.295179595296405084e-02
-8.282236350862486746e-03
-5.278869959227958097e-02
-3.794742448330017115e-02
3.328562048557173053e-02
1.344037275500869696e-02
6.328209939604616252e-02
2.549794021137433142e-02
2.910479706279209267e-03
-1.568365356940139288e-04
2.759797648340577697e-02
6.459948525523689922e-02
4.882238733803795361e-02
4.975081432729330788e-02
8.169128895402201496e-02
6.026233538039804660e-02
6.876706774967251967e-02
4.469390514543448989e-02
3.870322791872413126e-02
8.179210343066149747e-02
8.991764603106752740e-02
7.789657081595982580e-02
1.211993238061997713e-01
4.731637839492332243e-02
7.789479404453607259e-02
1.229306560841721407e-01
1.119457555732882581e-01
1.441504448225842949e-01
5.077476319555475348e-02
1.518769054564321763e-01
8.624445605010294669e-02
1.540211407148606160e-01
1.137778312196317254e-01
7.389055310303901947e-02
1.585762561947049176e-01
1.253156731894335407e-01
1.445734760265355023e-01
6.510621087860890555e-02
1.235955307306462747e-01
1.383925692098662008e-01
1.217311721121996093e-01
1.118343093035517877e-01
8.004041844872382405e-02
9.308756313388630299e-02
1.211851140301961338e-01
1.226683841107702733e-01
7.257491367036345009e-02
1.653416365562795642e-01
9.336508701115117659e-02
8.457346712096917851e-02
8.659378235930484391e-02
1.837528071108370242e-01
1.534603199101841342e-01
1.682683429938200970e-01
1.990981807880696508e-01
2.508999151325497778e-01
2.765485294493138513e-01
3.098285249019015475e-01
3.479051688741994774e-01
4.715495524247901860e-01
4.642182019097011447e-01
5.396200385686502621e-01
5.687514445769924487e-01
6.315975368936860290e-01
7.832182921545315368e-01
7.897981961554100261e-01
9.452129513611426948e-01
9.663690390367101202e-01
1.105412668095302697e+00
1.162244268436270822e+00
1.172336184499940703e+00
1.349692980729381597e+00
1.316765006795489246e+00
1.366095186907827053e+00
1.412974431449161461e+00
1.398787550415452774e+00
1.434717135175019198e+00
1.401705499074011430e+00
1.425792690744415836e+00
1.284391312522598527e+00
1.291590616611846265e+00
1.222702324941694174e+00
1.211578574632504512e+00
1.065939093893228939e+00
1.011456125013557639e+00
9.418366002102638301e-01
8.151147538269554182e-01
7.572575779943494512e-01
7.035492263173374061e-01
6.366152062176680948e-01
5.123203886069431778e-01
4.524123262187603745e-01
4.168890400946690389e-01
3.152812161180083561e-01
3.194843432237378655e-01
2.270035899042208705e-01
2.627884261404224708e-01
2.218555654297997282e-01
1.936615850470316258e-01
1.956018101918603758e-01
8.759608931394466391e-02
1.415913637491624244e-01
1.380963845484155794e-01
7.757385813985259726e-02
1.196987340840253156e-01
1.118401191512639059e-01
1.641034494883715500e-01
7.750390173692864315e-02
6.858372389238803768e-02
1.028366806994697735e-01
8.702516553624924101e-02
9.342827946462110844e-02
1.185804683244956748e-01
1.088118679285232648e-01
1.024569535610921622e-01
1.804478644323196657e-01
1.969925474778386476e-01
2.392382906417605815e-01
1.661998699286146297e-01
1.799890437827288414e-01
1.115842157289205494e-01
1.210491766010545478e-01
2.116828512775303650e-01
1.780202625751312884e-01
1.943793004694358284e-01
2.342560153107671184e-01
1.609936928843898052e-01
2.032007243018323361e-01
2.104967010684939410e-01
2.057323978402776921e-01
1.515634005942753937e-01
1.666446093982943688e-01
1.804146064201209154e-01
1.789710731608378791e-01
2.169525197178175380e-01
1.593957977296662776e-01
1.852332037984324442e-01
1.927219288984462764e-01
1.748482980260409325e-01
2.236000830025363650e-01
1.959383936307434737e-01
1.821410433722843170e-01
2.011513297233965825e-01
2.284745996216833719e-01
2.133861603307269650e-01
2.246292802529565591e-01
2.261162263420884999e-01
2.028127860524906456e-01
2.365971476080853952e-01
1.663753074877428739e-01
2.034570630609138231e-01
1.246080815209985315e-01
1.984778853388702580e-01
2.058897459913663908e-01
1.295764095507842550e-01
2.171736202172254993e-01
1.579702067519552222e-01
1.522044386812991257e-01
1.457503302629733211e-01
1.414874415258721707e-01
1.533026009270364032e-01
1.580664682787716324e-01
1.521957466708332707e-01
1.151964849456301176e-01
1.988006038592144142e-01
1.281497877948855890e-01
1.070607246621944897e-01
1.434278226527012645e-01
1.467361006819879743e-01
1.234536435433317703e-01
1.208458364600862311e-01
5.925346556300477296e-02
1.048903155991469105e-01
7.836934513753607279e-02
9.876515620775513926e-02
9.724911200546562662e-02
7.394282571801343018e-02
7.261785792544379892e-02
4.389185309729280726e-02
9.575778255131436878e-02
1.452443690060135212e-02
5.388132372189421981e-03
6.114405614192498783e-03
4.784615307662112849e-02
1.493673761541614020e-02
4.304613713855737211e-03
5.015317512316201654e-02
3.093467376507299388e-02
-7.180240319871605825e-04
-1.190862527894465117e-02
6.779217593301731237e-04
-4.308514627129909902e-03
-4.816908329817761597e-02
2.148344115006235733e-02
3.306185353844066227e-02
-5.707440973030772358e-02
-9.437127497118127928e-04
-1.332405380083592078e-02
-3.311984267257910008e-02
9.338527382730243964e-02
-1.440004328655625221e-03
-2.666208141719079300e-02
-6.288402742618089125e-02
-5.355616476101296430e-02
-5.047560926129308900e-02
-3.774603388403170723e-02
1.877769845148058447e-02
-4.290947547090627479e-02
-2.986060889520550723e-02
-2.740264540723319486e-02
-1.064426473741330453e-02
-2.690201465286511107e-02
-1.389996102975896153e-02
-7.163991880487370623e-02
-9.128650107601227193e-02
-3.974884813562887947e-02
-2.465899557304392087e-02
-1.339846874967307727e-02
-3.230721910203644687e-02
-8.348547466159700337e-02
-4.582017823029311404e-02
-6.996882233760784442e-02
-1.811568287144830341e-02
-3.547086766360137838e-02
-4.091061450164199670e-02
-5.586021499856090589e-02
-2.641636715421715256e-02
1.849601892173792506e-03
-1.853341662362071457e-02
-5.108135244786675411e-02
-3.833286146231264235e-02
-4.699801213102323960e-03
-1.220746129093554233e-02
-4.199320887577537298e-02
-4.427566606365252594e-02
-3.447248087884285939e-02
-1.249776067273976332e-02
-3.781486937544219912e-02
7.748023044499036116e-03
-4.862303703319373338e-02
7.676641968794563342e-03
-1.852781445809914204e-02
-1.961974788311082046e-02
1.536816666877155457e-02
-9.979643062840097556e-03
-2.264539438761608431e-02
-2.128892085311968191e-02
1.211950416537586200e-02
5.815466920923939576e-02
2.797241443774226011e-02
5.326264776350715657e-02
1.727812633256199659e-03
8.729520108717844784e-02
1.183996773044063144e-01
1.864395496852976758e-02
8.196189275543039332e-02
8.458382352066941279e-02
1.195479985944570001e-01
8.536053464133205870e-02
2.244938819339926950e-02
1.019084051568184268e-01
1.163883843284740927e-01
1.012505782536450988e-01
1.146794399049393953e-01
7.051479643125319052e-02
1.277474285304691648e-01
1.242182830793528425e-01
1.350894274424366548e-01
1.616346360403075888e-01
1.014828737478689347e-01
1.261174328717734883e-01
1.165261351682893576e-01
1.508055332644231694e-01
7.553190833760388412e-02
1.365513825584734886e-01
1.123685536642784200e-01
6.783101703994012799e-02
6.559541246845124185e-02
1.072613219680592367e-01
7.723196269158982830e-02
1.769850219381507717e-01
1.389384272735584291e-01
1.440416337991023699e-01
1.828998651195704594e-01
1.697469699328751636e-01
2.538047778215990480e-01
2.693234340100065793e-01
3.287781294600694015e-01
3.482620913962839460e-01
4.455586233817675490e-01
4.699745868996492160e-01
4.820750903136448162e-01
6.410324876145163664e-01
7.099084141949296711e-01
7.767423981808914135e-01
8.303828146667749932e-01
9.587260643414363681e-01
1.077772058796600652e+00
1.065777907661418000e+00
1.159629249690455444e+00
1.239325835942445719e+00
1.271373625800860552e+00
1.279548899097370240e+00
1.356815293436440362e+00
1.336791823348591812e+00
1.431926263752678175e+00
1.452871190775117283e+00
1.379354622569950894e+00
1.331395156489834974e+00
1.343713286274826668e+00
1.264750818988074954e+00
1.229089179245284047e+00
1.175025521487908620e+00
1.102946720889893317e+00
9.446504849156240891e-01
9.553609090971370010e-01
7.996198573937781662e-01
7.257327861215081555e-01
6.298521169234881922e-01
5.168907832832184690e-01
4.686328637100204975e-01
4.287374261177878121e-01
4.000524001344138991e-01
3.018762762478339190e-01
2.794602300168604336e-01
2.902553005928799612e-01
2.452047202034280393e-01
1.749041285066499918e-01
1.362922518353845702e-01
1.871814993909834135e-01
1.099239894767838899e-01
1.159171709076778911e-01
8.633617259907497288e-02
1.220944958772808286e-01
1.413668700871776596e-01
9.075349171341845489e-02
1.336134947057125710e-01
9.424546902627524425e-02
1.275848363618708459e-01
1.601704880774140194e-01
1.155694856071499965e-01
1.337482261441314824e-01
1.745824011607969850e-01
8.620587061480294855e-02
1.777386888677876808e-01
1.391854801704140443e-01
1.766126879137920602e-01
1.708630703655135141e-01
2.010142326945246749e-01
1.122593338210571834e-01
1.455579686348811574e-01
1.618949553926263829e-01
1.561879730429576174e-01
2.334561590790217855e-01
2.109156177867206328e-01
1.658602950958228683e-01
1.579081903026822165e-01
1.925872386555851357e-01
2.156521500960191240e-01
2.075256759846016430e-01
2.084102891583277384e-01
2.078700982124819796e-01
1.855383595852487799e-01
2.125319670826884000e-01
2.143955735044033584e-01
2.250618754544380096e-01
2.397642439482340349e-01
2.673906077359093358e-01
2.518786737998634506e-01
1.789803131794621416e-01
2.561487246077846502e-01
2.040065043738612804e-01
2.539287884281606900e-01
2.335601588118641492e-01
2.159291128188846609e-01
1.762137940950502801e-01
1.830108553690429352e-01
2.186796764233425172e-01
2.097014174175049206e-01
1.916482468868566935e-01
1.784180265358250583e-01
1.761516550975829043e-01
1.992985557412911557e-01
2.063811464370602367e-01
1.633164207204781948e-01
1.776594077861194387e-01
1.674830236971019404e-01
1.554626945565321106e-01
1.516005680633063513e-01
1.638109370315156965e-01
1.360892239393357572e-01
1.432940856499280158e-01
1.959942966793675745e-01
1.107430770141428211e-01
1.389962488309705591e-01
1.546325714780537597e-01
2.027778023965293996e-01
1.555802178323626439e-01
6.189100418866934350e-02
9.742243054951059411e-02
4.103072027953052342e-02
1.024019347254945533e-01
9.110395413795870090e-02
1.085475051964979176e-01
1.316559835300994130e-01
1.024252845580867211e-01
1.039061421272085006e-01
5.049196980444201066e-02
8.082826584552703364e-02
7.008559361939505072e-02
6.038980540126283325e-02
6.726951468511119248e-02
4.890989420528479847e-02
3.324051489674625243e-02
6.341710017489214646e-02
4.085764305440162114e-02
1.868825167504682694e-02
3.745889457234628794e-02
3.979279731326226116e-02
-1.091066128410952268e-02
1.263383390054130875e-02
3.230542281532226834e-02
2.928471994161116476e-02
4.252098745971460980e-02
3.448782202132828073e-02
5.247241057915102980e-02
5.188986616638278926e-02
5.965366435981404869e-02
-2.283689466263929060e-02
1.212608282237793642e-02
-1.364515845444990230e-02
-1.061075538287027664e-03
-8.865748002224078245e-03
-2.516404363200048025e-02
-3.756760941062116388e-02
-8.313752538315887300e-03
2.437638956034113291e-02
6.264207638744214574e-03
-3.651279983379214500e-02
-2.373234144830338455e-02
1.518166222587043201e-02
7.623676785294720981e-03
2.009657537695410875e-02
2.924997811116773760e-02
4.512459869755146291e-04
-1.699758716892279392e-02
-6.173592107945626711e-02
-1.617035556630784521e-02
4.339118978222671064e-02
4.321176267859175302e-03
3.288838410896902098e-02
-2.757122612773953846e-02
-1.363387044388986169e-03
-5.450533183752795385e-02
-9.097733928523608904e-04
8.970710216298600354e-03
2.059428903738547492e-02
5.444048232799460207e-03
1.447628822329370332e-02
-4.771270752418520916e-02
2.703548306790069106e-03
-1.685116582070599056e-02
5.495416592770356601e-02
-1.528889963513269286e-02
3.384075253215207413e-02
-1.779482290598183303e-03
6.810982424384925960e-02
6.588791783039953109e-02
-8.204935622398192019e-03
1.756500043340006312e-02
8.342515839929927346e-02
3.475475994443078670e-02
6.717930353904333352e-02
4.614358265290256778e-02
7.389129125478686999e-02
8.095296428191928184e-02
1.152100069236098312e-01
1.271817412966293886e-02
2.261454249420493529e-02
7.326466683335171315e-02
5.260791770618761243e-02
5.265759262446170763e-02
8.093717698349511824e-02
1.626195065388846839e-01
1.355800112327473494e-01
8.965545116767860423e-02
1.160605312855370330e-01
1.451368891204421474e-01
1.578476376426364014e-01
8.948653436525065563e-02
7.964077242997200101e-02
1.243572366658379641e-01
8.619141378754821559e-02
1.706143999341218076e-01
1.533424806078630964e-01
1.244692244851623303e-01
8.205173069719502721e-02
1.808996175213632429e-01
1.665399952652915905e-01
1.638116472108239186e-01
1.083591346379498832e-01
1.099734908405768929e-01
1.598460188237340041e-01
1.171326006423863142e-01
1.394748089314940265e-01
1.130695272738858753e-01
1.449959772403503766e-01
2.169837341361919303e-01
2.193929195397348597e-01
1.850649375667148544e-01
2.133428678068939044e-01
1.610418733828368476e-01
2.434428036751466184e-01
2.248743803107941253e-01
2.554378845880765359e-01
2.952412305011987703e-01
3.716882800273567100e-01
3.605202504852187961e-01
4.011278270637183008e-01
5.100337893862816330e-01
5.553970896158282322e-01
6.119026646788047197e-01
6.642278707247025737e-01
7.402579195295261316e-01
8.668527048697990400e-01
9.010217969853838715e-01
9.979051813403776450e-01
1.020970841305514965e+00
1.098870605386561117e+00
1.247468383819910764e+00
1.328801338127347353e+00
1.385293061784782287e+00
1.469301648196380539e+00
1.436362840732047896e+00
1.481423374917002045e+00
1.459444665928816942e+00
1.466626744321962050e+00
1.407716608256804891e+00
1.406849576275345459e+00
1.312823001447580129e+00
1.289545926020245314e+00
1.226826461660012635e+00
1.141514023725535898e+00
1.071020931359814909e+00
1.022493772406028789e+00
8.639495409725416186e-01
8.608058908392900443e-01
7.389032997015755333e-01
6.898974539654904037e-01
5.933286842521237059e-01
5.609100110242105641e-01
5.016883740549464843e-01
4.399905798178369576e-01
3.536210401956740856e-01
2.644760285718796289e-01
3.266752415114037023e-01
2.875732731910459195e-01
2.309438243812273750e-01
2.083580619034697545e-01
2.325558271213793160e-01
2.051369738183317915e-01
2.404509025223257601e-01
2.136308919628464309e-01
1.464060590482254565e-01
1.584580640610411817e-01
1.488353361791643070e-01
1.571503232572579734e-01
8.407299317239075309e-02
1.571924972618634342e-01
1.571814460050360296e-01
1.876002008637433216e-01
1.789606649492294643e-01
1.742974861477262216e-01
2.131307975972766833e-01
1.048061143534219225e-01
1.834960249401570709e-01
1.907187678119228458e-01
2.300712846075719242e-01
2.216746780961534879e-01
2.407979426252319366e-01
2.334272368587586577e-01
2.611282191003106434e-01
2.940651660383452604e-01
2.386904947823904610e-01
2.895669448572866234e-01
2.559665446204288930e-01
2.729257919479676220e-01
2.545968913467167027e-01
2.629535338155701285e-01
2.694632114598061734e-01
2.337405897842315117e-01
2.641540935604718143e-01
2.298823177850777555e-01
3.145657628495919234e-01
3.150879037255445714e-01
2.309797179820712310e-01
2.667193115200210962e-01
2.104772393421370791e-01
2.435136600476022484e-01
2.437673953939466787e-01
2.318838288479179166e-01
2.696170831064583218e-01
2.284131357274712393e-01
2.876211203749122203e-01
2.171853710377552038e-01
2.830590197693176324e-01
2.474987898440205725e-01
2.545798245711073382e-01
2.735114853719215477e-01
2.397502065594722398e-01
2.403265294189723400e-01
2.528111593907905186e-01
2.279746883837629190e-01
2.243643533368115395e-01
2.582002943425060759e-01
2.937763117063471596e-01
2.146149506118070760e-01
2.476175601429314588e-01
2.343109396791943355e-01
2.008391017808332235e-01
1.871713780536430893e-01
1.800891993027899929e-01
1.810388932872549761e-01
1.678115301748314137e-01
2.028279970997857173e-01
2.153150566149907852e-01
1.663081128984063295e-01
1.653200339811028430e-01
2.013449537863010175e-01
1.330641035196813426e-01
1.978592389110436500e-01
1.390762809484685503e-01
1.287758929725799639e-01
9.884286914509829436e-02
1.710237897333070634e-01
1.468094001143831484e-01
1.241236032936414990e-01
1.589052110543044682e-01
1.570578335526058855e-01
1.739951558591269765e-01
9.325824402791352274e-02
1.029371898691121417e-01
8.355007525884586284e-02
9.010172087418841236e-02
9.158902617144126790e-02
9.110232775652594983e-02
1.096717931595852374e-01
1.353427404958271740e-01
4.143304998992820148e-02
9.564801117232016314e-02
1.000682092977890347e-01
4.612133674819861306e-02
7.586214558291834442e-02
1.071224406647564575e-01
6.484841585294953692e-02
6.330377815298578181e-02
1.206052836262738182e-01
8.862905348674408879e-02
4.075658111855308408e-02
1.139746579234001828e-01
6.267030540014499607e-02
5.353992251598078955e-02
1.042841269360606227e-01
6.081072344945921693e-02
1.726786522381084515e-02
3.659431274506259879e-02
3.364428160253490896e-02
2.122099748768100855e-02
5.162714807720009125e-02
7.409459786858867136e-02
7.433256810950635701e-03
1.312229316684352526e-02
1.896651236550507547e-02
1.314211717592452672e-02
3.868376116519522956e-02
1.255640771723962740e-02
7.613559453622326112e-02
2.185934422117993825e-02
4.910005564126256050e-02
2.575615541412518139e-02
1.067137156148783572e-01
2.352834111427749841e-02
7.994824947975445739e-02
6.550852258504968884e-02
1.727702966917918359e-04
4.316143755553077110e-02
6.657683790318139061e-02
8.406971495536288974e-02
4.908830569257453813e-02
6.604739955767618964e-02
4.057562517766798160e-02
6.661674548983102795e-02
6.923453590036197924e-02
9.473317864437047486e-02
7.016137025099605795e-02
1.032676822018023521e-01
9.531963662714079688e-02
1.298336645292731129e-01
1.056946607879461209e-01
1.031863808520085690e-01
3.096575291241322053e-02
2.254309365815014565e-02
9.103924242950223178e-02
1.295863846252874318e-01
1.300823548275065189e-01
1.833043778663210055e-01
9.834725875885295954e-02
1.061455107784791269e-01
1.231477439917115779e-01
1.447107115668673505e-01
1.328975664074022733e-01
1.352999195069345961e-01
1.376594122192737746e-01
1.317483248845219834e-01
1.408209573892393596e-01
1.720507641798036391e-01
2.298446210254723732e-01
2.083914394681609383e-01
1.776721842704207799e-01
2.043446385826628575e-01
2.386477965316340932e-01
2.129308340624321283e-01
1.304258166449727419e-01
2.151812087004732199e-01
1.990522580430416077e-01
1.722392476969649144e-01
2.088970508606005638e-01
1.547216749790346624e-01
1.710128437754348529e-01
2.200014220073059357e-01
1.851140093927325092e-01
2.353064164388907198e-01
2.032024566800061383e-01
2.278460535859386238e-01
1.930119319747091722e-01
2.023970089378784587e-01
2.111763479501830021e-01
2.217886145452093172e-01
2.189737023174893327e-01
1.945246506360010785e-01
2.535599926143923821e-01
2.394062263542004465e-01
2.704137000992922757e-01
3.690912697278458943e-01
3.764788833830511328e-01
3.487645142404410259e-01
4.408203695929749366e-01
4.396589257395756567e-01
4.645278149490220110e-01
4.865127726451710655e-01
5.973534357487718660e-01
7.199240279558674072e-01
7.183275694398109090e-01
8.512146428795351882e-01
9.454482226602571870e-01
9.732012967333536491e-01
1.084850625254465184e+00
1.148515855830922749e+00
1.200882274945081152e+00
1.307525453094047885e+00
1.373780335043364609e+00
1.366353636179808761e+00
1.434318272447802745e+00
1.490128122409894340e+00
1.537949082410372093e+00
1.515759641381959621e+00
1.519070628901615150e+00
1.439951629081822837e+00
1.481198502633064962e+00
1.424064239315006919e+00
1.285948847537753625e+00
1.268428901083072047e+00
1.214961134619261474e+00
1.096889776856375676e+00
1.066790760499058521e+00
1.002516721054710791e+00
8.278160324551995242e-01
8.242012806959508886e-01
6.997250324635208019e-01
6.059816153005779249e-01
5.559841046854983038e-01
4.254500425353909265e-01
4.839221201076932544e-01
3.883934200365113942e-01
3.709149605548555662e-01
3.017197054448060856e-01
3.366404198883833354e-01
2.406575111320693461e-01
2.206398717280451671e-01
1.992793952755645415e-01
2.618752610013686533e-01
1.980841628653585151e-01
2.064460546034749266e-01
2.219407099870892852e-01
2.480711575568902982e-01
2.244194311252160345e-01
1.834515235687718682e-01
2.224230109761881902e-01
1.438469189149932659e-01
2.111260286947437281e-01
2.269796995222747582e-01
1.967941209630616473e-01
1.944628336063669027e-01
2.783647493657207539e-01
2.611893598660343652e-01
2.412854773291053245e-01
2.036400666547832083e-01
2.347359732047001879e-01
1.995550608135040205e-01
3.000705768849496469e-01
2.826024791030062877e-01
2.696989139972457150e-01
2.473069283660000173e-01
2.593481000316170126e-01
3.247723276226565647e-01
2.772855491701140540e-01
2.819768817245375536e-01
3.418207931543905120e-01
2.718520186948345518e-01
3.119268404702849606e-01
3.014412324752865358e-01
2.752045778164082801e-01
3.183994671508535435e-01
3.361497086418744340e-01
2.879704678525238926e-01
2.856477844756427076e-01
3.024736672145564853e-01
3.035896260703476734e-01
3.396444432790732826e-01
2.613907538211451276e-01
2.866015244721910049e-01
2.966888192526246359e-01
3.000261859398014597e-01
2.648674210218169289e-01
2.519258235034866900e-01
3.184157843473374716e-01
2.650431229419705215e-01
2.879743122678953271e-01
2.854547729287475466e-01
2.951890299170121246e-01
3.318374184758312029e-01
2.932954911660994868e-01
2.896088547988304729e-01
1.980401749271953615e-01
2.715729260946052603e-01
2.862507381195588674e-01
2.671779040286583751e-01
2.168781809785167713e-01
2.771879202031107270e-01
2.193031842564509004e-01
2.237472555125523399e-01
2.072834489618134990e-01
1.993371247228962750e-01
2.309521580329179369e-01
2.570204792147419148e-01
2.242024154050287488e-01
2.459475487212776090e-01
2.345005682360906119e-01
2.283318450260254373e-01
2.044286110850135618e-01
1.858769773355323229e-01
1.476857184932776623e-01
1.847120567869263985e-01
1.707737515181126930e-01
2.065491836199718767e-01
1.708188360791236815e-01
1.637203128655679851e-01
1.760038287011214952e-01
1.440951238730539541e-01
1.692541074692560099e-01
1.438699620720888528e-01
1.337570818576978571e-01
1.930780503878646026e-01
1.330248082700005163e-01
1.284935386469899243e-01
1.392006752870117159e-01
1.032209925787002380e-01
9.869140311697485735e-02
8.572874715724962402e-02
1.383570138663810511e-01
1.231266494664858685e-01
6.555146952128096394e-02
8.563098710851164974e-02
9.704380267328538423e-02
3.132497942574989647e-02
9.934404741842056685e-02
4.210958098019981777e-03
1.069695010710768751e-01
1.026942157103567649e-01
8.385380501866213088e-02
1.383787294750547792e-01
1.189006678387312110e-01
6.430517106911393110e-02
7.860291980418182556e-02
4.679672496128527148e-02
9.053471993677322804e-02
1.023982819823099633e-01
7.778541686631280927e-02
2.878744701126043776e-02
9.118509775930391803e-02
6.441806044145530208e-02
9.075564912247482963e-02
5.186760533290417363e-02
3.222074251583158938e-02
6.818989922986906649e-02
6.220241857884811765e-02
6.481252088962655145e-02
7.533122824782548244e-02
6.317976530398704271e-02
3.993781250302733121e-02
2.775607482236572970e-02
4.621892001152042018e-02
6.551521814666358412e-02
3.055662473143037558e-02
7.892689256946863741e-02
7.662032213289615701e-02
2.660798887006966124e-02
1.320419625821736276e-01
6.500941030726148373e-02
4.832354560974321672e-02
5.147057818194333834e-02
2.661974564361885287e-02
9.908144422848716437e-02
9.446606272118310277e-02
7.416868407802273966e-02
8.501720866161752155e-02
6.398854248711655091e-02
9.010540554708830474e-02
8.334156831387587450e-02
9.444741973804869628e-02
1.521562591106659368e-01
9.263839669738194171e-02
9.037306293737627783e-02
9.222664929407968504e-02
1.610261323001535849e-01
1.015253523920714163e-01
1.483493795165395368e-01
1.570564370707898949e-01
1.521738015211654971e-01
1.542274409867215035e-01
1.574061859623356874e-01
1.580988577351155056e-01
2.025353726924957187e-01
1.156309963420822651e-01
1.951082025714533097e-01
1.692906831046231964e-01
1.866091008760113468e-01
1.176021153597022889e-01
1.772785895000795475e-01
1.636852244063980999e-01
1.643502335373788759e-01
1.658818140962858012e-01
1.518365689068356117e-01
2.121131738891338103e-01
2.538561687595433103e-01
1.683613949356794204e-01
1.749567500057364611e-01
1.915658835828013828e-01
1.786892265866914520e-01
1.840561175980007791e-01
1.747093344820651595e-01
1.821612954013336061e-01
1.273172836357578386e-01
1.575288039373648474e-01
1.892428066634239125e-01
2.424746979055331098e-01
1.818106458017037519e-01
2.349888154690852327e-01
1.836984393403479632e-01
2.312404828543887514e-01
2.556630036143350271e-01
2.903935183160143430e-01
2.525967058670448573e-01
3.499874037354751555e-01
3.253169950243321451e-01
3.602527955537521698e-01
3.920675460784047717e-01
4.624116077852123419e-01
4.842328430508415771e-01
5.156313032636060667e-01
5.910142511661191644e-01
7.109645637320094469e-01
7.241485300103422951e-01
8.279865324878601385e-01
9.660313548920185234e-01
9.673662337409483225e-01
1.113088999372597865e+00
1.197498296672597107e+00
1.247545745546275953e+00
1.278861817192187944e+00
1.386339627342382030e+00
1.380683420702671249e+00
1.437235195341135752e+00
1.436588398586630344e+00
1.521953431757948394e+00
1.454636477070603728e+00
1.497280493781914856e+00
1.416087587800765712e+00
1.394484024146344314e+00
1.384236960072086298e+00
1.307949357618023889e+00
1.172765775834396784e+00
1.177427922244110414e+00
1.059930414473888138e+00
1.012614509268165763e+00
8.722878601449589597e-01
7.966060910451240318e-01
7.619737740475054366e-01
6.511830275986549843e-01
5.992638843114211911e-01
5.031291195172512554e-01
4.894120492785388188e-01
3.727131673552607216e-01
4.024204306762226291e-01
3.500904334473067259e-01
3.120819459428098575e-01
2.876520148757424344e-01
2.472815196315969188e-01
2.325378805102785995e-01
2.034730162872062653e-01
1.774305890594262969e-01
2.114715534504259531e-01
1.581386894892426453e-01
1.732907832227326417e-01
1.965813424775444407e-01
2.028373605130062707e-01
1.804800864742582278e-01
2.468125407506207847e-01
1.610005386613060641e-01
2.271072439087931938e-01
1.849328279599750935e-01
1.818455578503261338e-01
2.621956941207752578e-01
1.916677970146666299e-01
2.800456278360259343e-01
2.420835949382804386e-01
2.236703426734027444e-01
1.992419973735275462e-01
2.608480997076088048e-01
1.906847100279970009e-01
2.712867435118985759e-01
2.779741923409232429e-01
2.465433973503988185e-01
1.991194426618845270e-01
2.762805017614727854e-01
2.657695442016658749e-01
2.512383089587021390e-01
2.367893709436840743e-01
1.827580249606272078e-01
2.429225607268386544e-01
2.886972695917721654e-01
2.765537357836083121e-01
2.493689631300603227e-01
2.747343100621190137e-01
3.096072685266159641e-01
2.745679256617925001e-01
2.995263837324281253e-01
2.660853042347858244e-01
2.359557132246429267e-01
2.748016594193053441e-01
3.274433018891441671e-01
2.631907313356736111e-01
2.865523778984448433e-01
2.729364550101470721e-01
2.647865938789620843e-01
2.528217426551624403e-01
2.448910078586659933e-01
2.529268619537421992e-01
3.088700986949485250e-01
2.460063089340751852e-01
2.686402523834163225e-01
2.151437806713487333e-01
2.477429839203703077e-01
2.858887634651567367e-01
2.309085292001993583e-01
2.013005362277726640e-01
1.962819486756823550e-01
2.233915837081263123e-01
1.718517139585922504e-01
1.575980473914755098e-01
2.237327441392635285e-01
1.908694751594213757e-01
1.843937268291248877e-01
2.007966885733613593e-01
1.918693265813857241e-01
2.139607958022405054e-01
1.219093445512305779e-01
1.569075154302838893e-01
1.918924449356211315e-01
2.035589738398244641e-01
1.843936267705067744e-01
1.946961711554502372e-01
1.180364451808927351e-01
1.429324042247568927e-01
1.636904062528456438e-01
8.835891801285174207e-02
1.358035151537496932e-01
1.421547045255193986e-01
1.136161377251827809e-01
1.038361539867264094e-01
6.862584916305070060e-02
1.132844542419712275e-01
1.025158233443754230e-01
7.688170868601296171e-02
8.961017657897757394e-02
8.410888005549166380e-02
9.289181910809227172e-02
1.037560553269247510e-01
3.770933096848505528e-02
3.146223564410988160e-02
6.226830913728545469e-02
2.071784768688947342e-02
6.705275752622072427e-02
6.492172696323135483e-02
1.716940868741858445e-02
1.131338057031374550e-02
8.550861958160568821e-02
2.595488446796156284e-02
-2.172020803018306565e-02
5.031478602559882884e-02
3.285563436025459860e-02
4.995999840501569311e-02
4.102674583097573602e-02
-1.767013359925802274e-02
1.356931834064740473e-02
-3.685442166283401516e-02
2.675766891600700817e-02
-1.571887908268622749e-04
4.715527901043513326e-02
1.108650793898984487e-02
1.598257122012462089e-02
4.441119077180204211e-02
-2.628643934561048986e-02
-3.689365773300356914e-03
1.238963619450754970e-02
-7.291899676532771768e-03
-2.568407262557663787e-02
8.163447042656476332e-03
1.840746182418763477e-02
-6.427486717728361602e-03
1.452911887088165557e-02
5.192509107185748485e-02
2.986323836220250438e-02
-5.523844737954782327e-03
3.610387136383646361e-02
-2.803607246944346543e-03
-1.024983632307063103e-02
-4.934621467267599759e-02
1.601994228629070177e-02
4.564879592829427374e-02
-1.342959992787856952e-02
3.133746692315298159e-03
3.569800685822743097e-02
4.761411813034470419e-02
2.796126579872598023e-02
3.820654126225286190e-02
5.873668598540428276e-02
2.477072470037705934e-02
1.130635026941562149e-02
7.177713417086761805e-02
5.030719020161631555e-02
4.019049657099559025e-02
7.413267276964195795e-02
6.189352314309870540e-02
6.850914258692923642e-02
1.075814476695581418e-01
1.624695033693451807e-01
1.022995526742074418e-01
4.870458458348589370e-02
4.291608687847089931e-02
1.269077265531941001e-01
1.600155166833019671e-01
1.133307077849336486e-01
1.099804865111504437e-01
1.143741858238014608e-01
1.324483452521915683e-01
9.547031183130759435e-02
1.138431388762951024e-01
7.844604025956276872e-02
1.139089749133210538e-01
1.268790556166915495e-01
1.284181878023273882e-01
1.284223221582374841e-01
1.501906728539224856e-01
1.820133553460540621e-01
1.747436677088354817e-01
8.285960540884952652e-02
1.870744716826622522e-01
1.637248289270799295e-01
8.886547701846239655e-02
1.256953449298214565e-01
1.340814400742959545e-01
1.281831794827380244e-01
1.384805182242609678e-01
1.981598576411270074e-01
2.053515332821111705e-01
2.064659630003343460e-01
1.685964420322998980e-01
2.105882359027888007e-01
1.660649917306042667e-01
2.195998672592346102e-01
1.031285139175915355e-01
1.931633116429715691e-01
2.554381013150862634e-01
2.706683233593624172e-01
3.488782624875622074e-01
3.669365737084357426e-01
3.750234992228519415e-01
4.461499944889843472e-01
4.837256412300424135e-01
5.968484950652656051e-01
6.289504121885713950e-01
7.522395990032780810e-01
8.447719799572785959e-01
8.637848369906154788e-01
1.006449098454372360e+00
1.117790450418258974e+00
1.146403989317808181e+00
1.146220329126294457e+00
1.309391877297497953e+00
1.325588811272493839e+00
1.315522095517558832e+00
1.470398143766676657e+00
1.393131730496589338e+00
1.416152545433376098e+00
1.440909745699835875e+00
1.448317535430157177e+00
1.325990696332823848e+00
1.387671308119246882e+00
1.299176083701615747e+00
1.265948424424962360e+00
1.139756693225070228e+00
1.096577099723981652e+00
9.577917298393244794e-01
9.427304993417243706e-01
8.113466306149110796e-01
7.710512004732790192e-01
6.997471549314490114e-01
6.049215485462617892e-01
5.225766115909207254e-01
3.872532999133297404e-01
4.177840015132262552e-01
3.308741146782488429e-01
3.062223555042382639e-01
2.852445922583138338e-01
2.466095733539368506e-01
2.344866173676934673e-01
2.120004845077634870e-01
1.476321913791265039e-01
1.413958299704468347e-01
2.004321526975683943e-01
1.947870310599962573e-01
1.698778623893933137e-01
1.188588055077029054e-01
1.334996587759780806e-01
1.577967963033276577e-01
1.447251200648932146e-01
1.824549397446836585e-01
1.246503864859619393e-01
1.261283802633997864e-01
1.508641283296651703e-01
1.995493406714587969e-01
1.871836551754812172e-01
1.335772782057252916e-01
1.432640426258363076e-01
1.487572787353853010e-01
1.771435655237651452e-01
1.508921180795456674e-01
1.796309638391140329e-01
1.703096199099320696e-01
2.451884091090728301e-01
2.288036412561451072e-01
1.983771482603957081e-01
1.687643295321232806e-01
2.130544592072847465e-01
1.494456232977975363e-01
1.842819842812334075e-01
1.928892419032179339e-01
1.754920845033727805e-01
2.223861001659812597e-01
2.384003311806128789e-01
2.344670221290650058e-01
2.299713012627635778e-01
2.336240059840699046e-01
2.325900882438723949e-01
1.964453785477184300e-01
2.463850641748382420e-01
1.987679577167003608e-01
1.720850746720674618e-01
2.498464361408469780e-01
2.448191493675904440e-01
2.086748094211834936e-01
2.083833290233839119e-01
2.217853232504280458e-01
1.949239344334093849e-01
1.969375335612596478e-01
2.337820410681983319e-01
2.177349645079627305e-01
2.314284922650217124e-01
1.577807087699255872e-01
1.915534899976182315e-01
2.031893322309881178e-01
1.887142040799139053e-01
1.515979956700919673e-01
1.722418692749495828e-01
1.574401322941749726e-01
1.584112735261307414e-01
2.074869726372507994e-01
9.439574977027317959e-02
1.449227410388224391e-01
1.483944407424572787e-01
1.549634302696671906e-01
1.399201299112690644e-01
1.241558880063055176e-01
8.436527679333358232e-02
1.473484886509565384e-01
1.050980275901374633e-01
7.362011937190601762e-02
7.757182717575139552e-02
1.024087181055607643e-01
7.301011663272471974e-02
7.726417406574895286e-02
8.211275829012007477e-02
5.237682716532059829e-02
1.101468170551305747e-01
7.381842634253635294e-02
2.221884910467675223e-02
8.447206170947310633e-02
1.053527410765181527e-01
3.330315499174009430e-02
3.436326780801211844e-02
-3.152675661902179516e-03
7.875319374284299456e-02
1.083121736785388339e-01
6.706972532926408492e-02
2.094009304451727865e-02
4.593805556694510739e-02
6.634687500704870844e-02
6.806134663504377624e-02
2.751514130929423596e-02
9.836727516957112505e-03
3.006817756663189567e-02
9.895726848142535892e-03
2.113883370753809332e-02
-2.472017239767051316e-02
1.781136128408248448e-02
-1.187069815096476050e-02
-1.318794211635157185e-02
-3.334580500176086842e-02
1.593111013541780030e-03
-7.870914689249566831e-03
-4.712747709810264501e-02
2.128061319411003738e-02
-1.032336550502024886e-02
-1.814639183178776843e-02
-1.524082515630867732e-02
-5.929933177514778997e-03
-6.736088462170700120e-02
-1.207212000664632801e-02
-7.850748471578042342e-02
-3.163968261428246748e-02
-2.573642153341906130e-02
-3.654372378716078812e-02
-1.559333318164528304e-02
-3.155330989040986550e-02
-2.992063690316146274e-02
-8.559676596615861666e-02
-5.136390714756952636e-03
-5.461801630177515188e-02
-4.093866256682183319e-02
-3.607959273264634698e-02
-3.566344911438017184e-02
-5.501418937289843936e-03
-1.936816041915223260e-02
-1.715579595614367958e-02
-1.637001317585271704e-02
2.332375934170245746e-03
-3.255579082998376339e-02
2.427507065225653626e-03
-5.479857244652774906e-03
-3.430012467332203135e-02
5.069985158373147005e-02
5.489240911369309278e-02
-3.651852119369972810e-02
-2.001139138448303212e-02
2.918819479225790575e-02
-2.305461357330562677e-03
2.331211479481652693e-02
3.633980314842424897e-02
-4.959690082531600930e-02
-1.836742382923567396e-02
5.263837246005735604e-02
2.601850258058661935e-02
5.208725081683779345e-02
6.057634323966717971e-02
2.792647396844726015e-03
3.713351733977739155e-02
4.002187570715166204e-02
2.855250810506726467e-02
5.200203281431949043e-02
6.036504443744487858e-02
1.087691061484324651e-01
3.123921304254193010e-02
7.111920000984620072e-02
7.096164909658496389e-02
1.180102043224656450e-01
9.161957329369187220e-02
4.747060033840995452e-02
9.827403801998838007e-02
1.154434770441406660e-01
1.118948142978584831e-01
7.194595833813294261e-02
1.017705005068371416e-01
7.744107844775457994e-02
1.546922843448076124e-01
9.750657079171665131e-02
1.371402065761053168e-01
1.105577715331937938e-01
1.193861270276357911e-01
9.061886148709974442e-02
1.195056419480271526e-01
1.162153495153157440e-01
2.018013864797032764e-01
6.515531141036301488e-02
8.840448968010097830e-02
1.052437581321123972e-01
1.015925047739979353e-01
1.346479001986717883e-01
1.115844382039886673e-01
1.259231322907129191e-01
1.542348439789933690e-01
1.750385840123108994e-01
1.700314893740672018e-01
2.086997681771103064e-01
2.199781493843656899e-01
3.190160539909863147e-01
3.334364678341478205e-01
3.873518764085527866e-01
4.696608250553475083e-01
5.074916160030227275e-01
5.909518219224829672e-01
6.183191748157033096e-01
7.620624705343930216e-01
7.850304866987241059e-01
9.093432816232809301e-01
9.347284446531871627e-01
1.022146691859240120e+00
1.149837131284210168e+00
1.200077415760273603e+00
1.241929245375838597e+00
1.301966729445282578e+00
1.339379842169442725e+00
1.377571468866623849e+00
1.383178772934734235e+00
1.406997897661689478e+00
1.445585596460754685e+00
1.442887528130358810e+00
1.317884843658383653e+00
1.333189876177150346e+00
1.261347649576727292e+00
1.203237967579516843e+00
1.108635182198322244e+00
1.044667539181113547e+00
1.012403993141481218e+00
8.388006381695980451e-01
7.854813842662978773e-01
7.078343097946139251e-01
5.821216788233213313e-01
5.267358652813898257e-01
4.901781790268745498e-01
4.326258467470019964e-01
4.065647811831407110e-01
3.460605676209105863e-01
2.858936609063384982e-01
2.035787398675456272e-01
2.365907392929147146e-01
1.967921482498166952e-01
1.551363219784286929e-01
1.364160943795461878e-01
1.633528184460620314e-01
1.465699376005011045e-01
8.266983919247825052e-02
8.984038661827185857e-02
7.107753385102263954e-02
1.547198160575740944e-01
1.206542358495674289e-01
1.653038345808657272e-01
6.280922514416792390e-02
1.214458664734275606e-01
6.343052762995203542e-02
9.185614452397466989e-02
1.132709894454127231e-01
8.148853477825618308e-02
1.788816547641504384e-01
1.487724253011658004e-01
1.336059841628248757e-01
1.556114158437552908e-01
1.782933838925455650e-01
1.800622774394238790e-01
1.933492806984714318e-01
1.134436711357136585e-01
1.434094380265616975e-01
1.308540288720348999e-01
1.784501462630250779e-01
1.495485279325818873e-01
2.074892366134817590e-01
1.670878435105770665e-01
1.367364507150936881e-01
2.019790432540994329e-01
1.812643882810987539e-01
1.717295518184625003e-01
1.748073183255634822e-01
2.056085313480720544e-01
2.168828402652501208e-01
1.475735657427529046e-01
2.525383290747044152e-01
1.870127817355920485e-01
2.040249053746339969e-01
2.647405932094014647e-01
1.817170151644835752e-01
2.036035361733359306e-01
2.195315195799333596e-01
2.104047743509645241e-01
1.386678539504732077e-01
1.820652560210997417e-01
2.065306270935360067e-01
1.571562814407492792e-01
1.855997261192103009e-01
2.738843192009241534e-01
1.777902554153131531e-01
1.029133902815226875e-01
1.767671875884819777e-01
1.488551709613236129e-01
1.734053554668913144e-01
1.230824246434625291e-01
1.305149876037778878e-01
1.591730181940369804e-01
1.326898242261618510e-01
1.450772901738148768e-01
1.326931099212809162e-01
1.518144656162539463e-01
1.288130518835394478e-01
1.056249177895798169e-01
1.191436412899979647e-01
9.132502944642104104e-02
1.345186230547224526e-01
1.062054551196037477e-01
1.839115864008153411e-01
9.879292598010033788e-02
1.037162268022503997e-01
4.328290384941191338e-02
8.149168003974968655e-02
9.177370056337985638e-02
6.782805200634148268e-02
1.198350988357559654e-01
1.071737463195193141e-01
6.272123960564485179e-02
3.498527315538123988e-02
5.014104068089674654e-02
2.450815489369560091e-02
3.101432924936227409e-02
6.319583592316120602e-02
2.584848033897348130e-02
3.935914915818745918e-03
1.190882652589403401e-03
3.802200120727472488e-02
4.082155034918149433e-02
1.855487444592875124e-02
4.197919198019990639e-03
4.854627828621914387e-03
2.834264577643012817e-02
2.612605125812709345e-02
2.914528481834065265e-02
-1.083095643868115660e-02
6.443647414908881821e-02
-4.081293982528209213e-02
-4.643960421400768201e-02
1.121610793049530874e-03
1.559016055993463212e-03
-1.465503242351131469e-02
-3.875430097367810189e-02
-2.404503724834081146e-02
-3.158831712659841695e-02
-2.771380921555017043e-02
-7.047415078579505332e-02
-7.409806932830181880e-02
-1.649432862001474348e-02
-5.140813991961951795e-02
2.146795619971600400e-02
-2.997725494189697540e-02
-5.281340973637002612e-02
-1.702993885005069791e-02
-7.530392793697002207e-02
-4.547269603084389683e-02
1.578482433360432757e-02
-1.712190009342046126e-02
-3.126595394884919971e-02
-4.304833881186580918e-02
-1.603855926163716417e-03
-5.900216331463212921e-02
-5.060685274513122139e-02
-4.604864879337355887e-02
3.726503195159852622e-04
-4.802397345065963219e-02
-1.805299423502177911e-02
1.031841317826488053e-02
-5.484554878415870416e-02
1.549952139695817688e-03
-6.070586074206560379e-02
-2.439562240006854649e-02
-1.491762041101019065e-03
2.396057074035402856e-02
3.005938006635189286e-02
1.957878500846464698e-02
2.634208740874555144e-02
5.191111748102359563e-02
6.358510724233629174e-03
3.178520392898154245e-02
1.845418767659857268e-02
5.005490016776460716e-02
1.443073596055032687e-02
1.020286955353019165e-01
6.331876006587036643e-02
1.263857058075700673e-02
8.098760435917053135e-02
3.428762583323392149e-02
4.852018705119381936e-02
7.008063645399950636e-02
7.050827964558942229e-02
7.875903371123418872e-02
3.061640766267029884e-02
7.278492103177938710e-02
9.022347745560843624e-02
1.170402713849730547e-01
8.443481354916862469e-02
8.426730667830387156e-02
8.247349363647712983e-02
3.509604852436616629e-02
1.452893443824473940e-01
6.199687077989003009e-02
1.105881251023476397e-01
1.131340889504558606e-01
5.885604388375681451e-02
1.190330509950290605e-01
1.025739647359010381e-01
1.587698872537047501e-01
1.305791609149008214e-01
1.291873100966377252e-01
1.287334335939774865e-01
8.913557967703074347e-02
1.113794168714733746e-01
1.149100000423879386e-01
1.128097888602625359e-01
8.151667180624549980e-02
1.507143305487444462e-01
1.631780240965723938e-01
1.327591988971786319e-01
8.881264783615236413e-02
1.845068210238937079e-01
1.297575644106734871e-01
1.894859236563617710e-01
2.401516633634909192e-01
2.899049818333424566e-01
2.317812841346638952e-01
2.699915099515012296e-01
2.836400749582183023e-01
2.889300810974463896e-01
4.314739248677618155e-01
4.427810488430828917e-01
5.491589560273868464e-01
6.153906375071840351e-01
6.747014662035040189e-01
7.081270241561896661e-01
9.011971063403456661e-01
8.716141463098896480e-01
9.940976338226527043e-01
1.105294606975635308e+00
1.095363991136221404e+00
1.222862896000668886e+00
1.304011261808347921e+00
1.310281410391567647e+00
1.413949880821460114e+00
1.406612720999975030e+00
1.463527060088638310e+00
1.470423505748602366e+00
1.425346469675520034e+00
1.395310626981095536e+00
1.338798834590058107e+00
1.308860755521273234e+00
1.303411162834053449e+00
1.196834797337987366e+00
1.070342049023571329e+00
1.064471516588580968e+00
9.478317864058479758e-01
8.852444231372686989e-01
8.591420584857406562e-01
7.350223810175634531e-01
6.393308248966913521e-01
5.092797234606212253e-01
5.017214458184937609e-01
4.506218597336166254e-01
4.330712999509329642e-01
3.200421055245417645e-01
3.178425266077996580e-01
2.964500292140550552e-01
2.077313956733048139e-01
1.597166140239605625e-01
1.849305211796853365e-01
1.401419845328735203e-01
8.810358190509287590e-02
1.551854713084876713e-01
1.865454086497792263e-01
1.174072347692708129e-01
1.079667748475678091e-01
1.571002996821934117e-01
1.120940041395379755e-01
1.117145876411282934e-01
1.665682513290965006e-01
1.312029791214334995e-01
1.798619994296066504e-01
1.959159594861458187e-01
1.799608149837355897e-01
1.982913555714120868e-01
1.816535725793643474e-01
2.275149900556386051e-01
2.219937029730416622e-01
1.885086405430498602e-01
2.102578725637153090e-01
1.973826506126171720e-01
1.886541644442545351e-01
1.723080480679666793e-01
1.745338369167921400e-01
1.944914538000995230e-01
2.068624586853650138e-01
2.035898627938209360e-01
2.273818523962491123e-01
1.963688476951439554e-01
3.004921455157627541e-01
2.068351064484388047e-01
2.343744567749859731e-01
2.487677542549782128e-01
2.200738296265084548e-01
2.655137377541053612e-01
2.399106625701167006e-01
1.825813177130746201e-01
2.283982132804359133e-01
2.463519138858130952e-01
2.285451557887828444e-01
2.272144114120006608e-01
2.537064360595808754e-01
2.590945422425559030e-01
2.563310347330038375e-01
2.055507187728256302e-01
2.352417738005152803e-01
1.770763432350976052e-01
2.533632598273435343e-01
2.154332053355119680e-01
2.065230145423357921e-01
2.695464672332152367e-01
1.784379046918442013e-01
2.387516088915603019e-01
2.416822341916750605e-01
2.233608739239994201e-01
1.780497454998674345e-01
2.071492398679702640e-01
1.881974406232981289e-01
1.611310133880267115e-01
2.438821763839486845e-01
1.756680749419954057e-01
1.978861429630217883e-01
1.275179871623994543e-01
2.247004951199475242e-01
1.880056412608415162e-01
1.620055443220507485e-01
1.363987515062093370e-01
1.527070322672590130e-01
1.735466951530234281e-01
1.670384157265751568e-01
1.948119862051369000e-01
1.456563158990796802e-01
1.757625812764155304e-01
1.423818758551144148e-01
9.413463167156950473e-02
1.191867336806303190e-01
1.593922991916273402e-01
8.331188042386489245e-02
8.509559205458429310e-02
8.213141050376673857e-02
9.609194057014303070e-02
1.067297547038735389e-01
6.271650387920525704e-02
1.106793231858771154e-01
7.349850344646788325e-02
7.539220824300531254e-02
9.501272608711615331e-02
7.197367294344773903e-02
6.895612146526172714e-02
5.865367865350461229e-02
8.240669734673369828e-02
6.040273096910290379e-02
1.934600032505931488e-02
5.725295640436694339e-02
3.777296432903801127e-02
5.491486924875029624e-02
7.309245350983094303e-02
2.370754046213333424e-02
6.816217435577326400e-02
2.959564108973034360e-02
-9.657763282194482823e-03
1.898010464685757903e-02
5.084303894242740013e-02
-8.941103214080994843e-03
-1.073296390016212527e-02
7.696509969524076289e-02
5.543260293883467416e-04
5.082400145986067791e-03
3.509316888007978780e-02
3.546918926695476204e-02
4.668506607622027738e-02
-1.471083932781308903e-02
3.431833815482913247e-02
1.354545030466866411e-02
8.814315822653553956e-02
-7.152591034007994147e-03
3.237311996409571180e-02
4.133897777436668086e-02
2.292684102307334174e-03
5.283856550148877812e-02
6.363773617282413031e-02
2.967105446015612033e-02
4.780163801457378014e-02
3.698276512013427830e-02
3.286897426581151388e-02
7.701973850019414036e-02
4.958407523620063373e-02
7.151457979592357184e-02
4.478388189610586767e-02
6.550278602116321736e-02
5.969654163398813163e-02
-9.930200927736502342e-03
3.549974510750863316e-02
5.925423264283715546e-02
3.910743952462985423e-02
1.422766096923856402e-02
5.401848856503638219e-02
9.034676561334478717e-02
9.434228384115324328e-02
5.918997450195651044e-02
8.185476481237016072e-03
-2.448617076491512584e-02
5.157798564504409433e-02
7.370049648205408144e-02
8.531022651574014792e-02
9.494515029333819300e-02
9.576591074461610065e-02
1.283498865271276435e-01
8.424584485335047390e-02
9.946295159504436878e-02
1.236427992155810923e-01
1.264838842347270620e-01
1.071701112783496196e-01
1.554353671989908425e-01
1.430766721433414101e-01
1.414149366728109647e-01
1.492396450990262913e-01
1.844697637005502655e-01
1.605618243248746468e-01
1.878592152713659258e-01
1.605122249777852228e-01
1.954289044518348895e-01
1.536337523685699646e-01
1.544451336807806108e-01
1.604914175921912933e-01
1.874342715291641981e-01
1.501258865762992167e-01
1.598501190154488216e-01
1.511809940288307841e-01
1.814618311377632076e-01
1.388963922860547706e-01
1.808987865971694864e-01
2.218578509420144895e-01
1.975748108814378012e-01
2.046718081139375922e-01
1.633160764617930527e-01
1.685866140771084265e-01
1.521886289797825254e-01
1.691443063312015049e-01
2.207056473162764820e-01
2.154372856885057308e-01
2.398832412430448313e-01
2.652706427326071981e-01
2.596803303262540386e-01
1.970579061692706857e-01
3.481306440874918362e-01
3.731048076728099017e-01
3.312697123128719445e-01
4.026142703122275179e-01
4.533168823992902996e-01
5.575249755448368205e-01
5.278087026789373137e-01
6.672020798153662779e-01
7.745254407599708735e-01
8.144278606588640779e-01
9.068313619660597347e-01
9.608474700249556300e-01
1.109464364331437025e+00
1.123360610885239863e+00
1.235384803999175496e+00
1.316614637255010711e+00
1.376580366607137895e+00
1.421379722071459017e+00
1.458771308230390140e+00
1.536639572983447222e+00
1.462900803699938246e+00
1.424171651655192328e+00
1.543351493395970664e+00
1.443368160113784882e+00
1.364706194087455637e+00
1.425687379859047699e+00
1.272985912626427796e+00
1.183880892784989314e+00
1.163823893282285526e+00
1.041917591474099902e+00
9.867230968314402162e-01
9.021908064254469117e-01
7.871330913779165384e-01
7.962694281970762455e-01
7.098628367405792616e-01
5.939764461243797200e-01
5.190212236922360223e-01
4.585443076323992839e-01
4.165885032036190649e-01
3.656191299491215463e-01
3.397384818611331458e-01
2.529999816320158690e-01
2.623708572990105514e-01
2.027455859327841614e-01
2.464957229649416826e-01
1.990987532184528563e-01
2.645516396531902292e-01
2.183248693519347083e-01
1.807109473730294513e-01
2.155030866448549576e-01
1.197685397285293274e-01
1.774161021791157977e-01
2.180333527425123430e-01
2.474524530590070104e-01
1.775798006913119342e-01
2.243372444995930248e-01
1.613285869060487598e-01
2.019666905176705496e-01
2.536589158955568912e-01
1.925476862807184442e-01
2.200338601975689590e-01
2.492567765398476243e-01
2.185689740884030341e-01
2.311136769457011186e-01
2.216107977316078836e-01
2.423710150153067788e-01
3.130619327458084578e-01
2.500996163377156023e-01
2.373274964757164651e-01
2.353702946622571734e-01
3.368659848931490619e-01
3.156158701470468397e-01
2.965158966237226301e-01
2.914354055673261112e-01
2.477269117870831427e-01
2.904143329855528033e-01
3.102177302903836864e-01
2.582123445851184362e-01
2.722434963542804676e-01
3.261468937277335334e-01
3.100450834340131578e-01
2.849238163698191162e-01
2.546823552797793933e-01
2.668019221038781530e-01
2.682491451499419699e-01
3.164461303372502754e-01
3.400721274219751789e-01
2.528705693639595742e-01
2.835568237103180955e-01
2.659567119378762889e-01
2.666511200848996066e-01
2.842437833920462564e-01
3.386592594878813367e-01
3.602765842650318961e-01
3.260553522398674242e-01
2.675054700512637940e-01
2.825993272978058468e-01
2.368218682573341449e-01
2.605445734933807822e-01
2.587243241698318208e-01
2.231788767012005958e-01
2.511549147685784300e-01
2.731904365563403436e-01
2.440319683328054101e-01
1.926249538079232992e-01
2.549958580583594481e-01
2.438493310171147010e-01
2.733133626378211334e-01
1.739603162118076862e-01
2.226733404913701087e-01
2.559432025182231119e-01
1.732684260184705338e-01
2.582933578178057132e-01
1.974779700113075132e-01
1.965964647945764032e-01
1.813876429275655400e-01
1.638985382074359676e-01
2.312519642727103863e-01
2.017768924816513154e-01
2.108103769525430105e-01
1.725033084401196293e-01
1.267050886221944839e-01
1.449782695106456298e-01
1.530144230079849565e-01
1.454395963471740161e-01
1.287686444772636329e-01
1.609916251816498889e-01
7.799272940534526799e-02
1.640764285419622492e-01
1.617378983361073830e-01
9.973076745847060665e-02
9.759719497691732304e-02
1.368797479171048326e-01
9.381137275922690755e-02
8.340906517086600636e-02
1.267850837775310047e-01
1.478317051509263347e-01
8.461849079328324919e-02
1.045705892610540033e-01
1.063247754983555338e-01
5.006582270600087176e-02
8.431558433890198878e-02
8.618647903798914989e-02
1.359206121853716864e-01
7.741585246611901172e-02
6.887762557676038733e-02
5.796300234900085557e-02
4.961109229126368231e-02
4.156789113041181594e-02
1.032056017245100710e-01
1.296831910566528107e-02
3.898486980018558284e-02
3.199599214548720649e-02
7.650953000480850696e-02
5.640414073281196233e-02
6.624823191463680150e-02
4.729604657360249320e-02
6.335337694355060167e-02
7.656568095540972063e-02
5.032796451572761620e-02
3.943228563915889689e-02
6.344888904110669581e-02
9.529396771722961623e-02
2.718992132712591894e-02
4.971106017080768186e-02
3.759509865499513492e-02
4.555344039502601944e-02
1.009588832845195322e-01
3.023195608079999597e-02
2.468591758783068163e-02
1.235361330360150861e-01
7.969871759365186603e-02
6.390334816869433499e-02
4.338681040322627663e-02
8.164471908170504999e-02
5.889174694978205338e-02
6.181359850419954061e-03
8.332815049524061601e-02
3.675550292057103846e-02
4.010386122090025401e-02
2.603885585959072463e-02
2.426747729793482522e-02
-1.167692272561084155e-02
4.831790148244360233e-02
9.180019098803114674e-02
6.661666525952152085e-02
2.594878949026674722e-02
7.413763415687735225e-02
1.412913742355288022e-02
1.000414960470999287e-01
8.826000928980944071e-02
5.269991301830131980e-02
4.296982244175590049e-02
3.898306236508505829e-02
5.868748532926167105e-02
3.846827741120326799e-02
3.853336941246984781e-02
9.491002502699651122e-02
6.447904288981898269e-02
1.293041661253920005e-02
4.961255189542336519e-02
9.600718074676406477e-02
2.633067298413166446e-02
9.580851070524129542e-04
5.758618625518550221e-02
5.964706529382958478e-02
6.413906151165602032e-02
5.358644901655094939e-02
2.697574926754037206e-02
5.557368785658026167e-02
7.426663344862928506e-02
6.676633914985406759e-02
1.712700809911400085e-02
3.218885814537161827e-02
4.359323970136271681e-02
3.397421375786933984e-02
3.810689918290443429e-02
6.720363260632038205e-02
5.998726987786474896e-02
3.734138335049300844e-02
5.498710677795092677e-02
9.717474087074423617e-02
4.309664808975709194e-02
