1.426652195142170676e+00
1.455841928575598354e+00
1.367059634149159875e+00
1.414732606905939383e+00
1.387454284779295000e+00
1.279787961162377474e+00
1.237540374337227744e+00
1.144792460570510428e+00
1.088105206420341808e+00
1.015385498032958633e+00
9.412773639650706681e-01
8.410284024201126751e-01
7.557283808960851834e-01
7.541598696963071058e-01
6.007434308000119128e-01
5.894306507012034846e-01
4.593998238008376589e-01
4.309711025626321579e-01
5.055179214820761935e-01
3.957881505717311676e-01
3.805589911920987389e-01
2.730629903249922052e-01
2.874063568372997035e-01
2.626777850700139361e-01
3.167085236496980927e-01
2.114024977836107266e-01
1.677429859191671147e-01
2.405902072289216043e-01
1.966996191058731080e-01
2.589734208401019422e-01
1.747384757456126314e-01
2.709813928406164529e-01
1.866288063860425672e-01
1.862517799116538697e-01
2.278985742582915197e-01
1.838158203258621337e-01
1.902567920095476484e-01
2.456454112975751114e-01
2.057690647629362712e-01
2.258880459644146688e-01
2.322565800106519140e-01
2.333004217235158384e-01
2.487636673168663604e-01
2.362239296252618970e-01
2.273330649886224353e-01
2.251403184937071922e-01
3.831209574632990500e-01
2.960620815710431342e-01
2.648163870678355569e-01
2.754781989646721829e-01
2.440651027273881279e-01
2.696358226028838789e-01
2.780718127199111600e-01
3.404962191138197758e-01
2.905625297204573743e-01
3.258550151317210486e-01
2.570564422000011784e-01
3.142129544487165527e-01
2.640981705500355936e-01
3.235038380669324476e-01
2.775326611361683682e-01
3.237749327782020181e-01
2.637557339502922260e-01
2.569662029185326158e-01
2.967516582844923478e-01
2.798133262316769843e-01
2.791145942991738460e-01
2.797285580431332352e-01
2.678083368686988708e-01
3.021292480751823217e-01
2.692478443786057163e-01
3.447419342653655905e-01
2.674412675717752763e-01
2.589080110000833157e-01
2.662903038346172702e-01
2.603513116050838461e-01
2.715072826805416395e-01
2.934704607973662727e-01
2.858016059159743660e-01
2.305555942249550849e-01
2.368365833292114253e-01
2.398844295765177048e-01
2.616933851774795317e-01
2.124355638125286494e-01
1.895526523987519918e-01
2.058495061469117204e-01
1.929376107389799699e-01
2.113425396382316301e-01
2.362282191099593087e-01
2.103683181575083383e-01
1.868316055906263651e-01
2.015513970445017844e-01
2.440516378551336463e-01
2.560999448014937840e-01
1.463478571785082893e-01
1.262846900000958728e-01
1.578138550036309595e-01
1.963694752337137861e-01
1.851285228826961005e-01
1.552613827638582578e-01
1.605486879412411361e-01
1.676143039271043023e-01
1.430538418540050760e-01
1.419090456774394493e-01
1.302434206434834041e-01
1.656861124532375551e-01
1.378713798701931004e-01
1.165667036771824983e-01
1.269805891190411984e-01
1.580955839602513069e-01
1.018883065885406169e-01
8.233313168300365747e-02
2.981793356634341446e-02
1.263620110027221521e-01
7.687527106223834839e-02
1.450500651279322262e-01
9.846810725843785361e-02
8.340740937223979634e-02
9.164390092987506620e-02
6.054268207298241222e-02
1.049021110486066666e-01
5.747338710858192201e-02
8.583963714141405743e-02
1.140279504624838042e-01
7.374868834412090512e-02
1.095022709446989706e-01
4.150625994519618889e-02
1.214834977105244129e-01
8.603732162833135910e-02
4.381502116168007471e-02
4.808713341884346404e-02
7.805295427399805419e-02
1.024223918613442752e-01
1.019646609430502338e-01
3.879795237393150742e-02
3.074749268126054230e-02
3.785999323926194510e-02
5.348936217539818766e-02
8.420415872461550766e-02
1.194735282532021076e-01
7.773800753263523933e-02
8.358018410601728010e-02
9.632481695340325278e-02
7.981541135126518638e-02
4.306440306700778931e-02
6.965495916506922458e-02
6.924315679054639239e-02
1.433857655734507019e-01
6.534741824619449968e-02
1.105574180363956827e-01
4.495991581050819141e-02
4.472173339262391911e-02
1.046212760374086170e-01
8.676894789077285730e-02
7.685723110223009746e-02
1.454291750850632003e-01
1.150424431814204423e-01
8.017563401402108547e-02
1.189740225377256128e-01
1.248950547591827775e-01
1.311505520473262576e-01
1.392535995611459410e-01
1.832393957213715452e-01
1.807721575636558886e-01
1.423270499573746628e-01
1.273203943265269755e-01
1.818616980060494548e-01
1.341765719644033017e-01
2.073619219154832771e-01
1.630161205196030694e-01
1.715340437233471849e-01
1.812466642633570046e-01
1.436483195939556312e-01
1.738021859679653169e-01
1.840671555344835231e-01
1.893135412414710672e-01
1.944181791380533708e-01
1.656387971103354673e-01
1.926164105114631930e-01
2.025262105803076196e-01
2.113630672464635318e-01
1.246986201392940030e-01
1.878699245522904293e-01
2.080558513402317455e-01
1.811847727298775690e-01
1.958894224798064798e-01
1.758497608774169940e-01
1.420619922360070730e-01
1.135463452596001538e-01
1.969669317783927232e-01
1.852969152507391304e-01
2.445685090328894584e-01
2.658932949942378610e-01
2.963252063204077080e-01
2.752664203004375754e-01
3.152719134825328617e-01
3.021947720108291713e-01
3.225964180956842897e-01
4.386052674268063889e-01
4.136678321594925989e-01
4.815324610960656782e-01
5.772336083901290493e-01
5.897235722544910130e-01
6.473589559007462135e-01
7.659222103078214827e-01
8.501006370856052374e-01
9.280217745172226751e-01
1.007043557025626646e+00
1.056924369145358922e+00
1.229181524048561736e+00
1.234597095660882493e+00
1.248917271118366257e+00
1.337708363505858644e+00
1.328364703903247346e+00
1.404395638333303609e+00
1.417821854255196135e+00
1.409619200838942321e+00
1.442199959888580851e+00
1.378077336812242759e+00
1.361310583039410105e+00
1.318596651445681278e+00
1.210984156451769156e+00
1.221696063075228711e+00
1.164288383746246547e+00
1.035939595904140420e+00
9.118862379028678244e-01
9.201697919888413013e-01
7.816497950963136043e-01
7.548745837364210232e-01
6.303972722846004073e-01
6.089838499007900197e-01
5.143298070784377840e-01
4.901045369036770571e-01
3.578904775610127764e-01
3.293973082452223977e-01
3.304858592929542649e-01
2.940118977679382350e-01
2.557389440993518281e-01
2.084035810102472241e-01
2.198574125440916349e-01
2.208203873724146060e-01
1.746302217293685954e-01
1.726141723282872409e-01
1.786743200477539650e-01
1.991811631690632023e-01
1.760805607617150215e-01
1.967034326080620288e-01
1.971432263366832693e-01
1.667083675504234253e-01
1.183400250635645579e-01
2.167908857839104531e-01
1.819379109039797049e-01
1.560769428123175151e-01
2.113860683467600476e-01
1.616946144622181392e-01
2.187898040749083339e-01
1.951040641279955246e-01
1.954523174167742960e-01
2.104855132837838705e-01
2.238991284172875129e-01
2.069140024976656445e-01
1.955523715139630414e-01
2.123321674903624057e-01
2.069920087148252319e-01
2.253992442713433630e-01
2.371800626878531881e-01
2.034178812010589699e-01
2.296744381376853161e-01
2.189965690345010707e-01
2.335779989487767605e-01
2.611841143364879714e-01
2.556547939987894313e-01
2.419975818687786773e-01
2.827846871393518979e-01
2.514175306358795159e-01
3.035560719469339586e-01
2.833931365336421204e-01
2.571067296895370169e-01
2.041982989342210064e-01
2.183560687341739581e-01
2.292676309342722984e-01
2.561212566335668850e-01
2.530159336343494325e-01
2.314870780530202399e-01
2.211293350820676684e-01
2.555150254615955463e-01
2.361334234870269833e-01
2.037742313407013561e-01
2.567895560823830747e-01
1.588891801382253111e-01
2.815814158384039589e-01
2.057219364910700954e-01
2.472367054124400554e-01
2.216134244745594228e-01
2.167800945180105854e-01
2.140287933789748742e-01
2.380156074589087623e-01
2.471465594080886896e-01
2.201583384859112369e-01
2.235382636466556050e-01
1.743057398135910152e-01
1.512224404833624747e-01
1.870890660767476898e-01
1.870433397076233240e-01
1.789005221038841298e-01
2.194973219402301945e-01
1.828106027074778983e-01
1.040069644861711384e-01
1.043846474654725603e-01
1.777468546331072985e-01
1.059186950125395460e-01
6.874310016077209151e-02
1.990003230059557426e-01
1.037135221250407302e-01
4.951674121988265675e-02
9.630387418740599115e-02
9.035329776193394558e-02
7.325200911037835216e-02
5.632033000186727201e-02
6.956208219288370631e-02
1.155772667914199692e-01
2.546302577196167538e-02
7.887308036207661688e-02
5.756356764008292715e-02
6.479038153196114980e-02
8.058407269736486689e-02
9.324411290032978694e-02
1.008038675580568005e-01
4.123230643294869407e-02
8.243352673837318900e-02
-2.345255470979119503e-03
8.992131304380783507e-02
5.804372599675559907e-02
5.135561200529630693e-02
7.828707101100582100e-02
-1.797233776990009302e-02
5.499198154159317536e-02
2.734020170278773920e-03
2.701130092097606475e-02
-5.908747057206563055e-03
-4.126311469079933097e-02
6.096219242595878746e-02
5.304489212950712351e-02
6.865469034609709975e-03
3.041328211969856338e-02
-7.379894547753120329e-03
4.221270197995578843e-02
-1.764421792921872303e-02
4.137720861409993622e-02
-4.749657107783435139e-02
5.361475440645199070e-02
-2.737721411800683735e-02
-1.128431181356466875e-02
-4.415532365408185445e-02
-3.158097663648192638e-02
5.113759296016834321e-02
-1.746237229256142331e-02
6.169798032326820336e-02
1.543933459769679731e-02
8.885835087155128514e-03
2.670761364712793268e-02
2.786636403328101794e-02
2.510512992821242045e-02
3.369771962311981367e-02
3.924472117325147891e-02
8.227334234790525946e-02
1.285619425617843398e-02
6.687806982208008288e-02
2.101213200695509556e-02
1.864087338848894812e-02
1.292204958554647037e-02
9.363620614887167848e-02
5.737056956767967730e-02
1.081667466154795920e-01
1.130192374819505297e-01
6.193690280656384550e-02
4.356661893615217801e-02
4.021351671945602030e-02
3.965997033471038713e-02
9.034753893046350293e-02
1.415029487577385836e-01
1.337801779210393005e-01
1.118442638172934267e-01
1.313972564062631798e-01
1.044875949235573587e-01
6.914998115768117293e-02
1.355777957379062648e-01
1.077766701867921700e-01
1.202935427766125831e-01
1.515744879946698542e-01
3.897009318964424207e-02
8.516913142676579840e-02
1.352382628705876555e-01
9.224698971981995510e-02
7.758901285115291091e-02
8.511270769090842347e-02
1.138195777229428773e-01
5.083529539103311123e-02
1.060848136247423551e-01
1.445028927321848067e-01
1.362976374193841100e-01
9.246538995681106987e-02
1.427841755430819259e-01
1.001892835255708408e-01
1.445181952054793162e-01
1.400919898775401240e-01
1.389714231268207034e-01
1.462951384737900540e-01
1.659729023413513138e-01
1.761721871336576206e-01
1.557806977068180443e-01
2.915018903118406501e-01
2.952976954007786592e-01
3.467324466693330054e-01
3.862437256576874978e-01
4.348515845713971650e-01
4.595438525009073460e-01
5.151389543399912396e-01
5.670880567266498584e-01
6.435212129329170860e-01
6.794792619349436791e-01
8.309455416404688544e-01
8.965999655069732954e-01
9.799577305473442523e-01
1.010255159926188195e+00
1.141747132764107331e+00
1.139444791870644291e+00
1.236209456130227480e+00
1.321085114670939031e+00
1.338954898291018880e+00
1.347366517826648291e+00
1.374718561387771487e+00
1.329566153106874538e+00
1.358891320276844450e+00
1.309105579438737621e+00
1.287146655138275975e+00
1.268316273222702240e+00
1.198135957986317335e+00
1.116119226249403074e+00
1.033981074020279056e+00
9.716598101693484368e-01
9.324292268095079050e-01
8.394076810640522801e-01
7.113971050608834945e-01
6.293137756553183193e-01
6.024462285914627957e-01
4.933482068733794912e-01
4.969580010277929727e-01
3.794208384959788516e-01
3.376312150505927923e-01
3.216314564384926689e-01
2.525184043460169114e-01
2.624549680722181311e-01
1.884244345544175692e-01
1.873242217405984011e-01
1.150720149587926011e-01
1.095223755421990408e-01
9.839059025902571753e-02
1.228792127139833323e-01
1.560608904468566427e-01
1.224724971633963377e-01
1.349071136617322475e-01
1.070404954862548969e-01
1.672405582027460536e-01
1.236864130551855179e-01
1.326815143149523146e-01
1.382554689336646658e-01
1.391141562296295819e-01
1.772411320229371201e-01
1.153599046499260983e-02
2.010036238123392716e-01
9.706302492261401071e-02
1.705135495830073511e-01
1.523209643234650634e-01
1.183841187238782455e-01
1.941768691263722202e-01
1.415768816702413502e-01
1.797886924445815382e-01
1.570904788375382666e-01
1.807947472764783736e-01
2.282584567024198430e-01
2.309828746383016940e-01
1.782066677159090395e-01
2.366430590653165467e-01
2.252927104083054244e-01
2.247726685429078386e-01
2.541874060601641006e-01
2.052775378576494336e-01
1.440128713175075070e-01
1.672635381723098502e-01
2.439774375056094624e-01
1.662916622874209827e-01
2.724862751642404546e-01
1.711583677839662865e-01
1.687622312448768813e-01
2.030673449487823690e-01
2.195675146390897725e-01
1.999311904524490591e-01
2.833292139299300461e-01
2.055614634135105867e-01
2.158089534561369593e-01
2.230603443984593703e-01
1.694842360849319884e-01
2.499970479454780015e-01
1.919034356590512136e-01
2.052398719785926695e-01
2.373505456612654274e-01
2.171102371816813481e-01
1.691929520496987527e-01
1.378434106228245415e-01
1.619795903591106923e-01
1.870403876161804146e-01
1.156309016032396331e-01
8.620372417905547424e-02
2.428356985703985782e-01
1.173921869023975273e-01
1.231212941924294257e-01
1.233278525063985498e-01
7.789616436192806082e-02
1.653105502909534008e-01
1.775487941437765005e-01
1.206873876428554149e-01
6.097992728745205149e-02
1.122003981231158160e-01
4.730298725770046286e-02
1.099041791244931843e-01
1.078390367999685628e-01
9.137332773273257325e-02
8.606926096816583382e-02
4.537176896412922072e-02
9.591677684536223381e-02
1.394209036419008507e-01
5.567147676592847788e-02
7.394463936328998788e-02
6.075727354098495181e-02
3.345929821555541916e-02
9.276317713158280243e-02
4.903316504151587762e-02
2.471519000085899143e-02
7.698237613505895527e-03
2.935702425651525588e-02
4.647293822956093112e-02
6.132930795806231655e-02
-3.112823677394539051e-02
3.617413946437399164e-02
3.466572005684311758e-02
-1.433869276891985151e-02
2.001396971284076509e-02
-1.309185270463857076e-03
-6.104709045000808465e-03
-5.298973537781970222e-03
-5.534885943045103618e-03
-1.448755582426557859e-02
-3.296609457997945469e-02
7.925479323056419667e-02
1.754027930735786722e-02
-5.115515811453770489e-02
-5.427249083255974993e-02
-8.984493143108951418e-03
1.713330963140580893e-02
-2.146646457845513209e-02
-7.831378467612970518e-02
-3.437937865628696438e-02
3.796088981359657666e-02
-2.802008630987485455e-02
-5.603058521282192062e-04
1.124644192697723394e-02
-3.094052194724051033e-02
1.662274067151775503e-02
-4.494271232048555748e-02
-3.035152467992714015e-02
-3.392538977278686946e-02
-3.852473822993266600e-02
3.409420192708761954e-03
-4.836478557343883850e-02
2.920008863968177187e-02
1.173466063328409970e-02
-5.476572516495650800e-02
-1.008333845529590239e-02
1.436671346645768121e-02
-2.953998147450393602e-02
3.459359504187339840e-03
1.366533293782126735e-02
6.609679873147956963e-03
7.986854749306948609e-02
6.778794144383974707e-03
6.548485638687683019e-02
1.617270504303955359e-02
-1.502178123145237604e-02
5.760281792978279997e-02
1.111055659950508229e-01
4.980884975490602190e-02
-3.388087255863682368e-03
5.700473542738356686e-02
4.644876984556039340e-02
1.073660564648574178e-01
3.949951252242327876e-02
1.203952907470060563e-01
1.235671792836657290e-01
4.943497030418129295e-02
5.025058106942111025e-02
1.405140415591195902e-01
8.088199601446963150e-02
6.123324152594444847e-02
1.466058717731509586e-01
8.536591472586835261e-02
7.386038213631293536e-02
1.070656624023304249e-01
1.519545934480830141e-01
6.659493234804143846e-03
1.255107187329438378e-01
1.324882312718497490e-01
1.395345452927325147e-01
8.172814189112259653e-02
1.023507445444179764e-01
9.304338621438723589e-02
1.034336707870738142e-01
1.020943376253569679e-01
9.476881542178833273e-02
1.507536881996131006e-01
9.662859146598666571e-02
1.399712638839751555e-01
1.647537449791301456e-01
7.919541489198439477e-02
1.248435530339341015e-01
1.741881271154986088e-01
2.689365894420086001e-01
2.519974550595316387e-01
2.711504258548962376e-01
2.827117741235148363e-01
3.549109782279620262e-01
3.617001344330336710e-01
4.713967632640622130e-01
5.567960540526933899e-01
5.469679701724370346e-01
6.343952511825348139e-01
7.220614722384733897e-01
7.784541364510055850e-01
8.727997760593229071e-01
9.162913324275044902e-01
1.030898406168825110e+00
1.128887816039852776e+00
1.188456828865167791e+00
1.193095786386211721e+00
1.324724489481721168e+00
1.243161235764359107e+00
1.342477798836197111e+00
1.384934655791769220e+00
1.434133410974113731e+00
1.278544807294408114e+00
1.345410583913835723e+00
1.283553100923426449e+00
1.202570484221533897e+00
1.116603126197159179e+00
1.081128884363706799e+00
1.034852685701654451e+00
9.187759851226247054e-01
8.409049372144093981e-01
7.920760060019346183e-01
6.846901823701164735e-01
5.924111319570333212e-01
5.498476398563298950e-01
5.252468069324270905e-01
4.395451898678013891e-01
3.282837921444445861e-01
2.972926820719847818e-01
2.625657359435139004e-01
2.106643577160468295e-01
2.063526103844599557e-01
2.033879697470916126e-01
2.056172071706468540e-01
9.136602848440067426e-02
1.571856587236088454e-01
1.376776281002303481e-01
1.618352184915994030e-01
1.629280819304342875e-01
1.064645201815799247e-01
7.444361909747737593e-02
1.704585518532530097e-01
1.338414511414181551e-01
7.578639542230718174e-02
1.136954307094639183e-01
1.136131751019975322e-01
1.227061588718587892e-01
1.625112190416135305e-01
1.293801396120007607e-01
1.607898663628375691e-01
1.376507768786796038e-01
9.717080602297881176e-02
1.744171754976205080e-01
1.478212389238742763e-01
1.997305601954464660e-01
1.435731696585599015e-01
1.779278786634624354e-01
1.778246052238987851e-01
2.021094597411388638e-01
1.798720682391738435e-01
1.899916237706547606e-01
1.339482947728866113e-01
1.852976684604812907e-01
1.836679565982753948e-01
1.336095838615423970e-01
1.907293939636957869e-01
1.772549880261617417e-01
1.772903213126331423e-01
1.962200940583761488e-01
1.901108462917997510e-01
1.894575754650558164e-01
2.452287491850848045e-01
1.687166265660541287e-01
2.751153228555301422e-01
1.651687198255178401e-01
1.907491405717114674e-01
2.019995731639456504e-01
2.134772355956744139e-01
1.973025175975094414e-01
2.074362759519511046e-01
1.701344877688582558e-01
2.287748938130930165e-01
1.755955450245703375e-01
1.942084906867320715e-01
1.552941129085722571e-01
2.228610422396380963e-01
1.678963457017906280e-01
1.297479901346313691e-01
1.596670141159400591e-01
1.758184985194964078e-01
1.662600443310521814e-01
2.170477196071964321e-01
1.967432178449426139e-01
1.677086630998150252e-01
1.246285901071892133e-01
1.334028368335699322e-01
1.462641076995200295e-01
1.413774707677406817e-01
1.428684415154113097e-01
1.510484843305033298e-01
1.025835173093312958e-01
9.323336171285120932e-02
9.870034103002900405e-02
9.309083347500851646e-02
1.085504213403575557e-01
1.278316366257163939e-01
9.075510818514702371e-02
6.533691891339907243e-02
7.198045350438324330e-02
7.792998452069044291e-02
6.128515098105338094e-02
8.953856204068162683e-02
6.173824122074614285e-02
7.269243461649876892e-02
3.699733351589500757e-02
3.921337931969937768e-02
2.799415396198090544e-02
-2.631356161907518615e-02
-2.908853688833775569e-02
4.264541251791883342e-02
7.831369580809675879e-02
2.972019543548490295e-03
1.037519225970911646e-01
3.675097695049072549e-02
5.443317187932818213e-02
2.783337383015158789e-02
4.759949857313314908e-02
6.350854686238797953e-03
-9.500331427941630796e-03
3.043720980403894633e-02
-9.265800381288595566e-03
-1.245410376568817368e-02
2.305244611870383570e-02
4.492093896835962219e-03
-2.982984757221978506e-02
-2.010620531711773684e-02
-7.761910346177128966e-03
-4.133094139737743949e-02
-4.596081943824673055e-02
-6.656506760007938062e-03
3.293984763176714681e-02
-4.281024379437434191e-03
1.886651734198271230e-03
-4.058869919656173803e-02
7.569177542035114559e-03
2.071234668064532783e-02
-4.185330040775501331e-02
2.196338002978732301e-02
-4.082442407616514862e-02
-4.052321748847308863e-02
-2.290340324385991416e-02
-3.674975919578714334e-02
-3.274018088592965670e-02
-4.049526508748315518e-03
5.309765277559569396e-02
8.519116060207422569e-02
9.825534780138082958e-03
5.532477080210988774e-02
2.033040891745706638e-02
3.383063559502699769e-02
5.346991340444864904e-02
1.019425949762957778e-01
3.656476422823036476e-02
5.535306904529860295e-02
6.728347073606245898e-02
-1.751048052469433153e-02
4.585078233528677022e-02
6.090762186238482534e-02
6.442416897122443808e-02
8.513319392909551864e-02
1.010906781848827790e-01
1.019743114532696837e-01
5.290392037211980036e-02
7.511472821213774353e-02
7.343829574690792505e-02
1.234681581221769436e-01
5.325192679482744496e-02
1.022564833503138149e-01
1.180934688777307423e-01
1.128231068307985058e-01
7.439072598117288382e-02
1.319828897288853331e-01
1.066397443291780683e-01
1.394188547894327779e-01
1.036755755446016752e-01
2.015146224441945536e-02
1.292085963211498101e-01
1.170502541130121338e-01
1.755999452793056415e-01
1.318504969935241078e-01
1.442486706019819320e-01
8.029847425097626223e-02
1.693467632340011630e-01
1.963349317929175830e-01
9.733248360517038344e-02
1.578498089014906680e-01
1.331344508697022699e-01
9.583658792307822583e-02
1.849302033290912139e-01
1.185763397291701576e-01
1.465052767657179789e-01
1.630341969028731297e-01
2.043447538228577443e-01
1.502502952272040393e-01
2.097629903678144836e-01
2.522718246583403046e-01
3.130934807701964973e-01
3.240120416890743260e-01
3.389487131730537506e-01
4.048781365030017509e-01
4.578557770886358957e-01
4.945759110293803662e-01
5.692853678377841620e-01
6.863299375236255884e-01
7.201920623231355956e-01
7.601296766690901485e-01
9.049818209954868520e-01
9.589488911330341647e-01
1.008326145805848340e+00
1.099336868261676425e+00
1.193769517135461422e+00
1.256338047936561564e+00
1.297196119639252521e+00
1.353738173209938056e+00
1.444846901580129961e+00
1.458693370931777533e+00
1.318143819423057472e+00
1.377205002532009948e+00
1.400702497589441098e+00
1.361069289809757610e+00
1.341382832741109699e+00
1.244748126772710295e+00
1.184172024061097339e+00
1.091477704466379040e+00
1.065932979596339480e+00
9.714395831407602877e-01
9.379107354558597898e-01
7.897395734619033769e-01
7.871605817740475741e-01
7.010264126602521184e-01
5.802593051082133302e-01
4.983336033375926344e-01
4.670094897659238797e-01
3.725739831588097961e-01
3.669637127072253868e-01
3.159509565046840218e-01
2.436654783071506569e-01
2.320143212959360213e-01
2.251770620536196477e-01
1.862755430294198711e-01
2.123821217613083567e-01
1.268856231252885047e-01
1.588997916886857042e-01
1.486195433691869516e-01
1.422934372658105628e-01
1.579390751607536725e-01
1.581677476189639886e-01
1.832983656039089693e-01
1.857488879531602466e-01
1.932880509024742788e-01
1.632674180693317600e-01
1.546325877771564106e-01
1.334005272716445034e-01
1.635827521677117036e-01
1.782648906166124647e-01
1.660139505381322822e-01
2.298297812428501119e-01
2.025012064878049245e-01
2.174149576861992006e-01
2.381510714416637808e-01
1.899547507546040792e-01
1.432871813993858989e-01
1.693638888779798735e-01
2.276169935998237914e-01
2.156113087381847371e-01
2.491290689175202910e-01
2.333475943693897880e-01
2.348497445574802556e-01
2.144403819121636356e-01
2.454817104427007290e-01
2.172359049559138833e-01
2.580907823717981109e-01
2.503796174660307683e-01
2.355017721087482030e-01
2.383328829382800607e-01
2.214239299743420430e-01
2.477252145897601565e-01
2.356436355588415188e-01
2.322497162186083208e-01
2.801323189674297942e-01
2.354779558086766422e-01
2.497625822241792692e-01
2.811523129420220868e-01
2.296465934007555498e-01
2.201223938786888434e-01
2.347764139668294114e-01
2.566427407878258404e-01
2.416234194838987881e-01
2.376207827162445663e-01
2.066217625321477014e-01
2.552654184262218573e-01
1.918313753975702807e-01
1.924614697247133133e-01
2.189116694955765552e-01
2.821274028802968625e-01
1.829625882981895102e-01
2.462002372695449859e-01
1.751840401789429291e-01
1.811642195047011572e-01
2.327453140362609474e-01
2.289629875640427081e-01
2.620433240465735447e-01
2.160836498712518650e-01
2.150460512837485960e-01
2.311517370746143940e-01
1.533815657230549190e-01
1.703822528464888075e-01
1.663136806076647156e-01
1.441575437959717598e-01
1.610461639276971890e-01
1.563487107115888453e-01
1.517440176350415282e-01
1.039000921280920364e-01
1.149311734997859324e-01
1.776752703520697585e-01
1.082306178202086105e-01
1.504341338798238503e-01
1.117621323282812218e-01
8.002026510817242255e-02
9.901820864657626120e-02
1.089411814099396358e-01
1.510658416529639392e-01
1.766539281086566548e-01
1.303262251132664418e-01
1.686617235919462277e-01
8.047841852494326542e-02
7.267927109956880127e-02
8.692225803476830159e-02
6.631472817117403662e-02
7.886031013935917988e-02
4.750488917478851159e-02
7.743924919177183619e-02
-4.922962650866138240e-03
6.718005422515761771e-02
4.183047348106421620e-02
1.474596359378264887e-03
6.941853716753544623e-02
8.200790616364807273e-02
4.693559088800444701e-02
5.291271591867906243e-02
5.971898023828272478e-02
7.399014075945267721e-02
9.530111949441788521e-02
2.442346139102173283e-02
9.647068874155528828e-02
-2.888543296970455532e-04
7.837208385450052106e-02
3.867870972199127094e-02
7.140896402325236370e-02
5.390446059474723883e-02
5.668458034245703325e-02
5.122090723496003362e-02
5.942942513511106917e-02
2.591915880195275190e-02
1.898070379755192189e-02
8.130943807570215065e-02
3.739034941638941234e-02
4.355959182360925885e-02
2.772453176492778795e-02
-4.583114408760430997e-02
5.111897932232849218e-02
7.861077498298360555e-02
1.041880016244188384e-01
8.521656287477701042e-02
8.615360270674368715e-02
4.594076483715164166e-02
1.105258310399671734e-01
1.187534407638275724e-01
8.573919618137790244e-02
1.391191350757970402e-01
5.475685968745016424e-02
7.914317338491613785e-02
1.047104740053070443e-01
8.358386972855900987e-02
1.358716364103705609e-01
1.439951576776315745e-01
1.875722715195852208e-01
1.240871070501760876e-01
1.105713249228929551e-01
1.923424154453035606e-01
1.573392779335396063e-01
1.602537697635315062e-01
1.493515003413530828e-01
1.473222452383440295e-01
1.551250045783519327e-01
1.799902495562025750e-01
1.721704323020283312e-01
1.930221029326446847e-01
1.900435568226393479e-01
1.314571279432028006e-01
2.091075901914823121e-01
1.747190741229009137e-01
1.959308380662014293e-01
1.506096619137057280e-01
7.750457545279815230e-02
1.539491126427725287e-01
1.802035346830666573e-01
1.356037558081377159e-01
1.360776374150546864e-01
1.803405751168966620e-01
1.989336634513284574e-01
1.431269658536853395e-01
1.743558020642022310e-01
1.963072943780302670e-01
1.301111716005438346e-01
2.026681842634004416e-01
2.571951351749007797e-01
3.119034462419404963e-01
2.430603787424284179e-01
2.167074099141233778e-01
3.024362889223201067e-01
3.015513644483635014e-01
3.725345742637480306e-01
3.657904081740825930e-01
4.335443925345701666e-01
4.266695141108478029e-01
5.685127858135121670e-01
5.566114743750041338e-01
6.122343717805465158e-01
7.109695295530450432e-01
7.943815146334404220e-01
8.915168956951571300e-01
9.314479738395327058e-01
1.005924404994846366e+00
1.132309800675540101e+00
1.175323579785455097e+00
1.242082143569041452e+00
1.265976451904975653e+00
1.302961182250630401e+00
1.440627191931512785e+00
1.427374801417314654e+00
1.449199754209130830e+00
1.445961763019180779e+00
1.469491498281305653e+00
1.437114197505712454e+00
1.356563444742778124e+00
1.309871425044929705e+00
1.278397788104953747e+00
1.194347044163930782e+00
1.179390705077641321e+00
1.113738050912602917e+00
1.010208656607646249e+00
9.353752145986664601e-01
8.482254387244340110e-01
7.679719011676197082e-01
7.064866917381513733e-01
6.649149934532676554e-01
5.244703643131337634e-01
5.069363617650468612e-01
4.379978004688299120e-01
3.950519714192322618e-01
3.373978770741019595e-01
3.049460695012041755e-01
2.577685952305394657e-01
2.707433085737469547e-01
2.048720576138283178e-01
2.358774911148125708e-01
2.110947714304134415e-01
2.294932945680625003e-01
1.923019555237090450e-01
1.538594121966951056e-01
2.165502120722460067e-01
1.564698424907842722e-01
1.908831643819739743e-01
2.216350458919715827e-01
2.705510390998862591e-01
2.075800045297013507e-01
2.025386513577688286e-01
2.137105081799685058e-01
1.404769515256414081e-01
2.154621818614231299e-01
2.474486399603727516e-01
1.827160251954452752e-01
2.808386895428671703e-01
2.360802951652480053e-01
2.208152073252817038e-01
2.985361311810147411e-01
2.428794724327743570e-01
2.831303908664446478e-01
2.456387660469078194e-01
2.612644505096836101e-01
3.442027286153689913e-01
2.941804876910308897e-01
2.419825331465315088e-01
2.812009159745714748e-01
2.886379296363587033e-01
2.939151345523952630e-01
2.753164171693537887e-01
2.094388123497222254e-01
3.164969675453857545e-01
3.397929758245908372e-01
3.386584944993787372e-01
3.014011996250665626e-01
2.903377179706670419e-01
3.158103320754381826e-01
2.911377570858743047e-01
2.289480688457267155e-01
2.690383773397773681e-01
2.766056131348226810e-01
2.771931525757304060e-01
2.359903729791122395e-01
3.596910578184451812e-01
2.755822961885300293e-01
3.041003499922669273e-01
2.472454939563564769e-01
2.889537152557805078e-01
3.152499521348765543e-01
2.711266638131309969e-01
2.831685713605596733e-01
2.487125834572726513e-01
2.268648486265545106e-01
2.627355472196196695e-01
2.521723967603273775e-01
2.789633639032275125e-01
2.571267565119790821e-01
2.570435989771524543e-01
2.002943134087288302e-01
2.284852508888388922e-01
2.677382395361772027e-01
2.585011267218984554e-01
2.565175784194037023e-01
2.472377825137918594e-01
2.335800783737106423e-01
2.141469109641435664e-01
2.520346283645236163e-01
1.931099883723741140e-01
1.461374534299263450e-01
1.711969195621881878e-01
1.571794332757535384e-01
1.497720893605609671e-01
1.392381819454134306e-01
2.011822209415920770e-01
1.425436043732137004e-01
1.869795754216008188e-01
1.790533507163598603e-01
1.553432654032984861e-01
9.700781410815322026e-02
8.823429519438516500e-02
9.208218868460663065e-02
1.492452951800656846e-01
1.200766393689738087e-01
1.222942884472423553e-01
1.395046856738358099e-01
1.118670579105433827e-01
1.131663064211241299e-01
1.150082819748409063e-01
1.495664368522101884e-01
1.172331972348856638e-01
6.747895561692399125e-02
1.200759449655763034e-01
1.167981081116738484e-01
8.256054449009483931e-02
9.442471009161293449e-02
7.315013041338802591e-02
5.734078377181320296e-02
4.628746652891528590e-02
4.219027924253034023e-02
5.683893044325473431e-02
1.031066666894294021e-01
2.592187951798366821e-02
1.573432006720879572e-01
1.332226144338859164e-01
7.654874185955382049e-02
1.471415451018072418e-01
9.496308371127980263e-02
5.323382628751715390e-02
1.136418312896616822e-01
8.204329781382030395e-02
9.190763153088468695e-02
1.109568067700767435e-01
7.121047840888984626e-02
1.617168352203385007e-01
8.316558353742856124e-02
4.398144313742178430e-02
1.202362356316134251e-01
6.528898386516641950e-02
7.718297205565333163e-02
8.247358818142222492e-02
1.378568305714746312e-01
3.138112099820740408e-02
1.201652771730553071e-01
1.025969756779053499e-01
5.590069205902006844e-02
1.380547349481233421e-01
1.033784703903267432e-01
2.003686069821763449e-01
8.934325222243119646e-02
1.341129835170129792e-01
1.722524840650829225e-01
1.012348040972678165e-01
1.020548708925066717e-01
1.469092036079332197e-01
1.742244390204273352e-01
2.259067451169708141e-01
1.385320045694496960e-01
1.816325700915355779e-01
1.905346365172179146e-01
1.598245670469851110e-01
2.125896516064376407e-01
1.828729954603324770e-01
1.843870494918858627e-01
1.627634078872924883e-01
2.343304346644202452e-01
1.728669780407751655e-01
1.622408998113085976e-01
2.177588420077949949e-01
2.114158484714405151e-01
2.086784902199037006e-01
2.044385185587745679e-01
1.774186614232497738e-01
1.726611653942158875e-01
2.107338733459098723e-01
2.074106798652434747e-01
2.877305062266113933e-01
2.134769885827207947e-01
2.258985155126716216e-01
2.195066421031597881e-01
1.971600376629369933e-01
2.186886999037134793e-01
1.631052867927113570e-01
1.862829575037024399e-01
2.040742820802441126e-01
2.290161264393416329e-01
2.479057408196135570e-01
2.578709754895178730e-01
2.404100452411352951e-01
2.759938673631905925e-01
3.541761723552669938e-01
3.502163906737689181e-01
4.344131656195810431e-01
3.977267624183108419e-01
4.991644920304569299e-01
5.561724115262485224e-01
6.260037012648921317e-01
6.800307732233864533e-01
7.589204614837582463e-01
8.204692146112766427e-01
8.494872517463317729e-01
9.795859972430864815e-01
1.068264138351202819e+00
1.177936554429600102e+00
1.176263730390566309e+00
1.284028625062055173e+00
1.325515055728877289e+00
1.410345802895057066e+00
1.391155164610655692e+00
1.432138592524089482e+00
1.482618965662255928e+00
1.443176546720301490e+00
1.471215787915647999e+00
1.375378304272145025e+00
1.394483730417103384e+00
1.330118780320836525e+00
1.234872262042698399e+00
1.263910138743097322e+00
1.139422489794655435e+00
1.048086411963814024e+00
1.002098851724608775e+00
9.317574696766048881e-01
7.892215145499849038e-01
7.577462658163807152e-01
6.461891477437917697e-01
6.135136420687203884e-01
4.957104685994926374e-01
4.865636027726874535e-01
4.675339246761426315e-01
3.821362649407401002e-01
4.090669595058891161e-01
3.027071064759867536e-01
3.035503613425199476e-01
3.048253626512554826e-01
2.746123799988516301e-01
1.929286409043977635e-01
2.161546990083187958e-01
2.182713347621622613e-01
2.225808744144280593e-01
2.018529385510297869e-01
2.241088972445476057e-01
2.286271991289149097e-01
2.080410173646871363e-01
1.959445023864467561e-01
2.051328889629150110e-01
1.859724601044761561e-01
1.785147716438328369e-01
1.836466245986383972e-01
2.060900865095151024e-01
1.797351216189322920e-01
2.404274229547899433e-01
2.234767420318977127e-01
2.549253964040767984e-01
3.038523315070858488e-01
2.081054140450291357e-01
2.728909135235964012e-01
1.985692372837560282e-01
2.772348539747698237e-01
3.108807656232162042e-01
2.969623085986996536e-01
2.506825302875915762e-01
3.114228404204468226e-01
2.742508855578555949e-01
3.157305813301032882e-01
3.169792664402232840e-01
2.825764779721118836e-01
2.550943263500948244e-01
2.754739195098363513e-01
2.178526840294352784e-01
2.526615799903156323e-01
2.778176431044558359e-01
3.180970292519555431e-01
2.713226677289906630e-01
3.300772105276804091e-01
3.018706855980712311e-01
3.043704182357541144e-01
3.090375241180428612e-01
2.720634757104234414e-01
3.201944477638040687e-01
3.241772524621581164e-01
2.859234601561860267e-01
2.463770680393578272e-01
3.193297963404688744e-01
2.490085908951785165e-01
2.832010329839678708e-01
2.569862008181506008e-01
2.290647477407831978e-01
2.276506495935915197e-01
2.628430203923226016e-01
2.773556138482184963e-01
2.873860440193262700e-01
2.179207093087246472e-01
1.784401050688008139e-01
2.091569553789301150e-01
2.402999811034941535e-01
1.974532699124402213e-01
2.530798468288537606e-01
2.025152644955300063e-01
1.697022573444208760e-01
1.864175970692054651e-01
1.406655521155303346e-01
2.415297505138292999e-01
2.438730551923394552e-01
1.933903099921013280e-01
1.902764110619448723e-01
1.298685938490083958e-01
1.908832574196830389e-01
1.752373753822409064e-01
1.557193420618526170e-01
1.109417187062080035e-01
1.378895867837993117e-01
1.579086671026011246e-01
1.655827822390357751e-01
1.581423332385508973e-01
1.376412771307926886e-01
8.397613775342863129e-02
1.195362504871310128e-01
1.260562941598516173e-01
9.799452922507821684e-02
8.830034593326785419e-02
1.672335404909004175e-01
1.011856490788455992e-01
1.295712485792010760e-01
1.582701637760534560e-02
1.186962606743616477e-01
1.008094226557835482e-01
8.589902482485514690e-02
2.596911068344161244e-02
6.596485166386183152e-02
3.414214191669260462e-02
3.566463071053719430e-02
1.243618587185720548e-01
6.764828030379918533e-02
9.938177614632964785e-02
5.158995396539473033e-02
3.918319619754193073e-02
6.360508528424774211e-02
7.997399144115910352e-02
7.525406794522185305e-02
5.642963529149923330e-02
2.904445026111863309e-02
7.675488215418838078e-02
-1.107427505733417708e-02
8.682180707577193124e-02
7.000005025476865872e-02
3.755179035652691372e-02
6.581224807053237535e-02
3.080972767745344260e-02
5.719096143739484106e-02
5.353551536398612476e-02
6.199601872850723366e-02
2.202005245416290696e-02
9.192458031471284485e-02
4.748347376744456450e-02
1.242820814290745979e-01
6.502992291339829145e-02
1.336384788452479530e-02
7.928435257407667747e-02
1.140411359246805978e-01
3.212520540695768673e-02
9.871569500231747174e-02
1.005900607834350202e-01
6.766440853528048194e-02
1.061080784642657038e-01
1.121421698361217412e-01
1.160770044000443701e-01
6.957424344778433134e-02
4.869348739511257518e-02
7.292421219876972505e-02
1.393632619631506309e-01
1.110812208323527228e-01
1.314055563197163989e-01
1.330309103575919860e-01
1.177478149878867092e-01
1.364169253221613476e-01
1.328677429398427146e-01
1.608177009767251253e-01
1.348553884312055640e-01
5.545549597044893003e-02
1.334973113551913837e-01
1.953339431083314093e-01
1.548857234708328201e-01
1.178080539326144538e-01
1.131392263905892925e-01
1.707782808747476677e-01
1.456607132856204134e-01
2.093841998420624129e-01
1.465673970029359174e-01
1.671409221319031801e-01
1.659090007802574152e-01
1.729168474682693524e-01
1.748245079368529464e-01
1.577802282831885228e-01
8.736293388525166737e-02
1.741440532754423565e-01
1.865446585284332714e-01
1.657116548410351164e-01
1.706379855118271838e-01
2.027388366429911937e-01
2.123909880478608292e-01
1.761042862512434137e-01
1.560340606723577550e-01
2.341776161417194468e-01
2.214580199191768795e-01
2.160324927617796598e-01
2.367543299020295755e-01
3.032084524684709459e-01
3.277416765443837976e-01
3.089488035914489394e-01
4.326040399020178451e-01
4.655379672434073468e-01
5.031350437856790814e-01
5.586451185067321523e-01
6.620752509470745339e-01
7.206325808224249840e-01
8.231599446586059798e-01
9.007165825291723049e-01
9.485504292054870445e-01
1.048435790454528282e+00
1.066938016891639140e+00
1.182119475363246019e+00
1.328084936376155323e+00
1.354480177705548849e+00
1.330547790478016745e+00
1.345351202176540806e+00
1.416710098083464597e+00
1.424089237722957701e+00
1.395461046758491364e+00
1.393022171159743472e+00
1.344996063950739229e+00
1.323123261066179834e+00
1.284528740637051802e+00
1.173595695276846040e+00
1.145861949265999158e+00
1.065950256045923972e+00
1.027343395855886854e+00
9.128399565820974892e-01
8.269107892974342233e-01
7.409776061600711339e-01
6.782670892144611052e-01
5.688293368943608819e-01
5.869757705511819967e-01
4.884759407973760514e-01
3.990459619348666331e-01
3.410584953392648555e-01
3.393847875373359746e-01
2.616204645149297070e-01
3.142707334505958072e-01
2.420613241661946358e-01
2.541143369839345412e-01
2.175783764835765299e-01
1.330295165580782368e-01
1.234352148408718874e-01
1.171342970188329335e-01
1.420342899987890872e-01
1.587628031862240441e-01
1.851137437403946318e-01
1.727495164174459030e-01
2.043396044091028430e-01
1.335963183194476267e-01
1.669145351259681276e-01
1.162904227172958521e-01
2.303119461655361300e-01
1.440490243860521047e-01
1.408098300038700679e-01
1.598064057330201293e-01
2.078360837559707630e-01
1.872312529801765379e-01
2.437737935820550872e-01
2.441156060573462239e-01
2.021830193565551936e-01
2.400545569972712123e-01
2.090408710263172987e-01
2.068289496622813528e-01
1.736668655720327858e-01
1.883988695270014113e-01
2.263608755934787553e-01
2.152084536502288925e-01
1.800188931789473978e-01
2.695762084326750463e-01
1.905913148337236018e-01
2.665239352608737566e-01
2.226579508125024753e-01
2.460416632475745935e-01
1.983275325670575684e-01
2.121681548431940956e-01
2.816320253201997637e-01
2.146822515962974187e-01
1.751217177026522243e-01
2.355558595570022007e-01
2.430888008496405461e-01
2.411809897466605790e-01
2.430262306477625756e-01
2.128118055754670834e-01
2.594533316160358427e-01
2.850387384988714023e-01
2.225116295310392289e-01
1.988331255395831554e-01
2.358114479309579570e-01
2.334068076626278909e-01
2.385294072289488865e-01
2.346042193965507394e-01
2.627333394826358304e-01
1.960072249770612174e-01
2.096886862783965133e-01
1.624892941226086795e-01
2.341545036516017586e-01
1.732213712426418084e-01
2.216321523989801534e-01
2.031521012274469795e-01
1.627460719041440018e-01
1.475090000063356832e-01
1.298196725311349109e-01
1.157280971659766511e-01
1.092818619559334098e-01
1.545156118466240180e-01
7.928782840199968818e-02
2.026268719290164055e-01
1.498795465717915887e-01
1.103434802686260457e-01
1.518671550262911119e-01
1.931213732258815485e-01
1.515364851100675092e-01
7.490870200328596240e-02
8.319196722871383121e-02
1.578897657110726327e-01
1.090956705281567601e-01
8.295246579487031147e-02
8.090286745721042561e-02
1.219700400921673866e-01
1.203684872288439123e-01
7.217910618864202543e-02
8.019918799432675105e-02
5.056637138504564699e-02
8.787052197258851671e-02
5.348983930255837849e-02
7.987478786988599921e-02
6.851247910911112404e-02
3.574481734817207962e-03
5.317916271162544117e-02
6.635051582386287949e-02
3.587543684515954318e-02
3.802359936056665807e-02
1.354262305416893686e-02
3.860061703784938014e-02
4.110350625802466906e-02
1.226725175495014392e-02
4.211380688356609892e-02
-1.986047986294862608e-02
5.211882343010891538e-02
-1.089140327265869859e-02
3.558037716517659099e-02
3.960980998188537439e-02
1.409080871789250219e-02
-7.829701635041482616e-03
3.633125982449590674e-02
-1.640914817358470404e-02
-4.757741978441103192e-02
2.531229502031737480e-02
3.760578463139849226e-02
3.474146813537180162e-02
2.541623460897634093e-02
-7.569289175699388944e-03
3.279107803668034060e-02
6.014275549132243326e-02
-8.765780316095945351e-03
-3.448396723928603969e-03
-7.834737581894742064e-03
3.905277254895055117e-02
4.129880749281458069e-02
1.083775461055042078e-02
-1.488894060437729455e-02
-2.523107165784600064e-02
-1.531523861232238215e-04
1.320947722430348276e-02
1.757233472318961431e-02
-1.004036615999060952e-02
1.639979336082214925e-02
3.882726291131706475e-02
5.685842366335869258e-02
1.617196790988484692e-02
4.747616728440524902e-02
8.046954580402101986e-02
-6.391224744928328261e-04
5.957050901400483267e-02
3.889156411988013012e-02
1.003038624214348251e-01
6.683648670287950511e-02
6.413358600660187814e-02
7.440130341203116116e-02
2.311411655722639402e-02
1.150839479901467760e-01
1.117502965181324803e-01
8.246539122125050303e-02
9.757435657009247421e-02
8.353462437272399232e-02
1.072044953941291012e-01
7.267841629180019081e-02
1.047437060943987031e-01
1.171303987165820404e-01
7.453677614224286929e-02
1.066375950363132874e-01
6.026326180827325935e-02
1.192657078653283215e-01
1.079107389163416197e-01
1.608297713275906871e-01
1.296606814497906213e-01
1.084945063118652880e-01
1.180544121196721585e-01
4.461374997417243832e-02
1.431979593313198185e-01
1.112866355028017673e-01
1.551359396767555687e-01
1.292191224623676638e-01
1.588513010504208067e-01
1.544782579215573104e-01
1.304696070379528505e-01
1.154210976445849968e-01
1.781073622221863439e-01
1.501802237996615330e-01
1.995619122786298216e-01
2.309435163630100818e-01
2.972994448158458591e-01
2.315600939007838865e-01
3.593799913950711522e-01
3.921344485835148719e-01
4.083859562074537708e-01
5.474806954424193961e-01
5.254927147972747736e-01
6.031726889663588942e-01
6.424272950705949281e-01
7.507505950042500098e-01
8.017455687163803635e-01
9.097694032668883768e-01
9.804150505268176552e-01
1.097572249603023797e+00
1.120882147228685177e+00
1.232007807403114885e+00
1.197971093625899375e+00
1.319188615924832941e+00
1.348053530198826566e+00
1.448157026978686757e+00
1.386257888115186798e+00
1.375181011310117052e+00
1.335650571482008608e+00
1.267278801189466675e+00
1.221813963737272912e+00
1.260166543863872501e+00
1.144708173089916459e+00
1.067935311858916769e+00
1.030876437520220401e+00
9.384999070165225277e-01
8.660666637522035360e-01
8.220585062156481326e-01
7.027961456808003993e-01
6.372323671478401508e-01
5.523300320025553711e-01
5.020627980328733475e-01
4.260965711673910805e-01
3.930808755982290181e-01
2.953237298199376526e-01
2.802538498825287716e-01
2.184591401899169949e-01
2.129610455011586301e-01
2.061140254010138950e-01
1.788544781733522882e-01
1.435038845686824882e-01
1.362208656334650270e-01
1.242140306566719976e-01
1.467788818086066815e-01
1.149344311802508178e-01
9.085809993448665245e-02
9.124825209365548806e-02
1.229873471721350392e-01
1.269511123688736864e-01
1.047268754732742224e-01
1.618477682191668543e-01
1.298027421644590562e-01
1.061108652838313321e-01
1.401114209059793614e-01
1.005512768726842809e-01
1.552774454037453566e-01
9.130337502858751342e-02
1.899689556310101002e-01
1.302679907597802667e-01
1.364614579430043217e-01
1.300226426487628428e-01
1.375893112994300560e-01
1.685755146958480832e-01
1.886642016278101686e-01
1.438325085345285026e-01
1.774565147347135219e-01
1.392069056444555086e-01
1.523737594892405622e-01
1.996364749472301359e-01
1.644866162020712508e-01
1.901156662407787468e-01
2.467451240523212963e-01
2.351865542008135523e-01
2.063716745959537635e-01
2.099825721497682041e-01
2.296769949460281124e-01
1.412445572859884479e-01
2.221313550230829825e-01
2.639099029504164418e-01
2.072964930625748325e-01
1.924945624212442974e-01
2.709092701722646823e-01
1.981801226921250381e-01
2.022582529952903219e-01
1.937257274286990905e-01
1.744709741592972985e-01
2.689873893948300232e-01
2.305706434747830935e-01
2.552313260994128474e-01
1.477663377492692554e-01
2.197574180589428883e-01
1.224668840123583902e-01
2.260123851035958087e-01
1.465059243159594626e-01
1.508324702938893258e-01
1.800497537953593685e-01
1.777334771988154094e-01
1.609646211648302627e-01
1.204709333362059542e-01
2.119373567551477988e-01
1.111432623423175142e-01
1.528153111804411435e-01
7.712510867462782360e-02
9.471587078307067142e-02
1.562223765535554476e-01
1.493186768782012730e-01
1.218791063308994893e-01
9.002845452078861443e-02
1.165392965372545886e-01
9.468072011640527030e-02
7.351562390126580027e-02
1.201199350645435482e-01
7.468132499676216618e-02
7.140702093046172316e-02
1.045777802591173478e-01
1.019526180399427662e-01
5.734983182748326636e-02
7.218730572997035522e-02
1.779201484172439340e-02
6.907012764390510484e-02
2.347537349700555553e-02
-6.599734180376692905e-02
9.604120655338471702e-02
6.357175327035097245e-02
6.387106503157968795e-02
5.706151764413996963e-02
2.484294972383064432e-02
4.250065925102457232e-02
3.725129552698391855e-02
-1.341316765171991082e-02
4.542500578755205576e-02
7.624457450072660847e-03
4.580131154161344587e-03
1.071785523430272141e-02
-1.932463890581526123e-02
2.001226801587513426e-03
-1.907100810774427224e-02
-9.621761164110287368e-03
-4.863644234606971650e-02
6.891229984048417856e-03
-2.666095651325537524e-02
-4.590438385297421209e-02
4.260258987245241907e-02
-1.006162016662170977e-02
-5.088686461752885137e-02
-5.706942379658656861e-02
-4.301662498703198723e-02
-4.400413193638382653e-02
-6.552303442876238060e-02
-3.426306344129338710e-02
2.808819175212755315e-02
-3.290269047948683745e-02
-4.182680833422257327e-02
-2.188733366802264949e-02
-6.357335758675801418e-02
-3.978349172922279048e-02
-9.644584843681393294e-03
-7.171504602292755326e-02
-1.672733517469727343e-02
-3.120377841548502285e-02
-3.238251130540072825e-02
1.927500506196110769e-02
-2.563491074225252020e-04
2.570925964135491182e-02
3.242976074316022972e-02
-3.769826517135231592e-02
-8.042087203827485986e-03
5.168279810976740551e-02
3.769412551882057871e-02
4.444869351688124359e-02
2.350301003101357145e-02
7.942003029507790912e-02
6.462572949326858551e-02
-1.627858702802673779e-02
1.424197509223133068e-02
7.603828131359899323e-02
4.789761012531103951e-02
5.662480663778541451e-02
8.048294962309578138e-02
1.263202745496023321e-02
1.141789694202790251e-01
3.653377637676963330e-02
7.559849221945277864e-02
7.024622967733007428e-02
9.620570642751509471e-02
5.589038711770875217e-02
8.967381114552926136e-02
7.472195980662288406e-02
6.516741859219660205e-02
1.512927085919834325e-01
6.977338316378396688e-02
1.556142977269349414e-01
1.091791259454520935e-01
5.360758682201727243e-02
1.348328208663032157e-01
1.324796374819979528e-01
1.020686250542013895e-01
1.335332273114142043e-01
1.250745061610806230e-01
1.283854611358078157e-01
1.059605934740099065e-01
8.894092779751888722e-02
1.039466753384372388e-01
1.222598741881015250e-01
1.101942358795073296e-01
9.423930802986393851e-02
1.365064900060964925e-01
1.433929971271047099e-01
1.656213120005787798e-01
1.360956952152455601e-01
2.220913052319505310e-01
2.311286772479413942e-01
2.038544865288997587e-01
2.875144048224518301e-01
3.447660871778155389e-01
3.468645436891436562e-01
4.516835566429624471e-01
4.803128116598061048e-01
5.114469535841791314e-01
6.361202294162431325e-01
7.198250131125877305e-01
7.703630709957678402e-01
8.176898737994922062e-01
9.397467295965258316e-01
9.982056975329738346e-01
1.130127595680619823e+00
1.140101495076811133e+00
1.252789403786789268e+00
1.280952727707088012e+00
1.288626579332097011e+00
1.336447594208485912e+00
1.360688299212469143e+00
1.363634075557189185e+00
1.373283518580397322e+00
1.344491076729532386e+00
1.347847841331739183e+00
1.300538304940078271e+00
1.222381901052525199e+00
1.145660039202159197e+00
1.098442685206693747e+00
1.041186327252263233e+00
9.728079980341749478e-01
8.607740611816150356e-01
7.669346391304119326e-01
7.213818954093945690e-01
5.983106363272369110e-01
5.796789810260065678e-01
4.537423514227902355e-01
4.383520127963493329e-01
3.517720200659206764e-01
3.094210479521648516e-01
2.376745668512918186e-01
2.237865613462541314e-01
2.357109484881315664e-01
1.592216965160821451e-01
1.847889639501849035e-01
1.790624142021718657e-01
1.500501374560242740e-01
1.367977678504036787e-01
1.513638632400393924e-01
9.852270574072161113e-02
1.004028513928333644e-01
9.729131911812304023e-02
1.334172084397687308e-01
7.904680913977210621e-02
1.277706912130618377e-01
3.832248418691768660e-02
1.367074272934904189e-01
1.853804109636990605e-01
1.809241958925124905e-01
1.716363679492092509e-01
1.477728258957348717e-01
1.562905027425329496e-01
1.477431358151101715e-01
1.486271355641408665e-01
1.647864938536182655e-01
1.852057355269017824e-01
1.176243037569718597e-01
1.554993902070591627e-01
1.687550398048408840e-01
2.018316033423764866e-01
1.913972243815113550e-01
2.042989994991236680e-01
1.637683930840963809e-01
1.797543013946692469e-01
1.744519344550324869e-01
2.439213800781548647e-01
2.519238224106838397e-01
1.499981774882499785e-01
1.684895749047691238e-01
2.188895823388669892e-01
1.583499852947494180e-01
1.963171076869622833e-01
2.294642694757694779e-01
1.982366617881554105e-01
2.046639200545943837e-01
2.307706311470626714e-01
1.875805546089014675e-01
2.456737238967245385e-01
2.091484107869214792e-01
2.056005624455953251e-01
2.380807085331311523e-01
2.083413870279486324e-01
1.773125701305001689e-01
1.760012932069845437e-01
2.408678043943809355e-01
2.215551949681615618e-01
1.937532175058948591e-01
1.487403400093750827e-01
1.541403984400921134e-01
2.048610483308345442e-01
1.469313504921491709e-01
1.894544742978046259e-01
1.698001499351391441e-01
1.531627132741632813e-01
1.804825732486922407e-01
1.131198869267732998e-01
1.363646670150812645e-01
1.712728898182853121e-01
1.461169590647480310e-01
1.476848366722101624e-01
9.061734197068484209e-02
1.411919234870794571e-01
7.147765766704711199e-02
1.328208255373622138e-01
1.360499518763958193e-01
6.336573889878108212e-02
1.554560897109997508e-01
1.422940689693762972e-01
9.914769540830714600e-02
9.558121740909657216e-02
9.816875654311779664e-02
7.495223736399597714e-02
4.471684388714240038e-02
4.719827505478775553e-02
4.260935962537740901e-02
6.408905796467809224e-02
4.960031560828689901e-02
1.006940452572170352e-01
6.330430726223064408e-02
3.898317942715156387e-02
6.359140590319682651e-02
4.184052660952353175e-02
2.756496293632792680e-02
1.934076086241171694e-02
4.069407560071281599e-03
2.234468654588506881e-02
4.433693335836481897e-02
-3.777204160045415093e-02
9.066277811497741590e-03
4.376658028006934209e-02
5.939957261737981165e-02
6.599613265200711398e-02
2.856506314836763233e-02
8.262075027243052233e-03
1.967193271680287708e-02
2.213586463436357718e-02
-1.225272348850642290e-03
-1.587061384415958121e-02
-4.238418660172556252e-02
-2.498999145337427868e-03
2.435531739711313537e-02
-4.682185126224228111e-02
4.350467060251382578e-02
1.931753158148108787e-02
-4.795223592458923434e-02
5.364223221403342790e-02
3.471886920917652275e-02
2.139351270287249973e-02
-1.547590263343628925e-02
4.830375625714700139e-02
4.284624856495564127e-02
-1.504902429543930262e-02
-2.944533055890953890e-02
1.457531662426756955e-02
5.500044241992582683e-02
7.046303999707313748e-03
2.938293369544784164e-02
4.587777166325783529e-02
6.489503965352463877e-02
1.644579774270932271e-03
-3.744067206069654624e-03
2.168141273895702464e-02
1.083985842615603143e-02
2.254179773351074403e-02
9.204947708248989446e-02
3.679876103683404204e-02
5.092459793924482975e-02
4.863865121938650005e-02
5.825509384605540020e-02
9.000635213068189366e-02
9.816693730480341440e-02
7.422350818261122529e-02
1.033152815492984766e-01
7.877064802316234571e-02
8.419932841768999754e-02
1.093356716213882002e-01
8.199201053796909000e-02
1.811718404932363413e-01
1.257002494913178614e-01
1.264201345742359539e-01
1.011933607947720914e-01
1.406231554586763743e-01
1.068042154798302251e-01
7.617134287591374731e-02
1.076739291196194132e-01
1.462745528360558100e-01
1.659531885809057694e-01
1.244890544863954118e-01
1.458364568105359471e-01
1.648859167779692103e-01
1.871983970443842904e-01
5.532322473033465804e-02
1.947931732289802653e-01
1.623516383694876553e-01
1.453498879150895706e-01
1.349271010424278605e-01
1.745726219297456250e-01
1.327256398533449566e-01
2.403902256375058943e-01
1.710249738437299993e-01
1.599413383968900093e-01
2.056710502725103140e-01
2.271614767680797120e-01
1.863358599233643775e-01
2.273895370225329227e-01
2.625067466589438570e-01
2.764620069616781084e-01
2.852868451505116698e-01
3.246220163529716651e-01
3.772197208897452025e-01
4.596154165467700725e-01
4.679140971035740115e-01
5.585879421856532190e-01
6.028328970184254620e-01
6.743285473205244962e-01
7.779338257079921881e-01
8.221583254439970290e-01
9.188119257234774739e-01
9.967324206224246197e-01
1.022015754985092340e+00
1.120587606806210390e+00
1.218086069448922171e+00
1.255170256049036093e+00
1.321263543775957006e+00
1.375445701513166696e+00
1.358262000012889992e+00
1.429863451749570746e+00
1.401690292892865841e+00
1.421886904864672285e+00
1.323194495401576409e+00
1.296201028343113126e+00
1.262556753398786480e+00
1.209484464599138054e+00
1.231454913169879317e+00
1.163384209273688352e+00
1.002622281867819876e+00
9.549560940938077724e-01
9.163775954669911572e-01
7.942508782144243051e-01
7.512231140675278418e-01
6.765354289197179627e-01
5.612535834146025193e-01
4.860223148761674827e-01
4.219155254403644806e-01
3.513636505242697661e-01
3.619121171934288617e-01
3.302633481116580283e-01
3.033046989835492258e-01
2.422068904347272622e-01
2.124680485437652477e-01
1.907623012973368448e-01
2.024149427141277158e-01
1.918344521060622032e-01
1.488248535339195822e-01
1.671728459422288093e-01
1.824049070466104705e-01
1.318242705921026103e-01
1.209944906314782409e-01
2.012341833974585215e-01
1.830538585771559479e-01
1.569784512270977483e-01
2.053102679547054443e-01
2.563149986818797355e-01
1.859367139910829692e-01
1.957629368471867359e-01
1.959147702443042316e-01
1.960611873344900447e-01
2.366832713381335773e-01
1.934304877546100809e-01
2.191727895491362987e-01
2.154965484247384211e-01
2.342210192025086790e-01
2.110904744006801836e-01
2.942887311690808305e-01
2.163491308364939580e-01
2.494120813537661629e-01
2.649748799287943157e-01
2.336733125072847084e-01
1.975816743833755662e-01
2.420318253159133015e-01
2.371271180751006458e-01
2.974235000230140979e-01
2.403947661788810308e-01
2.809681156659346035e-01
3.016636930741030675e-01
2.585548935370352019e-01
3.128070219716582168e-01
2.993134653813636636e-01
2.885453021777298344e-01
2.686082686646824036e-01
2.813370344794985378e-01
2.235413979610983981e-01
2.142208584680577732e-01
2.764241359361045980e-01
2.555127603245937462e-01
2.264200433157026460e-01
2.529795922968483546e-01
2.507438794924694014e-01
2.603820014712097120e-01
2.488121500901840921e-01
2.226545200649077128e-01
1.938316156838855442e-01
2.326163833918098722e-01
3.058613287052281970e-01
2.594293348455213311e-01
2.164096043095326549e-01
2.964077566692677745e-01
2.318770396164644698e-01
2.068439251231091736e-01
2.282199304962859165e-01
2.100653579558610651e-01
2.304728404964062338e-01
2.330864292685754235e-01
1.857431762135566267e-01
2.162317581472075201e-01
1.800164112397404925e-01
2.132762017458256221e-01
1.921134149571361027e-01
1.178431298520291326e-01
1.556102541736760769e-01
1.680629681056475810e-01
1.749651235758855061e-01
1.345516576814922149e-01
1.759600180599438235e-01
1.288244326482598234e-01
1.110796985716789864e-01
1.797405795973706644e-01
8.506593188413463791e-02
1.547073505356019729e-01
1.168415812974432227e-01
1.268034561042374053e-01
9.802229122009217810e-02
9.654620584707578057e-02
1.507507273755553934e-01
1.467670851677980171e-01
1.118852324410309351e-01
4.969623529938835965e-02
8.119237479047049233e-02
7.511037187592986553e-02
4.598057750458187098e-02
4.020251307594792378e-02
9.952047055816776178e-02
6.059886157877800855e-02
1.070919501588215583e-01
1.142121769876746351e-01
1.000975736768893454e-01
4.861280488663322075e-02
8.822823325310488740e-02
7.147671242186016960e-02
5.555885544603327009e-02
6.198450364140890845e-02
6.141119375166416428e-02
5.787789152704678197e-02
8.142463977985700541e-02
7.044555123208141867e-02
6.795479921773944776e-02
1.215438334547209315e-02
2.745171583342348801e-02
6.585604358600687103e-02
3.344208246600818835e-02
7.927413365149717228e-03
4.877049501414519594e-02
6.325120713304445419e-02
4.994904472589870026e-02
4.477608523271701946e-02
3.304480070349357507e-02
3.840668405280393827e-02
8.228742564521514258e-02
7.467216386944777740e-02
6.891173418566987063e-02
3.395105612841282233e-02
9.427449811033890292e-02
4.485900015245256750e-02
3.716342939437575210e-02
9.798930126592947376e-02
1.279634967301329918e-01
1.035750271683685136e-01
1.194078847971780238e-01
5.208149920737493999e-02
1.101781525984766030e-01
1.033964577176507554e-01
1.362516754506822025e-01
6.531824403568287085e-02
1.132432737302757897e-01
1.307275383459274853e-01
1.607266615862511794e-01
1.865475151491347572e-01
1.238995964060677774e-01
1.499820018704426938e-01
1.068379928907134124e-01
1.407277568458846218e-01
1.057165856689737116e-01
1.849818939002269014e-01
2.369852650118043913e-01
1.625007345978692341e-01
1.359533302148462353e-01
1.158374748036063856e-01
2.066515387596152831e-01
1.972595993603729891e-01
2.497465876561223985e-01
1.692136405224758666e-01
2.123891844021128517e-01
1.770993749835781117e-01
1.897877131418232721e-01
1.874557043670825318e-01
2.393773244932299038e-01
1.807784288521083471e-01
2.188413291651334913e-01
2.262184593526775089e-01
2.095015633818005929e-01
2.319257951434549325e-01
1.544056879389879011e-01
1.587360100413397479e-01
1.746149994746049872e-01
2.097110533029439006e-01
2.235272266468789071e-01
1.578461998697596735e-01
2.246144803031602244e-01
1.947197398720688089e-01
2.178632934655624631e-01
2.785388956936799554e-01
2.398221160878252767e-01
3.078303524795525381e-01
3.156148554313977783e-01
3.865702211081951112e-01
4.913044078077895005e-01
4.889570783146428568e-01
5.352790810775258645e-01
6.228852309547904254e-01
7.025483760226830521e-01
7.579021134434420492e-01
7.651082048824365822e-01
9.224344040162389957e-01
9.545898229510980659e-01
1.036411490212079789e+00
1.100343435481902610e+00
1.180512655058219451e+00
1.275901208867285419e+00
1.326082926441111365e+00
1.358267058006969119e+00
1.367644900351031367e+00
1.474741923610020766e+00
1.458380007553032653e+00
1.453344262876852921e+00
1.439821754850941771e+00
1.406944049329954538e+00
1.366337545142696452e+00
1.299458016091338264e+00
1.283689461490605366e+00
1.192903220607044235e+00
1.145920334717648092e+00
1.049091303345606185e+00
9.529692319394926781e-01
8.953372352223462061e-01
8.078841434635869456e-01
7.296392090478152070e-01
6.425678215698231721e-01
5.880913378284129411e-01
5.085608288964531543e-01
4.621400291022100260e-01
4.292409250510515473e-01
3.651244992841865544e-01
3.626498791845368386e-01
3.309187051791963041e-01
2.827359714337807084e-01
2.151466504680300817e-01
2.400727887479936762e-01
2.093225226764159341e-01
2.063510630270987412e-01
2.273041076989515130e-01
2.107929410692724881e-01
1.817281545167951651e-01
2.069886359978910795e-01
2.171869587088545994e-01
2.586325814801753165e-01
1.823983125236997849e-01
2.131937577517023785e-01
1.680567633922924187e-01
1.882123560982600363e-01
1.935613735108675237e-01
2.593076278176717486e-01
2.254914126241306938e-01
2.550664751920439510e-01
2.609083255031716675e-01
2.384385143770361981e-01
2.210899715186786796e-01
2.400453788199578831e-01
3.079345491200630169e-01
2.705280163248783287e-01
2.420948605615662330e-01
2.667404003618922825e-01
2.589856823770345651e-01
2.513948931068005210e-01
3.269444705207840141e-01
2.564442089739008002e-01
2.882194759209665280e-01
3.219856099689211160e-01
2.411318523152256310e-01
3.513362725833121258e-01
3.492907715601663576e-01
2.781355705504163223e-01
3.641238001146456793e-01
3.092305264647159380e-01
3.191392269135625570e-01
2.671415397480673137e-01
3.158709809113220413e-01
2.808984302754780615e-01
2.847799675672025854e-01
2.831913024279059665e-01
2.950900655990688626e-01
2.602977778634118500e-01
3.243086631689705568e-01
3.232773455936024387e-01
3.057346007334668103e-01
2.791837311814279188e-01
2.727565160109336473e-01
3.334303024341558341e-01
2.679960992607502979e-01
2.330594562622438082e-01
2.779525207345605597e-01
2.491554694710820250e-01
2.708930254635599222e-01
2.712484196378052159e-01
2.467246459376371270e-01
2.519813933612310430e-01
2.514098021880799005e-01
2.249881719407339775e-01
2.065015330590961873e-01
3.039195367852167151e-01
2.525727197061198304e-01
2.069526340707710244e-01
2.541803954689936806e-01
2.451948203514434654e-01
2.348720487714306693e-01
2.382326811084196638e-01
1.884457848849786232e-01
1.883570088995565051e-01
2.107088981227599467e-01
1.770326729739441773e-01
2.319192254025108924e-01
1.968288268891937032e-01
1.335911605348508169e-01
1.853175696061343525e-01
1.972091089985303081e-01
1.764667288993423955e-01
1.559617585053964806e-01
1.608990558023833950e-01
1.741811941660825480e-01
1.676964938929135507e-01
1.199788237346987446e-01
1.260565123738780213e-01
1.293576918259627673e-01
1.302226069371693606e-01
1.148211002039007111e-01
9.526094923157846228e-02
9.273614986758714485e-02
1.457400054503964204e-01
8.563466297884514411e-02
1.325127144474253504e-01
1.301769377113696780e-01
1.358991034524370534e-01
9.604653509499677666e-02
6.035555207459525340e-02
9.749481785565475289e-02
1.044614927867191928e-01
9.074716904468256573e-02
8.050312046458313331e-02
4.758359087000742227e-02
8.086785145212167791e-02
