1.443114744448911857e+00
1.392258998285765381e+00
1.360583494549555628e+00
1.353090799261670085e+00
1.324254752879577834e+00
1.262721216852269901e+00
1.178436171861674930e+00
1.137575278709856752e+00
1.092637799888108496e+00
9.985425718402334283e-01
8.979204974167948050e-01
8.295249674267886064e-01
7.620862752321875266e-01
6.343862812127364359e-01
6.189051300932950639e-01
5.314644309100415853e-01
5.065987078385087994e-01
4.437852399487220989e-01
3.984572924394474969e-01
3.513236569989874880e-01
3.363983227530353282e-01
2.215724692951593910e-01
2.721968890457586721e-01
2.825472244631738183e-01
2.073620374301622105e-01
1.825157447155614787e-01
1.972129025131222069e-01
2.542175613780421894e-01
1.470612010732874619e-01
1.757226600806874039e-01
2.223447091866609382e-01
1.715881518263763783e-01
2.199304186692008223e-01
2.136435988212534720e-01
2.208476966744579162e-01
1.644713178423756750e-01
2.264626192430417018e-01
2.462616991502591390e-01
2.140056121482194484e-01
2.355452990627596443e-01
2.795366250192315438e-01
2.789462688032024462e-01
2.590076126711347015e-01
1.931431225075062041e-01
2.801999571902211161e-01
2.315324688344653770e-01
2.794906271318101099e-01
2.545385816250791411e-01
2.158543299854537856e-01
3.539493086680924883e-01
2.765278468318759786e-01
2.852422004979803249e-01
3.085361958988984132e-01
2.855547781477351110e-01
3.116156437172430960e-01
2.809399646252194183e-01
3.408720985324110164e-01
2.497245958765642038e-01
2.619186955969728947e-01
2.549163971451535726e-01
2.782898472758100761e-01
2.871231037159299726e-01
3.235797578831537402e-01
2.871484015406744472e-01
2.896551925245086645e-01
3.074850700747368548e-01
2.872565202638028836e-01
3.084175083792741745e-01
3.033931744496116134e-01
3.063447298010452680e-01
2.504338615563765913e-01
2.703149320547414414e-01
2.399393612991558289e-01
2.608865327458385064e-01
3.180197158449982187e-01
2.555339399598411942e-01
2.439804270499357497e-01
3.005589569169979658e-01
2.240384250133937993e-01
2.164475297924332575e-01
2.812989569880383067e-01
2.604403677328509525e-01
2.949139898870976606e-01
2.465395907274686715e-01
2.301471050120466599e-01
1.994307790981550421e-01
2.121337135642605565e-01
2.247183989683458061e-01
2.331478672033993893e-01
1.893398682338704730e-01
2.390000057355464169e-01
2.072086266862751269e-01
2.256554307363878575e-01
1.977777856688878733e-01
2.159175747192297878e-01
1.972242482220271376e-01
2.191702791449874621e-01
2.024879414508900521e-01
1.693249981475351829e-01
1.415342397839329247e-01
8.927481536604051082e-02
1.305383706501794527e-01
1.588013821311120288e-01
1.281928167961601250e-01
1.217541975165758183e-01
1.427781363591494324e-01
1.976611268788394105e-01
1.655373197505568550e-01
1.069999225519525782e-01
1.016828498392453317e-01
1.142437366312810676e-01
1.161359269048243409e-01
7.320954354037770284e-02
1.056720292709707465e-01
4.581652001719727085e-02
9.583268306679720849e-02
1.078719323618950177e-01
1.520942525410858281e-01
8.080665707457829194e-02
9.600028619615713632e-02
7.209697172003470822e-02
6.801282774752387406e-02
8.028319801321863458e-02
7.559620166341665670e-02
7.094416595767177869e-02
6.157229516379889717e-02
5.003508852937826878e-02
2.469330541213271557e-02
6.163657817127336791e-02
6.307392180941390203e-02
3.444476883007094314e-02
6.328383907648793549e-02
5.775802298001432578e-02
8.994652245572420934e-02
6.078591558853782550e-02
5.283719063021148632e-02
2.589826078101015172e-02
3.829739640905946430e-02
1.003635859968883548e-01
6.744264007480404999e-02
8.943056289689224614e-02
7.685205743228498698e-02
7.157457696939736880e-02
4.628637461223383126e-02
9.927892397068127650e-02
1.064195969679997966e-01
1.030278967690783226e-01
7.280235776155000171e-02
5.685160074663109242e-02
7.974489368172527071e-02
6.436942424400868279e-02
4.976924872096140373e-02
2.384960748692253885e-02
7.447307185975671207e-02
1.067546596766964367e-01
7.769585781123541923e-02
5.578583411754323845e-02
8.592662707675099987e-02
1.111182993159354204e-01
7.189883740519130428e-02
1.029579063336179545e-01
1.391557341454825458e-01
7.685218210052079113e-02
1.401496426907256065e-01
1.058275676973207818e-01
1.729902213691077995e-01
1.373362273034240688e-01
1.403367954452726940e-01
1.186576663861508840e-01
1.316544288789616157e-01
1.867881760290588944e-01
1.556377877219032868e-01
1.589856633418006981e-01
1.823429616484011362e-01
1.192043965239958786e-01
2.028406343112226784e-01
2.012331017253278231e-01
1.326742330978760986e-01
1.645005839687435634e-01
2.063495044024645786e-01
1.841234227668503975e-01
1.592379355881754499e-01
1.382399088462634706e-01
1.875298813811722143e-01
1.641116138020029258e-01
1.883352232170113494e-01
1.299628275067556127e-01
2.420815061070853424e-01
1.960085135180734406e-01
1.789613669797162077e-01
1.655680086444131227e-01
1.613021314086340030e-01
1.646823902064848411e-01
1.560839941531103059e-01
2.213113692831736312e-01
1.877617595282301266e-01
2.165483115133264302e-01
1.733349013738466060e-01
2.166686324915120809e-01
2.642037803608767166e-01
2.501811019673098602e-01
2.888319478945653995e-01
3.472924416032486250e-01
3.262456470648069651e-01
3.547371556401358594e-01
4.435645941353872357e-01
4.486084870758084153e-01
5.094368504530872865e-01
5.411835363542258914e-01
6.696044386811426108e-01
7.308964864422998753e-01
7.847166021427285365e-01
8.767272337442150176e-01
9.746836199242047138e-01
9.662623890697590312e-01
1.119950368498429993e+00
1.150171162315905882e+00
1.230507947991509532e+00
1.247959247069306388e+00
1.317284925995661826e+00
1.398389449791898942e+00
1.378652094154667607e+00
1.382920736801297013e+00
1.327918121597489565e+00
1.364392322691795334e+00
1.317019276639864067e+00
1.290572242031944539e+00
1.218016820769539654e+00
1.135755084277410232e+00
1.103182521734830113e+00
1.069881618878983698e+00
9.186747189160548999e-01
8.941259316484041486e-01
7.831462891299242335e-01
6.474693405243703292e-01
6.344812216122593940e-01
6.149460192671998282e-01
5.520664660956036141e-01
4.589186588241265796e-01
3.963645989501783373e-01
3.517522421518800568e-01
3.097957600977813697e-01
3.099225078453656801e-01
2.480256315424036462e-01
2.237706398912019390e-01
1.803554523197926363e-01
1.763711880014887101e-01
2.027742968340287000e-01
2.149607462156169491e-01
1.561020925889185229e-01
1.982663069188692062e-01
1.835033878388227235e-01
1.777376336108404398e-01
1.648905019008951311e-01
1.446796301750430946e-01
1.184274862620065261e-01
1.713733072286547365e-01
2.092756823352431017e-01
1.381622592127742799e-01
2.053263690764547400e-01
2.137478643157255387e-01
1.373474770341847062e-01
1.637455281573114152e-01
1.631948644444778385e-01
1.861144966634034059e-01
2.122055760512877309e-01
2.374121274855997832e-01
2.352755902036203772e-01
2.351289114236377042e-01
1.921631473242586263e-01
2.020491344982244808e-01
2.262866980216296509e-01
2.288283319337762189e-01
2.411593404191169354e-01
2.321659933139452736e-01
2.123256024361488414e-01
2.264974237404236146e-01
2.774925091688093537e-01
2.612511916346321739e-01
2.843322099898547006e-01
2.200518610277615861e-01
2.198737327174405398e-01
2.514142614680475729e-01
2.250732107252681191e-01
2.266501202283354166e-01
2.677544496582627276e-01
2.674169791322550394e-01
1.883859442794475203e-01
2.804637875677812864e-01
2.579984628899636978e-01
2.204738589220868461e-01
2.335453245106647591e-01
2.449057920773008989e-01
2.465448994303793551e-01
2.370326187957097763e-01
2.317034740503007839e-01
2.536363312670932291e-01
2.267111584697132365e-01
2.026541409868652388e-01
2.536358261179803564e-01
1.834084015509102328e-01
2.436350954455389350e-01
1.695908891984793665e-01
1.678421651536387005e-01
2.088220819794425198e-01
2.062894782580442232e-01
1.866759657941798045e-01
1.964475160082633232e-01
1.970595947452025709e-01
1.217347367738103314e-01
2.022978978927671145e-01
2.455917376400094942e-01
1.974315000117635999e-01
1.260607553475552312e-01
1.546192350701749707e-01
1.540861650156750695e-01
1.258474398641741265e-01
1.906220297924825502e-01
1.452584571480471098e-01
1.412976614387350394e-01
1.230012132884344689e-01
8.301052727135353748e-02
1.245669469168894788e-01
8.399958882825114825e-02
7.197767880005327690e-02
1.014740935206861899e-01
2.128034983966965721e-02
3.746323287549922776e-02
7.601270141711569117e-02
9.091006410533221394e-02
3.475721215591393715e-02
9.845046401693188787e-02
7.697577838584547527e-02
7.990773544448238896e-02
6.025880768660271669e-02
3.433480364118662864e-02
3.385101840930970080e-02
3.439031452036414582e-02
4.874634936670871332e-02
6.388419654994312302e-02
2.930116285248765551e-02
2.301608539155366312e-02
4.590143292535882324e-02
1.113307848836076613e-02
3.466021342950644651e-02
2.096430511839741939e-02
4.972977764006644708e-02
8.388994239764833299e-03
2.338208958183586941e-02
2.946712411381395211e-02
-3.187969388111534796e-02
3.796066935286941668e-02
3.486129113037180621e-02
-5.088230869215913665e-02
3.608488093235634464e-04
-5.022127923376122627e-02
2.492076673459963504e-02
-5.236729372996341836e-02
-4.429644937701069513e-03
5.818433060102537469e-02
-2.994130254054648554e-02
-1.939805625157036556e-02
-3.594196823150409836e-04
-6.177900257541659931e-03
-2.963197540257141854e-02
-1.453671634996416343e-02
-1.710916897445614177e-02
8.533473124413000488e-03
3.488346786430028545e-02
-1.268229132280142279e-02
3.109797662280614633e-02
8.506791303804359800e-03
-1.146553821894116809e-02
3.891178624915923867e-02
2.690419420132586503e-02
4.609018275372396556e-02
4.444937791456724657e-02
5.368839641257305145e-02
5.824465349298726946e-02
2.819855947406234992e-02
1.731893082998558001e-02
5.097296248030330768e-02
1.053917808969039860e-01
1.718439322087960200e-02
5.999565002538791159e-02
5.210656540508207257e-02
9.648315482517144659e-02
4.924167432858095328e-02
1.090374906259154175e-01
7.528651431124107340e-02
7.258408060726859179e-02
5.928579279691542636e-02
1.175370514686877449e-01
8.388393923808867836e-02
6.614215398104360266e-02
9.835046090647958650e-02
1.030110851191592958e-01
1.010291727405973339e-01
1.198256567651685839e-01
9.887260665181750452e-02
1.286061034865251529e-01
9.058736399596699351e-02
1.498972988976123299e-01
1.755229758517158900e-01
1.075973400243101091e-01
1.235250192273931041e-01
1.316651261847175125e-01
1.125281066600215957e-01
1.138791155652581072e-01
1.288413661297689583e-01
1.291635054329791088e-01
1.395481446912871237e-01
1.510352172147458316e-01
1.035527859936881956e-01
1.119669023727106749e-01
1.375955288994828996e-01
1.536594324589818372e-01
1.261032487137491165e-01
1.506120002209827557e-01
1.085369114750389385e-01
1.306790497546866103e-01
1.510344469246628907e-01
1.839974499973888455e-01
2.070546797879471157e-01
2.685772694073447764e-01
2.599153869905332925e-01
3.256447334803113658e-01
2.863098941769388062e-01
4.017670119386522187e-01
4.741802296889919832e-01
5.141938498574899485e-01
5.575037475627674377e-01
6.272076796053431824e-01
7.265745922939804702e-01
7.780642537261908132e-01
9.126685509561851539e-01
9.207026323512025323e-01
1.018431411088701166e+00
1.130519770307567784e+00
1.119045330296090990e+00
1.188362451339834314e+00
1.227239895705331429e+00
1.255076694822188532e+00
1.371083661739458615e+00
1.293700404491383349e+00
1.296844249482765665e+00
1.282938077090504780e+00
1.291671755777863195e+00
1.231075554667210081e+00
1.245585527701365880e+00
1.158748204785394087e+00
1.023005235015488790e+00
1.029234932394831548e+00
9.254259025415505491e-01
8.552950425222570763e-01
7.788942874329638499e-01
6.584757884358809488e-01
6.477491705623957818e-01
5.017063952909220914e-01
4.633536498320030006e-01
4.739972592639456472e-01
3.660810234442842259e-01
3.436305030991947951e-01
3.017520940111754202e-01
2.490197137017815254e-01
2.401637916487046331e-01
1.610901616982058915e-01
1.645602427178297911e-01
1.436450084312090036e-01
7.875347970432759748e-02
1.050931967200363637e-01
1.026911927946386749e-01
1.149120917169998563e-01
1.632327089700982004e-01
8.725444813808863609e-02
1.359559648971889467e-01
1.307423899047845395e-01
8.872614285449192950e-02
1.022636643132363299e-01
1.308712178525447967e-01
1.467107892796734869e-01
1.077819403334729920e-01
1.432790474294954874e-01
1.616157703387272326e-01
1.648337564414748546e-01
1.826060370774078845e-01
1.482814803999598918e-01
1.704178974946497782e-01
1.350159493054817750e-01
1.681451448850932451e-01
1.739652223680907273e-01
1.688222802269633005e-01
1.489298687400126830e-01
2.332018461813637755e-01
1.618955522199632679e-01
1.587731248844982401e-01
1.549792569182100177e-01
1.764876837122012487e-01
1.520420038562653453e-01
1.859324091976765347e-01
2.137461793744524219e-01
1.839736369647766989e-01
2.379999303692344748e-01
1.838322113243356370e-01
2.524620275200758490e-01
1.861107592696059909e-01
2.054943898653955603e-01
2.175252077249066607e-01
1.819540138511407945e-01
2.071557909380496443e-01
1.937583539890064821e-01
1.811232309062743018e-01
1.824071663700286283e-01
1.834005426409461847e-01
1.808353222162463747e-01
1.642978493987404254e-01
1.754887983014374320e-01
2.433052286915470541e-01
1.487091182574010739e-01
1.939045159314154998e-01
2.178650313874673783e-01
1.789354769682144075e-01
1.405230885551962128e-01
1.550596386023985751e-01
1.539913379590125975e-01
1.384217498330841400e-01
1.381002703815964738e-01
1.842385051243835836e-01
1.444147479129980760e-01
1.759983676525956053e-01
1.977178838895518320e-01
8.344509166006662537e-02
1.003822070951874423e-01
4.403023230903428675e-02
1.087964187912636993e-01
9.763522878126271176e-02
1.240204237869743376e-01
1.153926604720997562e-01
3.910601355547679847e-02
4.818993466353930361e-02
1.161353262663590291e-01
1.186568110338021009e-01
5.373931533984372538e-02
1.472675420398882329e-01
6.309560263779376288e-02
9.276430872858404397e-02
7.730193373778918020e-02
6.828777484698655975e-02
6.601728437119089299e-02
4.619010876975782748e-02
9.320754777381287659e-02
4.625086999571288021e-02
3.742440059438002786e-03
4.402729169581537372e-03
7.732210709146933314e-02
1.504523596158854892e-02
1.583272472545181608e-02
-6.286005811066121274e-03
2.318824212958864317e-02
-2.720128594509341191e-02
4.810947031485007797e-02
3.668332524940548511e-02
1.204824584550921729e-03
-1.094378455583342596e-02
-1.057363674404898646e-02
-2.882720960556590939e-02
-5.112656311223247318e-02
-5.574043902321750010e-02
-3.226596276131662999e-02
3.147423132559364067e-02
-2.711778817038198314e-02
-4.268233796859468437e-02
-1.761686915466943032e-02
3.719352930259232914e-03
-3.234171266911898407e-02
-4.339541492277867313e-02
9.515833862011414956e-03
-3.471204744721487906e-02
-4.455710882901718628e-03
-4.716244760612539610e-03
2.160498999999287129e-02
-5.583943189955672959e-02
-3.485300550795800145e-02
-1.976186837508996444e-02
2.858865900502750856e-03
-2.776929261909130697e-03
-9.747333994975648785e-02
-3.408272071738267794e-02
-1.217698952914444965e-02
-4.889040495815090426e-02
-6.700931997517312055e-02
4.455268653173124344e-02
-3.671861434066980845e-02
-1.403587906201177876e-02
-3.212441582883346358e-02
-3.566578832760580742e-02
-6.960761602784718005e-02
1.710540578222202734e-02
1.271251559417576477e-02
-8.034412234294185939e-03
3.347261315947754057e-02
2.427061247418496603e-03
-6.976233240981337402e-03
-1.342171886420107096e-04
7.814210703151278081e-02
5.862216267560354382e-02
1.485960985295633335e-02
-1.393858402721034895e-02
1.797457152907737388e-02
4.431002996009144462e-02
2.964447775526242446e-02
7.529100120638529403e-02
1.458550813086289394e-02
4.956583105762479846e-02
5.546627332695916457e-02
5.242303648228397589e-02
5.781484194455106806e-02
8.612084611500397946e-02
6.590514009938475137e-02
1.158701572301029659e-02
6.724427060632877373e-02
8.368869576054105419e-02
7.447372269255383981e-02
8.940289136989809649e-02
7.904579667741920557e-02
1.034858685803203837e-01
1.414225308811926651e-01
9.574632532675587948e-02
1.342362779618546664e-01
1.262386599242899532e-01
1.469692189943589966e-01
1.005167318500973794e-01
1.136605634853723318e-01
7.644018134022786959e-02
1.288568497756404641e-01
8.453099472820611859e-02
1.014505452703803046e-01
9.323891438726031322e-02
6.206048867519713824e-02
1.490863054480948136e-01
1.118951404495118901e-01
1.098889223213229960e-01
1.104874085358864000e-01
1.433209458615692378e-01
2.003489881646065562e-01
1.642627407459724687e-01
2.312569092781255886e-01
2.632079077693866287e-01
2.433329491783598753e-01
2.791972841173824826e-01
3.956299139994567948e-01
5.009266262933007585e-01
4.653504159478961677e-01
5.613442208074503892e-01
6.344509926658341570e-01
7.719316998836160959e-01
7.914405116353198100e-01
8.220697571087853817e-01
9.116153492826329918e-01
1.007568972984209665e+00
1.077955016258509424e+00
1.189024838058486688e+00
1.182583789729694468e+00
1.246656517392004337e+00
1.266536396494204686e+00
1.289538369248973693e+00
1.279260096224979826e+00
1.338918217366820151e+00
1.327022852038419742e+00
1.335430041597432060e+00
1.234623488451088713e+00
1.195292427299247562e+00
1.161606441507186283e+00
1.044342732981774269e+00
9.856931225900379401e-01
9.940929107002345333e-01
9.206660873115649624e-01
7.621210311171888740e-01
6.468614709021163200e-01
6.570173365345390870e-01
5.510127633687571524e-01
5.253472073065653669e-01
4.246344426494401691e-01
3.724623047475065230e-01
3.386292650336628629e-01
3.074373662020932763e-01
2.519803283255434012e-01
2.565937722287673917e-01
2.000010299913526080e-01
2.012556387216484777e-01
1.517396481158738153e-01
9.731796348051952039e-02
8.376194466277053774e-02
1.214690520010984071e-01
1.091730751216982709e-01
1.513919417232210685e-01
9.577011926751632931e-02
8.889053874945859746e-02
1.608908619117001004e-01
1.096524056017945115e-01
1.314314870597431684e-01
1.206813335391741793e-01
1.074943380618793853e-01
1.081500779473332924e-01
1.730277708485699062e-01
1.559685654426485879e-01
1.568750190373685571e-01
1.302896895201652305e-01
1.996517155868990923e-01
1.600540197066677717e-01
1.524233094344598638e-01
1.857628009685167170e-01
2.018254546955846607e-01
1.831031518344474474e-01
1.604013893412820635e-01
2.360220242777649746e-01
1.769567241121046408e-01
1.914383721110124725e-01
1.472952631591387118e-01
2.066936922665412180e-01
2.530005966518619753e-01
2.077361866741235241e-01
2.000123301279393973e-01
1.407114766030095054e-01
2.228611474093912248e-01
2.090843584493626006e-01
2.146311301537884297e-01
2.031606052471267576e-01
2.109747886415933027e-01
2.698165086376514976e-01
2.244831657418767668e-01
2.209993181551001273e-01
2.331881559084169053e-01
2.542783233219737538e-01
2.359123539696671157e-01
1.357945093983131402e-01
2.166508566358910648e-01
1.765457046696397303e-01
1.475481764307668697e-01
1.897281173542940125e-01
2.242982615210374342e-01
1.844337628882740943e-01
1.430941449769191909e-01
2.206141056519119181e-01
2.055614594006874296e-01
1.964642724287133380e-01
1.842739404501271272e-01
1.800798404558919819e-01
2.183370563515237839e-01
2.292594873247036369e-01
2.092312719422689815e-01
1.314906521050527577e-01
1.732698673221520214e-01
1.703397414235964802e-01
1.412051863325117507e-01
1.186409569113401064e-01
1.736531928022707338e-01
1.183577377656936797e-01
1.336753084047845319e-01
1.645822232292775689e-01
1.027673322030821235e-01
1.069741242266991771e-01
8.364497660984651639e-02
1.175976173889528575e-01
1.079470827607382777e-01
4.028621857219558122e-02
1.121755598752443572e-01
6.787295267960216649e-02
8.647631568722724538e-02
2.239269422621355948e-02
6.251042129123314528e-02
8.270701751648915079e-02
6.585754569555736515e-02
7.678329785324841672e-02
4.634224755983155919e-02
5.172718793404115084e-02
1.142209097438399990e-02
4.678162603655981744e-02
1.112760602885217581e-02
4.248568851924440504e-02
3.304280648014452232e-02
4.092975793321317751e-02
9.669853432994205550e-03
5.017160201212028658e-02
3.507663212480467002e-02
7.666882034550168146e-03
1.395193831025713649e-02
-3.172238182702710740e-02
3.769569188226870593e-02
-3.438685376796330601e-03
-5.899970866579035134e-03
-1.445247604976079153e-02
-6.382523741857548671e-03
-8.656346731647411585e-03
-1.542209077406203263e-02
-3.284012885926577974e-02
-1.378590068048197309e-02
1.111391074128263712e-02
3.620280153239811838e-02
1.432716946658107310e-02
6.078558167553170521e-03
-1.734413687904676205e-02
2.248985824659330973e-02
1.270535772509272937e-02
-1.176587951236297835e-02
-7.561860348373517643e-03
2.444737833986190129e-02
-3.651093436484637023e-02
-2.123829324606756053e-02
2.519090454701255338e-02
-1.688666819256303547e-02
-2.835731037813617184e-02
-3.286126683038726598e-03
6.924167022340423083e-03
-2.402132500798691978e-03
2.205138907502223258e-02
-1.484985478820452509e-02
2.662142867273974839e-02
2.654874382605287159e-02
3.374560023262289377e-02
4.134920856198905093e-02
2.383668056962024231e-02
-1.352547758612604803e-02
3.473824312593333519e-02
3.127692911223307892e-02
1.266855349569180333e-01
3.064735577049586615e-02
1.604521768839108076e-03
3.864572762532957062e-02
-1.008089995745884218e-02
5.567886038024619233e-02
8.860213040210612734e-02
1.018420271927464177e-01
9.100175176789696008e-02
1.174188598450861126e-01
9.242229811185458110e-02
6.911883390356689250e-02
9.711124776510679513e-02
1.427360500203622429e-01
8.649000679950763493e-02
6.850349134998164058e-02
8.592199935612221395e-02
1.617074560763545332e-01
1.209561523890717027e-01
1.612409582545648312e-01
1.046618089727336942e-01
7.809225450794192447e-02
1.726842626155866145e-01
1.384965294411403258e-01
1.477337932453463842e-01
1.602845308511750000e-01
9.687852366495412759e-02
1.305528434103192803e-01
1.296958443013931928e-01
1.300211920026548007e-01
1.397185018431719439e-01
1.512301073926730355e-01
1.450444207022897336e-01
1.185836035362392710e-01
1.582112696806754204e-01
1.243176333389469368e-01
1.542314316109423822e-01
1.422146051405775991e-01
1.852115993083103818e-01
1.702261946722631036e-01
1.593113736257063540e-01
1.843217153464299096e-01
2.014074607177718801e-01
2.387011379748724405e-01
3.094956133491944539e-01
2.974158285183234329e-01
3.834342313089492138e-01
3.987849203471578452e-01
4.596937093411644915e-01
4.883624772574152173e-01
5.763860544239779449e-01
5.803960916047243845e-01
7.183949278179582176e-01
7.882133123988445123e-01
9.376824008735380467e-01
9.784091920393582775e-01
1.028165287211837420e+00
1.072571025042988291e+00
1.152451390276957088e+00
1.195823515848225327e+00
1.227418246580865846e+00
1.321939492312168341e+00
1.284939214282865505e+00
1.345085799881300170e+00
1.381213495674582958e+00
1.352647237615712372e+00
1.298014591617424607e+00
1.270687299453227004e+00
1.252510191545178175e+00
1.168598708275771614e+00
1.098024798093562460e+00
1.029849745372380720e+00
9.625090773818824053e-01
8.795517189199236752e-01
8.821127436704395697e-01
7.653714118365795294e-01
6.936699111946439400e-01
5.862642477004119668e-01
5.141672987955930862e-01
4.680808483736013104e-01
4.350568328407807273e-01
3.529983267359338983e-01
3.294189638906035444e-01
2.856290014939484867e-01
2.608830365895855041e-01
2.720456340144843388e-01
1.594604333281996744e-01
1.734390955953832858e-01
2.003153098707398105e-01
1.351338220882007113e-01
1.717942402862556728e-01
1.359786471369784089e-01
1.327392602945361155e-01
1.761023585663079871e-01
1.402743665023457043e-01
2.088475933063664858e-01
1.976890163812443091e-01
1.529933639732018180e-01
1.719098743694901232e-01
1.860403934822895400e-01
2.070715779946053492e-01
1.773756009816498946e-01
1.972669339120293741e-01
1.276203223855031932e-01
2.478120372086438650e-01
2.039355325341794256e-01
2.311176372461072048e-01
2.564999353806237670e-01
1.525832456982534613e-01
2.290247715199383027e-01
1.964414294229216429e-01
2.154985987995517993e-01
1.891165181633306380e-01
2.065243819974572348e-01
2.370203590481474720e-01
2.455055121483112890e-01
2.455792896100990885e-01
2.085012339677700943e-01
2.056209326605354104e-01
2.570314018386967159e-01
2.947387824522384459e-01
2.580529709705875474e-01
2.900060668728961510e-01
2.681649543222955900e-01
2.415040516728484687e-01
2.798203394369533359e-01
3.046725041460370820e-01
2.635794842384429071e-01
2.658169069909870896e-01
2.357525637011093911e-01
2.665711576136076677e-01
2.587381508811269493e-01
2.497639342200397294e-01
2.631735987620761885e-01
2.435983136492026468e-01
2.414125628515274846e-01
2.264200266909584813e-01
2.123182033341647068e-01
2.080661696373135028e-01
2.564039382535887590e-01
2.686938602406255261e-01
2.560926341950043317e-01
2.338837960266184901e-01
2.380977005153838699e-01
2.204424002323682741e-01
2.341410194264537670e-01
2.590650360385761686e-01
2.057905206882219840e-01
2.219900860308159085e-01
1.604907672903616300e-01
2.303345484832510781e-01
1.527423690162232062e-01
1.281706048685084254e-01
1.675212815717490866e-01
1.709246034422610416e-01
1.789460897629559788e-01
1.696138033781546262e-01
1.386382510325247508e-01
1.731802178042896323e-01
1.590698599017111026e-01
1.640432044238117892e-01
1.026133872416481324e-01
1.317656832902273367e-01
1.359201662558209844e-01
1.416727472764854889e-01
9.660714657776264813e-02
1.209932690483436629e-01
1.132115417715806316e-01
1.746606714739598887e-01
5.121666741797822192e-02
6.498436390452219658e-02
1.230964046185522437e-01
1.076432459682701154e-01
6.753803088279941580e-02
1.557426280060863200e-01
7.139499327555574870e-02
6.998019882518896617e-02
6.395972814455927469e-02
1.092798045941566210e-01
9.147435498577445590e-02
5.915950479654440153e-02
9.153413795510448314e-02
7.274281925496378642e-02
2.544354193834540492e-02
8.876342349453428260e-02
1.596288205400203941e-01
7.440145485058768937e-02
8.365238221457910184e-02
4.922723634986849589e-02
7.370032063968062763e-02
7.602394115040583822e-02
5.749075793189972750e-02
1.981101548580520982e-02
7.507547572768437372e-02
4.597903777089107358e-02
7.283367572616786245e-02
1.221528229861383874e-01
3.297387932730757448e-02
5.139979775903635861e-02
5.078195892882921003e-02
9.474400185517754813e-02
4.046994106419390946e-02
5.285358901014951954e-02
8.218877358277121292e-02
2.680809477116705836e-02
5.588036616405693546e-02
3.533895348361663913e-02
6.697159684845435668e-02
2.549623753323018022e-02
3.159770609484341408e-02
6.935258771780807019e-02
6.672723515241128778e-02
6.117522750060422343e-02
7.668703954602971995e-02
7.540241383716576873e-02
4.432374316175390072e-02
6.116868929987324260e-02
7.492855830030606401e-02
1.410236530561516655e-01
8.828020138645181758e-02
1.169883065435215058e-01
6.926310945784802664e-02
9.499767530390532122e-02
9.412729703585294427e-02
7.841775156052331608e-02
1.566069688482623901e-01
1.115412867992446044e-01
1.296053975724467400e-01
8.416716397998574850e-02
1.101641468909440452e-01
1.223239727362346596e-01
1.555385723656050323e-01
1.611574987175633245e-01
1.809884194506059807e-01
1.604716410771441226e-01
1.467049576561776925e-01
1.355015852141026600e-01
1.607994297033119024e-01
2.136479103173284655e-01
1.477858303730139322e-01
1.533091651081516793e-01
1.740679125881708367e-01
1.890007331806100033e-01
2.025268236741282479e-01
2.021050109518946758e-01
2.271776525717768558e-01
1.654235495181622939e-01
1.523361824640292184e-01
1.940086435359587302e-01
1.974942851525003928e-01
1.685907543884694326e-01
1.954341930428375174e-01
1.492759674805844428e-01
2.577919949653106890e-01
1.727510981495269660e-01
2.123525145752800380e-01
1.998977606256086559e-01
1.807460307998837445e-01
2.065820877458836580e-01
1.933837370943612965e-01
1.743100387011331243e-01
2.259882973223282798e-01
2.780710558092238105e-01
3.076973304268695308e-01
2.386532695990395969e-01
3.155200702561177240e-01
3.517360429736208771e-01
4.028348891779702234e-01
4.215469728682315065e-01
4.595045966156827699e-01
4.937930406932983796e-01
5.787761990682049884e-01
6.621731021306689335e-01
7.080061151171211931e-01
7.565979537663114485e-01
8.305728730685675298e-01
9.137588052906956415e-01
1.023287008379915042e+00
1.108482341388414394e+00
1.139147910431142385e+00
1.197819998477702486e+00
1.218614485735077357e+00
1.299605868110448315e+00
1.362759757008120243e+00
1.421604116046332411e+00
1.396659133626358962e+00
1.422934676172928903e+00
1.412160440273542816e+00
1.413069550560296150e+00
1.407120907897509543e+00
1.305404976604719103e+00
1.247928111685856489e+00
1.201373719957288033e+00
1.122693448196030452e+00
1.063379087766775255e+00
9.917255523068133627e-01
9.102746373846406502e-01
8.358803599485125080e-01
7.734571167448153206e-01
6.691699794172430993e-01
5.293528652451235939e-01
5.292090235611686122e-01
4.755930704189383906e-01
4.293759521368767373e-01
3.998587601368829847e-01
3.638289980802982271e-01
3.203147274270589095e-01
2.759855594414020175e-01
2.744624591316564555e-01
2.222389450926521015e-01
2.247103400750659064e-01
2.038583851794405211e-01
2.339253575062822665e-01
2.110277920231885540e-01
1.494755669419363664e-01
1.983237710633012907e-01
1.566237987393087339e-01
2.326287124680399276e-01
2.155130480856524422e-01
2.452888657481144263e-01
2.198120138555522685e-01
2.895899741732179677e-01
2.102516337124362145e-01
2.833051174642636783e-01
2.139474331859094469e-01
2.690232117581575211e-01
2.338808799300602370e-01
2.666529036320896551e-01
2.272396194868660513e-01
2.960911419007384859e-01
2.331388903764206877e-01
2.781962532454482773e-01
2.405372031826427115e-01
2.746780211449863507e-01
2.925146012020716779e-01
2.639375804213179855e-01
2.919204661062598793e-01
3.065010641216685539e-01
2.808021687147180256e-01
2.557593068970948069e-01
3.344725552510212085e-01
3.027724847333451152e-01
2.871296129550613419e-01
3.077134377044590807e-01
3.447404448638785035e-01
2.618813487210187585e-01
2.797092772659625637e-01
2.842850889652991375e-01
2.990640033430247424e-01
3.078464451835735138e-01
2.551036419155098267e-01
3.078369058091682819e-01
3.148839954585889167e-01
3.018450597262529733e-01
2.234627497960620379e-01
3.081868664260549173e-01
2.516810717616299042e-01
2.581526733835146081e-01
2.808768523524941552e-01
3.067583341683809972e-01
3.116114732063735571e-01
2.459168213972911798e-01
2.211200167873867695e-01
2.734166668627269203e-01
2.661071451634580143e-01
3.087849876099152402e-01
2.441841140032343649e-01
2.341901932421463495e-01
2.808017540282485847e-01
1.987464178082348765e-01
2.300564591139324933e-01
2.462599664607240668e-01
2.187515597449108118e-01
1.721304037449525870e-01
2.454890005998693614e-01
2.027279698944787212e-01
2.155911181161652146e-01
1.904574842677133339e-01
2.424540526272963570e-01
2.224365691526521138e-01
2.132507301246198972e-01
1.622574562921731411e-01
1.875350733716398266e-01
1.975447841755774703e-01
1.985973775743389291e-01
2.038744649819585197e-01
2.041602780304027642e-01
1.979658882178357282e-01
1.574901311545309768e-01
1.295222944243916152e-01
1.041379297679296823e-01
1.691777595843937387e-01
1.423833938119845877e-01
8.720689125857322699e-02
1.528910095841447825e-01
2.019103947346606309e-01
1.729947856885081237e-01
1.518471243221732325e-01
1.238313087927815637e-01
6.189121995124888254e-02
2.100763636161859932e-02
1.025731553331327706e-01
8.815970665913910875e-02
1.478983081484715745e-01
9.899279061896890108e-02
6.832484355934882736e-02
1.238072962544172484e-01
9.481606440501119670e-02
8.743081526989929242e-02
1.260536921633725882e-01
9.088064982510971057e-02
1.055153429928272352e-01
4.473851941167437257e-02
6.885335436647468943e-02
3.470402910903112870e-02
3.998529144926019768e-02
7.978752939953145940e-02
1.238528286397707345e-01
1.098013243505719105e-01
4.405235035105556363e-02
8.026274607882341594e-02
1.105881570792507096e-01
6.920782979297981918e-02
1.463129198602594050e-01
7.145430515287881645e-02
9.111509920993188238e-02
6.801758794901785476e-02
8.046212902986490945e-02
5.354524734055236823e-02
7.599480117643585275e-02
4.649562161833236534e-02
9.705339260188547423e-02
3.682168452974932810e-02
6.474714779399515230e-02
1.081868720843526810e-01
1.078458858447665925e-01
8.573303359788732314e-02
1.181475252180397700e-01
5.810092470317262253e-02
9.791378389491642298e-02
8.994059387723410404e-02
1.500882140852310698e-01
1.171062572401817131e-01
1.234717515068394778e-01
1.382196278796629374e-01
1.382241051142704680e-01
1.397270823928258854e-01
1.323437849403843458e-01
1.680865236890443093e-01
1.179976806565825598e-01
1.313613700364619774e-01
1.735531979074664555e-01
9.240038030071276443e-02
1.850486346542613847e-01
1.740679042497917384e-01
1.203401785748792197e-01
1.639623448425283070e-01
1.679590408682873348e-01
1.389083437244512109e-01
2.164460500856317804e-01
1.868122501426817128e-01
1.929584997316242667e-01
1.587616645628232293e-01
1.778860152916106330e-01
1.705410678454264417e-01
2.057855998999472968e-01
2.238867109517156118e-01
1.614591549337487109e-01
2.362569958416660398e-01
2.161559610757769201e-01
1.851330765243537346e-01
2.280756266618308714e-01
2.321398006998975361e-01
1.672755917952386817e-01
2.505467688119104031e-01
2.387007574613728422e-01
1.964915460424241089e-01
1.297670525869436264e-01
2.346270368382356586e-01
1.661043642154848010e-01
1.705959408875492578e-01
2.353270670286810029e-01
2.556177498055386410e-01
1.976875263231303026e-01
1.851381223336477366e-01
1.947916801254428454e-01
2.764869107796949499e-01
2.819869767134585148e-01
3.568803297016458487e-01
3.623373380750077866e-01
4.142712969547828195e-01
4.196064568061532163e-01
5.283415704159761805e-01
5.579714705177896139e-01
6.465927883795767883e-01
6.651922605785479670e-01
7.949474773258898841e-01
8.368350642367520242e-01
8.940829762115251045e-01
9.740160522480180161e-01
1.019814590677896149e+00
1.142533239017595292e+00
1.217282529674319491e+00
1.235077961063688390e+00
1.329692278358634017e+00
1.360907781212060019e+00
1.399973053740094064e+00
1.395565921056258984e+00
1.415093897371984655e+00
1.403754810437008338e+00
1.399501339711894499e+00
1.355403388541925214e+00
1.330976548859308606e+00
1.337212504947017822e+00
1.247784898428314637e+00
1.112278718548043166e+00
1.048738938350350480e+00
9.907566001761289876e-01
8.959313614860142660e-01
8.212300364697550092e-01
7.761997052637873429e-01
6.710359058668865506e-01
6.636708254676674246e-01
5.854903376997713238e-01
4.405602824502509729e-01
4.444707434707661498e-01
3.784615473057784119e-01
3.692594314935808697e-01
3.152488456414233586e-01
2.958885081350777213e-01
3.012932248411861469e-01
2.499967373259377179e-01
2.397974193062355763e-01
1.792889831111064147e-01
1.969508922742410628e-01
2.045763923971737341e-01
2.192960753624778603e-01
2.113631903230813180e-01
1.678379610041183800e-01
2.352864729882433170e-01
1.980548131799892420e-01
2.977307707391048108e-01
2.003105006524867338e-01
2.271048403992271814e-01
1.812773711913964747e-01
1.330917115397864670e-01
2.004825744547024668e-01
1.844357324044420265e-01
1.972709985550251122e-01
2.112463940188700762e-01
2.658447420298295505e-01
2.292828510832445599e-01
2.342585166267890373e-01
2.124100801669213667e-01
2.252833977416317524e-01
2.026324608311795838e-01
2.776112723957081529e-01
2.582191704452339032e-01
2.949882280801385259e-01
2.237775344874226302e-01
2.930857652258695989e-01
2.267232570728593966e-01
2.845749927519298228e-01
2.611884666624406104e-01
3.023705571337748643e-01
2.378746885309576398e-01
3.206589643688647628e-01
2.547784483066851680e-01
2.928608860427662219e-01
2.537178411948753376e-01
2.717497082962925803e-01
2.754233107210751763e-01
2.899134630663838808e-01
2.769051693638605594e-01
3.043431468383405170e-01
3.172746228353835463e-01
2.336413864848141120e-01
2.714859092791243045e-01
2.822417400037727786e-01
3.385261272668660393e-01
3.100699344935122226e-01
2.748797828387238296e-01
2.283754371073941358e-01
2.120372477994663940e-01
2.224888571229005074e-01
2.781394639165893912e-01
2.414491197868871841e-01
2.551683318016519930e-01
2.463845960520919254e-01
2.573955944410880603e-01
1.796590711590223821e-01
2.246298292402605368e-01
2.321517219736665139e-01
1.988335032353823750e-01
2.395587778069824259e-01
2.546904464323005435e-01
2.530891245199766715e-01
1.888951076131817064e-01
1.097191778946096929e-01
2.198635470222153054e-01
1.856276665945830739e-01
1.829333785000162860e-01
1.416495591621245165e-01
1.526855450258220448e-01
1.612748501196291095e-01
1.579029560084956874e-01
1.116676419423701105e-01
1.039354205200040959e-01
1.763011923751363341e-01
8.196776110680906169e-02
1.429795048242982758e-01
1.063233186337821934e-01
1.160022253893500388e-01
1.409163653984466524e-01
1.318257637026004625e-01
1.001980311522568112e-01
1.311682067678916486e-01
1.141440188424641677e-01
9.894558165002154126e-02
8.706736199864845149e-02
1.271451630558238788e-01
8.019339104797225393e-02
4.464892056384014291e-02
4.928583255937112051e-02
7.514741019310335057e-02
1.163818614561683631e-02
7.640700562455446376e-02
1.505770550826029605e-02
2.288101104249529172e-02
8.084944948801717213e-02
7.748232361918851174e-02
1.480728271047400402e-02
7.755605517952603167e-02
4.380989619837896698e-02
2.454917363203899111e-02
3.944871622682535883e-02
2.677007878739217847e-02
3.633746859114945355e-02
6.129677278283610087e-02
3.910536360796284389e-02
5.423466358654072117e-02
4.987118330023312951e-02
5.991083392928255036e-02
1.589759058959233640e-02
-1.666186117663301727e-02
-2.009676537260760357e-02
5.029548301072310490e-02
1.084708924355064913e-02
1.066816033293557092e-02
5.417299916469648854e-03
5.025976609550722451e-02
8.313806131970540372e-03
1.691677246340754504e-02
2.625880031307572041e-02
7.611900168902002717e-02
7.755564072643784945e-02
8.278234885078258887e-02
8.685878209981021114e-02
1.283390044499098104e-01
4.380933658235162953e-02
6.802582974634255319e-02
4.898368385760130950e-02
3.334900526924619579e-02
-1.218376515071419378e-02
5.393985071024528372e-02
9.817377107809023562e-02
2.971004962706091587e-02
7.917208037712245017e-02
6.526486968195335803e-02
1.321323169358421812e-01
1.250188422725810322e-01
1.112956669842262991e-01
8.688251661399269687e-02
1.389909852076268715e-01
8.357863605423640485e-02
1.039741568778998065e-01
8.965000197003818172e-02
9.236127662599773191e-02
1.752122087250926608e-01
1.267087024911198734e-01
1.234865939469048240e-01
5.786405564579867600e-02
1.354631703076676907e-01
1.718041658278961770e-01
1.647146151716315232e-01
1.672710967546925109e-01
1.780924784807239591e-01
1.472575110670062415e-01
1.431916658922555707e-01
1.751763750894431426e-01
1.431319378393496600e-01
1.792686856498309500e-01
1.624987195568422527e-01
1.622561698650140383e-01
1.451820213800247283e-01
1.946868233914200164e-01
1.554999573281088954e-01
1.936048903900537965e-01
1.965669571427703377e-01
1.802965141560929907e-01
1.357942200620273487e-01
2.055058541856069343e-01
1.895382767137041014e-01
1.574356612274629419e-01
1.837662724477518161e-01
1.186457377366203769e-01
2.181412672806424258e-01
1.758079274447522100e-01
2.816592252752399550e-01
3.013485228550019102e-01
2.872751507413956462e-01
2.787231221683262872e-01
3.285493607934494298e-01
3.217775387541202958e-01
4.626263170124815249e-01
4.400642526735936699e-01
5.798625434387798538e-01
6.812052270221670147e-01
7.673572223221343247e-01
8.229992143992788112e-01
8.410887328540560537e-01
9.246608553070638781e-01
9.522934723334653961e-01
1.094970195968685722e+00
1.149115554010530005e+00
1.206573859135280147e+00
1.265682739258927381e+00
1.255095047627993177e+00
1.285025931946660371e+00
1.346210196552343197e+00
1.397987149739411850e+00
1.305169336480368925e+00
1.382065580018451811e+00
1.301389210992109691e+00
1.268223379964458886e+00
1.227490131769224169e+00
1.221413941785464807e+00
1.067056189582356041e+00
1.032485468069499035e+00
9.831117325173032162e-01
8.632932413827886231e-01
7.865978173015545361e-01
6.973456754717419770e-01
6.083462676472363162e-01
5.753222936441976243e-01
5.149624814250892690e-01
4.606398872108045661e-01
4.117432192052961626e-01
3.837634960887931213e-01
3.311619514950322474e-01
3.145444163660874315e-01
2.497945173340294645e-01
2.392505897630748668e-01
2.037587658717234795e-01
1.391249515268973003e-01
1.672791027902642558e-01
1.980194615240103428e-01
1.368827026537455804e-01
9.207715694291467023e-02
1.194861588958505000e-01
1.530070145145589755e-01
1.330818393016176826e-01
1.905555318880418347e-01
1.516890788749138130e-01
1.614574236385485917e-01
1.052422144135713722e-01
1.218049692337677403e-01
1.513291946233486507e-01
1.265770924052653790e-01
1.685279354476086622e-01
1.628181219399548185e-01
2.283325668086399474e-01
1.766503461726810775e-01
2.081957613234537985e-01
1.988186908266650343e-01
1.841478087047626333e-01
2.470438748824139996e-01
1.922382941200820594e-01
1.960991960832293990e-01
1.724237096245871681e-01
1.841371335313645996e-01
2.305351481180004380e-01
2.184245493175003272e-01
2.133031335045871280e-01
2.386806269774190414e-01
2.201027179245340082e-01
2.797440472806202449e-01
1.936505613838799267e-01
1.620633484373536215e-01
2.129935893838172389e-01
2.912330784838820796e-01
2.203806439387515359e-01
2.903228499596051670e-01
2.142607340297438545e-01
2.613179333377115277e-01
2.406535275244786054e-01
1.968893706319495285e-01
2.323217619023644209e-01
2.696515006322943164e-01
2.104975400130260910e-01
2.522310715648676815e-01
2.247228269414675017e-01
2.028894892122361238e-01
1.648812453170266923e-01
1.880613491468106080e-01
2.043733405482689169e-01
2.388848237335745583e-01
1.857658100957016167e-01
2.246519612780752129e-01
1.601238034266226351e-01
1.915737740487047369e-01
1.434900202132829705e-01
1.978578998537531553e-01
1.615813875430335556e-01
2.127171425469837618e-01
1.378424544646688343e-01
1.108467336900073735e-01
1.382101780296223770e-01
1.602938207648061386e-01
1.338799919814173955e-01
1.142510819320092796e-01
1.269585536125651948e-01
1.227830969970381686e-01
9.196336951137283611e-02
1.738614366774146880e-01
5.732071997351480264e-02
1.331351533632257889e-01
8.473794478957315246e-02
1.384692310984665109e-01
1.184996983570072715e-01
4.550258666375600614e-02
2.896249520497391067e-02
4.519615874696437247e-02
5.664752052979293157e-02
4.427355384637778057e-02
8.927540436722354589e-02
9.157099632383819410e-02
7.969868369628334281e-02
6.606276283568492114e-02
5.348488683808653998e-02
6.823326291933337617e-02
6.049926407041453236e-02
-2.162130807037869473e-02
2.361680343991730269e-02
-4.452557597913737314e-02
4.459948220577356764e-02
4.066480586929636237e-02
-3.211953923136997430e-03
1.825230289759474656e-02
8.385025702150258886e-04
2.064179431910738438e-02
-2.753520545733921521e-02
1.584548607559987943e-02
-2.819279623491236300e-02
9.111517131845839335e-03
-3.949305252637200225e-02
-8.504688676204137654e-03
-3.967664460099656204e-02
-2.412696566159268016e-02
-2.079226416603069394e-02
-3.599724643843166261e-02
-1.497951006439957045e-03
-5.037906834310071358e-02
-4.225589615983589564e-02
-2.076749027178532991e-03
-2.304768117951890710e-02
9.944518644488239967e-03
-4.857714234623552313e-03
7.766226836774361986e-02
-2.181413394471712341e-03
-5.202322383714455545e-02
-1.058991863162080799e-02
-1.131219821343685400e-02
-1.776876864125892519e-03
-1.032671978530975976e-02
-1.971104292203442951e-02
-2.648556906425863708e-02
-5.447521835283984648e-03
-6.465184531403483925e-02
-3.731438214648805096e-02
8.106821885304232866e-03
1.816031468980852659e-02
2.047975568327641688e-02
-4.247677583939554746e-03
-2.526937881026986715e-02
4.398773121897096156e-02
9.809251652167366720e-03
1.838247383713033367e-02
3.765240879403621010e-02
6.297765820132153469e-02
2.867634296103246244e-02
6.860946841783523154e-02
8.283756296717602330e-02
2.688690697778243349e-02
5.790915448300953949e-02
8.264520876795608539e-02
7.695561514914175949e-02
1.175618381612967694e-01
3.233719200626086754e-02
6.420505848345754718e-02
5.931883382267648386e-02
1.045146248945878487e-01
3.197709521785992853e-02
5.799905865833152041e-02
9.017280954264243753e-02
7.493742359964467026e-02
7.912628747203069579e-02
7.027464799031114817e-02
9.573235804260565862e-02
8.695571428497506083e-02
8.096844252288444566e-02
1.431365772654816793e-01
1.143125935260760756e-01
6.925385937551904736e-02
1.084192263185217164e-01
1.338108012738162544e-01
1.130107798366448424e-01
8.471805753540626038e-02
8.902364781700414231e-02
7.463052693405489157e-02
7.724483717580353515e-02
9.602329998905459463e-02
1.372931856129870898e-01
1.531475252370752826e-01
1.351809170642538638e-01
1.216138170845111333e-01
1.033082294592604644e-01
1.228499925496056855e-01
1.141535431697002501e-01
1.346665850103755113e-01
1.644443208828172409e-01
2.676860094751598584e-01
2.237179229475696474e-01
2.334167574692321556e-01
2.682863950830856048e-01
3.295718140746490832e-01
3.793150136011171902e-01
4.178425731417019229e-01
5.039640414607962082e-01
5.357092516288501916e-01
6.097872390450678193e-01
7.379250980238061253e-01
7.861161002825178823e-01
8.604531653480302911e-01
9.163497245889055121e-01
9.840020645631217810e-01
1.088075610849065455e+00
1.058033489942155736e+00
1.181008560324894319e+00
1.226263451743739630e+00
1.330389303262445644e+00
1.292317456130170239e+00
1.294063066148853913e+00
1.374382100512481886e+00
1.306833257855190222e+00
1.261653311959576751e+00
1.264111382114047277e+00
1.235067451366395730e+00
1.159266789268270870e+00
1.092574213636341218e+00
1.006030145451347613e+00
9.227961760467007224e-01
8.184429720672516950e-01
8.004928422147250533e-01
6.860079058891640491e-01
6.159793784205656042e-01
5.828548751966509123e-01
4.964836734289690967e-01
4.159892267903420038e-01
3.672849835352723913e-01
3.387869292074185412e-01
2.178895886806724025e-01
2.362272806831806904e-01
1.651038588712391564e-01
1.869114400210153404e-01
1.393912003043169534e-01
1.152394683391444186e-01
1.386227607144329965e-01
7.427354388213047720e-02
1.020729851926495402e-01
1.394374101880029859e-01
1.179811725306944559e-01
6.717432160960182252e-02
7.461968036072284816e-02
9.609412197869388050e-02
1.259212721229621135e-01
8.434825146050139999e-02
1.735772459222616748e-01
1.071039965951158246e-01
1.162664953949017199e-01
1.083146890927187134e-01
9.112022663021626667e-02
2.133223583966506742e-01
1.635632944516818010e-01
1.680270751178374045e-01
1.375461166716085426e-01
1.854594729373923445e-01
1.506956864421117037e-01
1.279290339939078147e-01
2.240496101008102869e-01
1.939422535599232555e-01
1.738537825880520638e-01
1.776607847005510221e-01
1.988827379817842134e-01
1.565274127464118259e-01
1.613129050147369681e-01
1.773427149112171419e-01
1.954213313067846847e-01
1.786622258257503648e-01
1.686693201477239834e-01
1.677741410724279403e-01
2.075595344662231889e-01
1.926227576745734305e-01
2.143478550877589428e-01
2.344391720091365261e-01
2.662142369702091282e-01
2.149782736173695141e-01
2.108173267830262820e-01
2.454689928324420845e-01
2.087262741138375122e-01
2.091392403373375231e-01
1.772263247995804480e-01
1.695037693832420478e-01
2.238970166862486177e-01
1.330454129495867166e-01
1.920926196716663537e-01
2.010461443598858533e-01
2.045854988638462213e-01
1.751466214574026736e-01
2.096016245238815356e-01
1.583482908673314871e-01
1.890701833671353249e-01
1.448195082379530318e-01
1.604903444012579505e-01
1.604958006166911366e-01
1.885573401127139392e-01
2.311967532303131623e-01
1.685154922432652580e-01
2.036079006094516641e-01
1.732388989300073512e-01
1.672845574067692298e-01
1.231943093965479491e-01
7.346533258958437562e-02
8.966407037925194778e-02
1.194093359359832823e-01
9.195549238335573583e-02
3.846581324423419684e-02
8.730808083938665365e-02
1.499103867074391971e-01
4.175903946097991870e-02
7.377978173424987185e-02
5.041363638176780265e-02
9.277344867727016497e-02
6.053986132055452773e-02
6.121559219848463074e-02
5.066035881770485083e-02
7.135278446853821066e-02
6.267066046303201854e-02
1.381307843330516899e-02
4.101737557290675157e-02
2.350091969547032228e-02
1.315458030313992888e-02
6.924010975559009851e-03
1.385889301931511608e-02
3.550334939496002651e-02
4.082573787118316117e-02
2.374037399269014748e-02
5.397417495336466475e-02
2.396869991432797053e-02
3.293840698181310644e-03
-3.475696819563139917e-03
2.484800415658557082e-02
-2.727387229506096980e-02
-6.566150289517126704e-02
3.774218125353803049e-02
-3.608305076060663863e-03
-3.244828310993760900e-02
-2.731421251631509575e-02
-1.222352126689188467e-02
-7.354420559134940139e-03
-1.440454650312328888e-01
6.062895013089993068e-03
-3.737403240339211286e-02
-3.911503887864576506e-02
-8.945385886250459273e-02
-1.142832221811493076e-01
-4.991566365172898923e-02
-2.112076265164048935e-02
7.240615637132068183e-03
-3.585657563128252789e-02
2.834324333833856957e-02
-5.024269889839244607e-02
3.350799165544787045e-02
-2.089445508844556612e-02
2.734888460358330525e-02
-4.146310966461007330e-02
2.244028590204692752e-03
-2.353408485542069287e-02
-3.575128330475086519e-02
-1.476563780517385627e-02
-1.571156767575502405e-02
5.938694382434227259e-02
9.583580546925485333e-04
5.205571832212418926e-02
3.767101048677740094e-02
8.243948234546030762e-02
-2.027574576171753407e-03
-2.900192225771232313e-02
1.020047160992411384e-02
-1.885367355969416389e-02
5.011636738947806285e-02
4.429522338450125191e-02
7.264604670652262397e-02
2.286436135027589134e-03
6.233049075014217982e-02
3.193147841193461067e-02
7.395452849580291810e-02
4.573806972983435887e-02
1.031255406680479381e-01
6.650953721635664839e-02
9.144935061773165619e-02
4.247090798212899143e-02
7.570999082678432635e-02
4.607503073975291463e-02
6.264419634197562758e-03
6.256034172921914882e-02
9.925315595066988572e-02
5.426280373857542833e-02
6.424325755847670738e-02
7.012514258664691302e-02
1.262915094454061804e-01
1.056741991792115309e-01
1.286289361948691756e-01
9.144429031665346486e-02
1.362354511515756483e-01
1.035266671376523784e-01
9.729458145975652950e-02
1.224507645364599495e-01
1.366567857678637199e-01
7.754183086872493136e-02
1.441896117463399851e-01
9.532456031225786108e-02
1.051092016509688476e-01
1.189541228742930778e-01
1.474026708296732879e-01
1.276138353272388559e-01
1.189715616102274276e-01
1.394564682427597013e-01
9.391606943258280771e-02
1.583567098658056338e-01
1.606091239314179075e-01
1.608617385793810195e-01
1.374201620508459787e-01
2.507813825791065931e-01
1.683906155335419819e-01
2.538986626277308090e-01
3.274507447362688950e-01
3.170148186004635993e-01
4.148136680197606063e-01
4.050855613435353497e-01
4.936957538488595532e-01
5.773885356597435736e-01
6.948113253397888434e-01
7.002030734227753239e-01
7.321240607045836901e-01
8.117001393966650769e-01
9.212532509455129137e-01
9.712870304923721942e-01
1.058490735352948242e+00
1.157509092310258447e+00
1.205801890181040337e+00
1.255343560349466925e+00
1.283405912615065203e+00
1.264571389669793877e+00
1.281298686306187928e+00
1.368198316309538587e+00
1.385452380745332279e+00
1.293618686882780144e+00
1.225020157318550629e+00
1.199940140761267982e+00
1.155823959053376315e+00
1.060295814799408376e+00
1.037878189251600913e+00
9.598363164014966920e-01
9.056843753532549668e-01
7.981335788232621908e-01
7.865718531567570393e-01
6.051728416471041649e-01
6.135989325954154250e-01
5.469947788464278871e-01
4.020979826082549669e-01
4.310867178746650707e-01
2.855492210824934207e-01
3.127690293375207653e-01
2.677880045205936477e-01
2.035527242336681308e-01
1.905072525714527898e-01
2.236497225254226451e-01
1.483086838322768275e-01
1.915166747260217128e-01
1.426610839023695343e-01
1.424352814819978275e-01
1.704350328111381430e-01
1.088478673784639000e-01
9.022855269010032764e-02
8.908449160322937099e-02
1.171639461579683517e-01
8.970882090767826056e-02
1.068312054643433817e-01
6.908123778129796055e-02
1.429974712912276125e-01
1.579552981741362827e-01
1.619698440600766953e-01
1.536681048980701458e-01
1.834448274408827795e-01
1.677853860314368617e-01
1.587854581122601361e-01
2.200761460892049770e-01
1.121006605821283919e-01
1.682086508290288329e-01
2.237853836256185613e-01
1.818142074039899025e-01
2.841513353445210832e-01
2.090017516417055077e-01
1.986287016053347732e-01
1.875046029003843151e-01
2.324377408796661770e-01
1.814801051024842182e-01
2.391314810996193196e-01
2.217673876309754211e-01
1.608826303333758256e-01
2.223851424551585576e-01
2.107156265420457864e-01
2.272509699191405108e-01
2.169872913017803495e-01
2.083118783468499435e-01
2.708987846941856015e-01
2.283750766032885127e-01
2.180399503113594206e-01
2.240818992526928677e-01
2.076834245895714526e-01
2.124181821397030656e-01
1.990982897513378092e-01
2.547709324248168539e-01
2.304821638430351594e-01
2.239701815763024961e-01
1.985646857373299101e-01
1.891831422320676692e-01
1.904388071218713896e-01
2.012522259133565361e-01
2.164665242448241822e-01
1.825432280638386029e-01
2.167088802095692990e-01
2.026795082657738001e-01
1.584835468525251923e-01
2.185860435410242886e-01
2.018594082890256269e-01
2.188683370088551905e-01
1.703736079894349886e-01
1.789637715747635638e-01
2.344622761361280783e-01
1.305494927887083934e-01
1.754327666215601544e-01
1.632224141516442351e-01
1.654406052394615523e-01
1.503308363811750314e-01
1.330598527901672712e-01
1.106590843125077606e-01
1.649131028700339674e-01
1.384865578687930754e-01
1.106690265295771358e-01
6.256820580383029573e-02
1.206736221663184672e-01
1.129615368605156461e-01
5.534928063504877815e-02
2.619421269809094760e-02
1.092984595160102212e-01
7.228640472592789967e-02
7.666008382018835166e-02
6.477101513269256650e-02
6.289168900721074651e-02
9.509607292399625822e-02
7.612208878771541121e-02
5.702693151560783019e-02
3.968840507922331839e-02
8.100740838368580832e-02
7.594187337961372242e-02
4.681995007925185415e-02
5.843740026544434751e-02
-1.014234675280703026e-02
1.073626949922538640e-02
3.518055436150059612e-02
1.763981732031084243e-02
2.355447776644491870e-02
5.752273993132016316e-02
-5.731065539993689117e-03
4.621676831200217245e-02
4.724774247433469188e-02
1.564507654296508343e-02
3.131365169301293661e-02
2.336665685114470634e-02
6.403224055477798465e-03
3.579409660249509989e-02
7.983907288831547377e-03
2.984553785043089769e-02
5.221147274493167373e-02
2.706971486914769298e-02
-1.353460748731441857e-02
-2.582345983749800844e-02
2.659774297236065788e-02
-1.286521382776090877e-02
-2.776978669722528908e-02
8.173031847673767336e-02
-7.037882910473663989e-03
-6.477222220774461747e-02
-8.556212453673614840e-03
-1.164271726220142411e-02
3.165597516098096059e-02
2.136212321105324455e-02
2.498190104529473404e-02
3.976445563297993646e-02
-2.730413271389969115e-02
4.547242085012975082e-02
3.951087643745978401e-02
6.326816828955772465e-02
3.500984400793303447e-02
2.689137703959473477e-02
1.448396157859058175e-02
1.870085520334586332e-02
1.683732018459051585e-02
2.694881899429607194e-02
3.600870544835380049e-02
3.858528958804343517e-02
8.889032102490232456e-02
9.274815405580420780e-02
5.144651731120745974e-02
7.066851361672621401e-02
9.756239198810598423e-02
6.735828590317261000e-02
9.877732399690132559e-02
2.282896506414260063e-02
9.803931905284475612e-02
6.649282860706998144e-02
1.432835675926966423e-01
1.108571905333867319e-01
1.368000608079162073e-01
1.157794127434953468e-01
1.184315706112993027e-01
1.471349278062107913e-01
1.722996904199089185e-01
1.087436463966247879e-01
1.526380849281401553e-01
1.816347312638964262e-01
1.682801578138346243e-01
8.847475552371809882e-02
1.447807653857445809e-01
1.230803632050302271e-01
1.454647381596063938e-01
1.296736370457530763e-01
1.724250947206882045e-01
1.484438122406363803e-01
1.450620451161111490e-01
1.459916317582478362e-01
1.323827543421854103e-01
1.651236004472669272e-01
1.468584300041917423e-01
1.534796427853143963e-01
9.674126458646302440e-02
1.709498143755823207e-01
1.186234889749150229e-01
1.918841071682124422e-01
1.521577680242736097e-01
2.422267678772464794e-01
2.445235258534128320e-01
2.176437203939433074e-01
1.687546939060799445e-01
2.446649742143796602e-01
2.774595687992246207e-01
3.103978367435718533e-01
3.800141648921577797e-01
3.872899166512736580e-01
4.923431740177345306e-01
5.369347154593143712e-01
6.211539567043585786e-01
6.481583576850183936e-01
7.667788950638991796e-01
8.241601105822049522e-01
9.089355723562667633e-01
9.758251475592095714e-01
1.009789379326221370e+00
1.077294516249391654e+00
1.200087045249180084e+00
1.265160310482317030e+00
1.316054895671171288e+00
1.287409844059733688e+00
1.354782232667518072e+00
1.350764352670667190e+00
1.361985501809481969e+00
1.332904859455163349e+00
1.402526350505983066e+00
1.335822331487710679e+00
1.335170906374932409e+00
1.215515655450704502e+00
1.184693160797420708e+00
1.112730612462744739e+00
9.895389160840196707e-01
9.258904201869543327e-01
8.643720348329163583e-01
8.383495204986103344e-01
6.689876797360652105e-01
6.807001319801690986e-01
6.000128213397180055e-01
5.428767483023224649e-01
4.477798913438083006e-01
3.770671103155961434e-01
3.516264914652755813e-01
2.533200936840718787e-01
2.804711116957604999e-01
2.856776784691794080e-01
2.266988986458866595e-01
2.627239989936693276e-01
2.154083237221746105e-01
1.726008903395142013e-01
1.933469202886818061e-01
2.049002452346975478e-01
1.753750816796815215e-01
1.784041829680765301e-01
1.896905857008999718e-01
9.578463162332362391e-02
1.848761193638041589e-01
1.453190209273903521e-01
1.910628309673737535e-01
1.895422180897154418e-01
1.862827802143954270e-01
1.750947850529118166e-01
2.174324431898053134e-01
2.054687807506188624e-01
2.118937927782207908e-01
2.230376971646434447e-01
2.004828759468103572e-01
2.006755176921418138e-01
2.277373045635657789e-01
2.517938347475749961e-01
2.572253816357925049e-01
2.441787045844935888e-01
2.402554584942761251e-01
3.162496510690446239e-01
2.585785650729245932e-01
2.193982847702515837e-01
2.765995836670005481e-01
3.363058343907243120e-01
2.132182195308439110e-01
2.421438885098489147e-01
2.965939861537151279e-01
2.945913992944461657e-01
2.613266738968758607e-01
3.543428889666101478e-01
2.575838964801316910e-01
2.921335969862133286e-01
2.543156308999932613e-01
3.179299273684005334e-01
2.657296022379833644e-01
2.747684786164218407e-01
2.500644910707324753e-01
2.399893636643539718e-01
2.873811808748107377e-01
3.022105868557632413e-01
2.215905240847933777e-01
2.833173575377552766e-01
3.144935331747326090e-01
2.715727072174609624e-01
2.801242200815699523e-01
2.881983751422840800e-01
2.959294777608507676e-01
2.484593393863437638e-01
2.614531571427050061e-01
2.916704148796099849e-01
2.716083382657624723e-01
2.782119533896207919e-01
2.335406993970951250e-01
1.913116455057761733e-01
2.421058513646420496e-01
2.254557790452776933e-01
2.530013346884676384e-01
2.206285348805483437e-01
2.193671642009357159e-01
2.601818178858171793e-01
2.288777321094813966e-01
1.280754193931771534e-01
2.146085764924853811e-01
2.430585856127535360e-01
1.450528891330097048e-01
1.347898986326606652e-01
1.283856937533840170e-01
1.223598485840844685e-01
1.802775769106700343e-01
1.699368722001334264e-01
1.414635093476251937e-01
1.444502764171399778e-01
1.737932810480402601e-01
1.144640744739131022e-01
1.207358082422513718e-01
1.154022426537524987e-01
1.144019831730787445e-01
1.690090838130290096e-01
1.170556959796059254e-01
8.952708860354682829e-02
1.020579744493636809e-01
1.381216260068424684e-01
5.562073918204064188e-02
1.201755358660944045e-01
6.676552465633288358e-02
5.719113761112135791e-02
4.776196212270353292e-02
7.333016491685248606e-02
8.097071217596414627e-02
7.549432538385834890e-02
8.566884657221909838e-02
7.680177013523122043e-02
9.253420367274756142e-02
7.735952075361757219e-02
1.245166363646244556e-01
1.103468945666499779e-01
4.542484973904799272e-02
7.997231818738699538e-02
8.398640076480815009e-02
1.066273423510201157e-01
2.387690542536979182e-02
6.080262923504189260e-02
8.178858927923131350e-02
8.644207841149328941e-02
9.217521715291190909e-02
8.780088778895780988e-02
7.527249308485078894e-02
7.147348044593068717e-02
4.237379384167188484e-02
9.082063030179146623e-02
5.983644862510435758e-02
2.399375581080886305e-02
9.181790755348810673e-02
3.190031494181103100e-02
2.999885960896251161e-02
7.523188868846625299e-02
3.767060660646393694e-02
8.155379220349284752e-02
1.014053767158050734e-01
2.881503764113326621e-02
2.518145459401158887e-02
6.620443083704082021e-02
7.562712952682477952e-02
6.198224198618849240e-02
8.432705194213366284e-02
1.110308135746609359e-01
7.116986215782106218e-02
8.491288304930905140e-02
1.389221560135648348e-01
8.760928986901576898e-02
9.669075128695300836e-02
1.397099927549936282e-01
1.053952536551494429e-01
1.191020330308207031e-01
1.369707956203558008e-01
1.762731212386485224e-01
1.717030341978630914e-01
1.954116823461365948e-01
1.577231360163172946e-01
1.743395486810403461e-01
1.778645668286517323e-01
1.471385690573074334e-01
1.436443204089080106e-01
1.626858020328647847e-01
2.107914472339595391e-01
2.132225443151368749e-01
1.626916359088188824e-01
2.125710208628939779e-01
2.482634345066248582e-01
1.594493710132647013e-01
2.530328642010271079e-01
2.219495312544433885e-01
1.994283095991817301e-01
1.684634148177270863e-01
1.784549654101093008e-01
2.148592352116673043e-01
1.939753145368871556e-01
1.962108456797564682e-01
2.111798483720862540e-01
1.946568682978281339e-01
2.142441097442119857e-01
1.820447050442572379e-01
2.390566147309728662e-01
1.681094442598087546e-01
2.159527069700893087e-01
2.049560083181026504e-01
2.560230923868909159e-01
2.540935431713527981e-01
2.316311560372314171e-01
2.815483860571533770e-01
3.055169923761301698e-01
2.908404619383461176e-01
3.540162788064589172e-01
3.359441675432134344e-01
3.714263869768145154e-01
4.339486153569636073e-01
4.956196101588608016e-01
5.789717702859127346e-01
6.474782008818100731e-01
6.522939909547944559e-01
7.284021616693264756e-01
7.733784787489126344e-01
8.814339457135930145e-01
1.014536023835150846e+00
1.091689778932899868e+00
1.138170399176884784e+00
1.192766683857888310e+00
1.257901420999363973e+00
1.353167589012573391e+00
1.359248826313730341e+00
1.425319840738836552e+00
1.335342527697564119e+00
1.397181941573796937e+00
1.398335031069221079e+00
1.412629262002451647e+00
1.429371787303034047e+00
1.304700419543179279e+00
1.316818094133623829e+00
1.270264195291397114e+00
1.150004499810508785e+00
1.041457019081487356e+00
9.244199298118639385e-01
9.121963247646990292e-01
8.185853238104927598e-01
7.767648404046402222e-01
6.422354044840181686e-01
6.706343164340835550e-01
5.233802545209961243e-01
4.257440288849548282e-01
4.051378215030884133e-01
4.083413151245410821e-01
3.119895710394667843e-01
3.687751699562589747e-01
2.923132093330384484e-01
2.763339664193641410e-01
2.510715497550049524e-01
2.068202163873545107e-01
2.668652907415126618e-01
2.106217296443900766e-01
1.549248278635255438e-01
1.830598156842752622e-01
1.920978821780197909e-01
1.897798284799232238e-01
1.495840423135476327e-01
1.788584192606458845e-01
2.377657476074422627e-01
2.217619425511549447e-01
2.646335697737429715e-01
2.056884438748272093e-01
2.280737776914077419e-01
2.617645387002671686e-01
2.067168749011872864e-01
2.042574396060512221e-01
2.194448640377092696e-01
2.768558494381745394e-01
3.034554510627529011e-01
2.341252866192909121e-01
2.292288081918129605e-01
2.431033546612026974e-01
3.376893431273775281e-01
2.974977084156691376e-01
2.632494630047979567e-01
2.539692250420446107e-01
3.095506848119606857e-01
2.830479929059778743e-01
3.169491005437479192e-01
2.972858221500637166e-01
3.250182239990138111e-01
