1.368820719580957412e+00
1.423263292115207301e+00
1.430234390977929815e+00
1.344823840911433255e+00
1.307348516013158823e+00
1.225457318435228871e+00
1.197808137398515216e+00
1.129365666144195757e+00
1.042522185370932997e+00
9.041058888732096399e-01
8.628659877464179839e-01
8.216254307890057396e-01
7.270301908858621820e-01
6.175690004120698573e-01
6.052603051271754353e-01
5.231149680395803525e-01
5.074170436692910791e-01
4.618912841152039706e-01
3.774745389052602818e-01
3.803264362366397533e-01
3.202838475920751771e-01
2.537071160848024531e-01
2.558729954609623158e-01
2.946411713502201657e-01
2.192557550590079618e-01
2.393265070512728687e-01
2.187344106080115480e-01
2.254428449121156364e-01
1.976390189027676658e-01
2.050172360597714016e-01
2.027614057993327168e-01
1.922618632784794390e-01
2.363955450673144165e-01
1.505514554113701053e-01
2.261466182158434757e-01
2.064894786577760877e-01
2.690173978379011843e-01
1.950566624691347783e-01
2.038047141232070536e-01
2.095694061149311616e-01
1.956746737943767522e-01
2.878367723011946433e-01
3.149658824126566614e-01
2.959341604520805968e-01
2.515731732780466245e-01
2.907420325957726925e-01
2.509566922303915204e-01
2.715574733931941931e-01
2.597542511661397602e-01
2.309999128968960591e-01
2.549737043813836701e-01
2.878942837305526470e-01
2.594845173526187931e-01
3.025190118257999883e-01
2.729397098461010529e-01
2.491597000306005061e-01
2.769076987765183850e-01
3.026074697976369188e-01
2.360597982869313827e-01
2.460930124725144441e-01
3.198083366292221452e-01
3.536080681336841725e-01
3.328429832346257999e-01
3.034700509565274040e-01
2.495150615221455870e-01
2.588735052356595512e-01
2.712672434569650681e-01
2.927737475807683509e-01
2.780849313215075780e-01
2.370281427948286168e-01
3.175038326907519415e-01
2.957654767168311771e-01
3.168971234137654691e-01
3.237857141716069531e-01
2.784276964507484964e-01
2.560575690036853702e-01
1.971416736868025488e-01
2.520702043645000612e-01
2.254154530961219038e-01
1.606566680658134683e-01
2.493263111440456592e-01
2.691538069523852217e-01
2.809128430730777337e-01
2.708535970750777788e-01
2.152439124496161316e-01
2.369052111080130196e-01
1.781816796496765165e-01
2.803047697088776324e-01
2.524723129212778083e-01
2.605892833215610604e-01
2.490128170553021214e-01
1.842254178615244653e-01
1.669898241450115117e-01
1.381781148032947826e-01
2.129833898960599714e-01
1.706424718466353352e-01
2.170085275105232969e-01
2.222800716257940790e-01
1.092113668167586649e-01
1.638596812892741672e-01
1.490516436721605331e-01
1.788861896513065097e-01
1.731727206205758152e-01
1.873982321997346157e-01
1.628547264029323594e-01
1.224693290470597051e-01
1.205954541881935210e-01
8.991882469601289452e-02
1.294989122411306370e-01
8.126642017989441080e-02
5.245978445030380355e-02
1.480446864428018594e-01
8.574254209567984397e-02
1.007969531868833368e-01
1.240955302752274891e-01
7.493743068303691801e-02
1.289654454043873966e-01
9.289235638835635633e-02
1.139320034827712158e-01
3.827360442656931039e-02
2.277932968057108654e-02
3.469052192573355425e-02
3.168058320203316625e-02
3.889068344227432361e-02
1.198233789845347119e-01
1.160805584908149307e-01
7.800815485925891024e-02
1.621739248413953116e-01
7.256261452096737785e-02
7.388483434079129442e-02
5.045835793118177981e-02
6.775735786064784882e-02
6.935979108769038670e-02
3.356693928390822035e-02
6.507428413744846540e-02
6.646983565745952227e-02
1.103294987246517256e-01
4.519702874122445702e-02
4.124080707710485461e-02
8.512999421066486105e-02
1.945899490103516344e-02
1.163263854777113471e-01
1.968924361665186362e-02
5.056570745793752264e-02
5.814124147928310254e-02
8.896810150391354366e-02
9.534480944735485020e-02
1.062296007078891436e-01
6.421511042539645997e-02
1.024829494332979707e-01
1.060272971364468741e-01
1.088454056929676755e-02
1.166119138578613906e-01
1.619884256394178990e-01
1.212313889611989770e-01
1.383600058871190808e-01
1.590202529367602258e-01
1.134038884248732143e-01
1.758501380697298222e-01
1.744414641204774241e-01
2.012613332863214255e-01
1.350728544301753875e-01
1.313537273270274086e-01
1.863264145889668988e-01
1.704625692430402628e-01
1.755822587157029879e-01
1.323074799137680668e-01
1.464153039742971674e-01
1.842921539577770940e-01
2.149132448141137242e-01
1.527202621442128594e-01
1.888014940525916674e-01
1.895388257978696533e-01
2.064458561038700624e-01
1.991884612830166212e-01
1.830806478710669816e-01
2.174104216091656827e-01
1.816408075854556159e-01
2.126028132029998130e-01
1.555583837475213449e-01
2.021734228489034946e-01
9.977297490484188236e-02
2.217787166925073439e-01
1.672903311558306960e-01
1.788510616662893626e-01
1.930915012993300872e-01
2.078420593710902931e-01
2.268142344614746675e-01
1.865757659189261619e-01
2.407302882610968253e-01
2.782072278231793594e-01
2.519576063325056348e-01
3.151993215175631358e-01
3.288748381325304337e-01
3.263241619722405673e-01
4.564469236351409442e-01
4.754521786653005400e-01
4.959260764324700532e-01
6.148971563082062941e-01
6.511012193875628240e-01
7.213062093608011427e-01
8.420849081955916748e-01
8.637655203223851830e-01
9.304050728868260567e-01
1.049490490536651333e+00
1.027212112877630146e+00
1.163810851311450234e+00
1.244093418929016925e+00
1.256668587100105539e+00
1.339049568561930581e+00
1.368328290765043587e+00
1.368745057213548000e+00
1.363821619178778421e+00
1.362288815769475470e+00
1.331833892636991035e+00
1.325522112941796227e+00
1.331142556220905382e+00
1.246558272287640934e+00
1.232750639755264555e+00
1.104119256182513942e+00
1.020603985455488250e+00
9.387288603746712923e-01
9.022372740486493958e-01
8.010317853691402146e-01
7.470329318217865389e-01
6.491134671396509015e-01
5.521529224774835987e-01
5.368855208048032290e-01
4.232086962633618277e-01
4.499271164781994403e-01
4.224402588737266040e-01
3.637116752229893613e-01
3.206255654489246210e-01
2.442605170178490659e-01
2.881652579938903669e-01
1.989187109793594532e-01
2.045413883618922013e-01
1.907994246419668083e-01
1.720936793015632460e-01
1.318847359663289920e-01
1.847596471095605819e-01
1.088343635141421073e-01
1.474612682041508138e-01
1.637943730213415605e-01
2.091850846553062748e-01
1.904755225578157463e-01
2.011785397376134599e-01
1.372541010687925167e-01
1.757681643125645066e-01
1.532033285913318998e-01
1.408824751819787169e-01
2.126080223392426971e-01
1.421195893600917526e-01
2.481901766423609823e-01
2.426731522528716156e-01
2.334394766446760139e-01
1.752059844472233230e-01
2.142873889723593828e-01
2.421783818304004132e-01
2.555540796752223121e-01
2.295186181607705711e-01
2.117994002378775498e-01
1.971852737925643140e-01
2.590409019504697485e-01
2.225434877849709614e-01
2.395999937717812889e-01
2.773774568277983521e-01
2.586229037990768753e-01
2.198298133329701365e-01
2.278949237994347399e-01
2.092076570288082804e-01
2.425006901028125272e-01
2.476781995022166172e-01
2.134843025633093583e-01
2.663687984506679651e-01
2.568857751327435213e-01
2.038172453992296018e-01
3.022900102729482175e-01
2.162481587466554556e-01
2.894360404015602906e-01
1.727577993713071414e-01
2.401691292374330822e-01
2.783903064949238559e-01
2.481887865537045212e-01
2.650007051007459702e-01
2.551518075003111341e-01
2.582021761546448024e-01
2.242595221145139150e-01
2.132186130736108409e-01
2.146602019702273101e-01
2.055310342628273168e-01
2.225343215519940132e-01
2.259358455051090342e-01
2.519290995881846573e-01
1.892498774716251386e-01
1.389148789888296209e-01
1.971058972987564661e-01
1.865455624494468667e-01
2.047531575326834996e-01
1.317655490163179288e-01
1.882542638635037180e-01
1.298648690824850127e-01
1.115296490834884052e-01
1.209364127912960635e-01
1.259778526578859692e-01
8.602611044956544328e-02
1.116354522425003076e-01
9.962353099094710396e-02
9.118534056021911083e-02
7.734688352060803407e-02
8.428108368673681294e-02
1.396016899325926153e-01
1.154680049693790900e-01
8.913361904133258740e-02
1.519391609400669862e-01
1.267535219091604493e-01
1.215225124202183177e-01
1.001069094729228476e-01
1.120191144940039102e-01
8.968986363888954705e-02
3.438853146730250221e-02
8.706187781427944528e-02
8.622693359099238564e-02
7.903010318815886781e-02
7.473579958551219982e-02
5.096079981654310503e-02
4.057087983602095105e-02
-8.215183639079030181e-03
7.120168991184967766e-02
3.520192481562584019e-02
2.626426717468966637e-02
-1.945044348891666885e-02
4.941314697469692541e-02
6.899030011022380671e-02
-3.492803776937868088e-02
2.823979714715412620e-02
-3.528303648372888013e-02
4.244504865189354520e-02
6.458896419779597275e-02
1.997141797007607328e-02
4.414933014947431539e-02
-7.503488119731345496e-02
2.028536412873055417e-02
-3.695639740955170005e-02
3.147534101421567421e-02
3.374001195205896322e-03
-4.706879578758306482e-02
1.258126104676692350e-02
3.786214410353094806e-02
7.527675915396934980e-02
2.144647390617244326e-02
3.321755734159333173e-02
2.266537610484035958e-02
7.448481430815050153e-02
4.124574002338496359e-02
7.353630309642865404e-02
-4.944457028369271534e-03
4.353192841283486103e-02
6.257709657369971146e-02
5.812296214982295983e-02
1.181490875787558070e-02
-1.049790228752227675e-02
1.045245370470008206e-01
4.047808463844788929e-02
5.999436545827099843e-02
4.192877573814353387e-02
5.111423412662049331e-02
6.252696832106510727e-02
7.210411658099040444e-02
1.314822651559965916e-01
1.618949053487043210e-01
8.972654444475562652e-02
1.019152480572674824e-01
4.906265634509955620e-02
1.000563048904109242e-01
1.140282671123746122e-01
1.317726823323512597e-01
1.042678461565511860e-01
1.040904410289812398e-01
9.147951677168589257e-02
1.412033634169685137e-01
9.963531244845534596e-02
1.583888731506922221e-01
1.253831050942904313e-01
1.582297056186125761e-01
1.235222448446803567e-01
1.046763065304254781e-01
1.345847967736120143e-01
1.260179952490580180e-01
1.301274702224788360e-01
7.770077412343361078e-02
7.864213165964406560e-02
1.127156861381947012e-01
5.602571256348372331e-02
1.415711791891965388e-01
1.222439634187730273e-01
1.358236358705835478e-01
1.882333149338744072e-01
1.292305608021409036e-01
2.047826244198612811e-01
1.567396536085708669e-01
1.722745303462373534e-01
2.039371660113432072e-01
2.849177051840875441e-01
2.116761311901619869e-01
2.484286781589233883e-01
2.759277284283034315e-01
3.616006860428166436e-01
4.378597097023547158e-01
4.546815936224795074e-01
5.097826261160278705e-01
5.944338871822735237e-01
6.479026075174403321e-01
6.832776615966601463e-01
7.900633583052445452e-01
8.726183269428973155e-01
9.389399199164282228e-01
1.021111666125739115e+00
1.090187454917562970e+00
1.218211481300027765e+00
1.171301124929359005e+00
1.268267723610202236e+00
1.253839190520364300e+00
1.313019945630570007e+00
1.285607241473248896e+00
1.331512722956213368e+00
1.304740655390187909e+00
1.266095843591002801e+00
1.254143709875102930e+00
1.204669939685862667e+00
1.160014843836681964e+00
1.154332817071665129e+00
1.000841044869709595e+00
8.994622658513155011e-01
8.086215383559307579e-01
7.651856108408087165e-01
7.163988565394350250e-01
6.837579829873715598e-01
5.932262171230223702e-01
4.998317179717272629e-01
4.184961646325363605e-01
3.565751547765527718e-01
2.970127306196234662e-01
3.095137360761498480e-01
2.454133119734182578e-01
2.502169535633330666e-01
1.873642028248753699e-01
2.197334099090226811e-01
1.254352995001720150e-01
1.039336423310308066e-01
1.008855723603534482e-01
1.702653794140090715e-01
1.083183775567852503e-01
1.144056490293030304e-01
1.414296315501754608e-01
1.182264531967231469e-01
9.928209425651149389e-02
1.521554829410689813e-01
9.501730504788713505e-02
1.271086278433955774e-01
9.665529881354301134e-02
1.961742522578562853e-01
1.553222677827318376e-01
1.004721066829670495e-01
1.379971800981592278e-01
1.746059886904395564e-01
1.264481578073949342e-01
1.692968895970747012e-01
1.401939508761989583e-01
1.542228296368902130e-01
1.523619229604942504e-01
1.816686750070648226e-01
2.186343649039919623e-01
1.546149161675810513e-01
1.759498151686923750e-01
1.669203921918794020e-01
1.892246642937856771e-01
1.935304656382572097e-01
1.797938583519761435e-01
1.943328424436955859e-01
1.885155231413801202e-01
1.752316091564103673e-01
2.674627564222946674e-01
2.124186175551014133e-01
1.631741568622323280e-01
2.171696750740661486e-01
2.381273557104210403e-01
2.561873448843996481e-01
2.369879166888386735e-01
2.434718629610289620e-01
2.816778658833481441e-01
1.909223893670317640e-01
1.793618387665349978e-01
2.201553916443893255e-01
2.219811401419848340e-01
2.178500158531649356e-01
1.978335575900551646e-01
2.149523794482272598e-01
1.550111919691928575e-01
2.119355436233480716e-01
1.796509025131995951e-01
1.828036561791595294e-01
1.625739840684314597e-01
1.661098639811780520e-01
1.407663657248652833e-01
1.256709685405570376e-01
1.606205075969359686e-01
1.576327952933826160e-01
1.798078139783754192e-01
1.291460364367236213e-01
1.480451546834178067e-01
1.367538107735975506e-01
1.501681141106108452e-01
1.301637447493173005e-01
8.667979158668781547e-02
6.852563730185599888e-02
1.538649795229256878e-01
1.123218111701320687e-01
1.286038156418354284e-01
4.317432735356454415e-02
1.430694360960065303e-01
8.364657071293613022e-02
1.120916846224331853e-01
1.396143754818217619e-01
9.387936067217741987e-02
5.048286302928316899e-02
8.970655667861865412e-02
-9.117499299876277719e-03
7.608400171946537449e-02
6.979827042361153033e-02
-1.008356492137650606e-02
9.331633710231213019e-03
4.576065049287144498e-02
2.172933045635278004e-02
2.461503034746771734e-02
-2.152853572980232416e-02
3.074391691678061284e-02
2.647432412639172394e-02
4.457407593866508089e-03
1.725286762184245065e-02
-3.172016558781466655e-02
4.106668745809055610e-02
-1.752961797379084738e-02
1.458011473970559357e-02
-4.194457145684608174e-02
-1.646913802030202517e-02
-3.284130699618656446e-02
4.306002910194206557e-02
-5.835144215738471973e-02
-2.287243272655469298e-02
-1.016103949850193505e-01
1.213906638092357437e-04
-5.678054857179482690e-02
9.600848214111001866e-03
-1.182245604305472153e-02
-6.534942256166603736e-03
5.321098774527194264e-02
-1.952261015666014940e-02
1.115952889751365557e-02
3.363411837108758878e-02
7.784303916321497208e-03
-4.317187180453191386e-02
2.158158552437014488e-02
-3.260704562004452384e-02
-5.534856212229814776e-03
8.788428655654358101e-03
-2.220544961343903431e-02
9.651225727102898111e-03
1.570235482181932263e-02
2.650559163190695233e-02
4.835731714060421960e-02
-2.767186467860345556e-02
-1.593431130162221293e-02
7.839853440639822646e-02
1.642959569823426030e-02
2.192816138233445039e-02
-1.022044172560956921e-02
-1.136929592380862830e-02
6.570057552775920851e-02
3.147976309444369680e-03
5.300223079865265530e-02
8.359269625296356088e-02
3.524090506143348622e-02
3.243058091199286369e-02
5.565935409438768633e-02
3.451529582652718142e-02
1.001792401927027037e-01
7.689790832180057323e-02
2.767963941098125491e-02
6.653591134578845656e-02
6.939543763567151968e-02
8.742086091371989443e-02
1.024867896081046725e-01
1.380978520598778042e-02
8.735222431188985337e-02
6.696979945740728912e-02
1.014338560635055508e-01
9.539846192535403335e-02
1.663175145100900809e-01
1.009842547157964177e-01
1.093365825543876763e-01
1.505028816051225127e-01
1.245062442274159353e-01
9.152104425375257035e-02
1.367489174419249665e-01
6.922893683076997151e-02
6.996237682938657998e-02
1.319829972912311966e-01
8.462855627221116395e-02
1.041639036950604835e-01
1.535587169430209509e-01
1.641523945261719741e-01
1.766380996995690345e-01
1.483659131896054584e-01
1.661111339949068177e-01
1.975707960675078256e-01
1.922250248562930586e-01
2.052002606344812408e-01
2.436635426345410416e-01
2.822958711205392768e-01
3.603781532452522973e-01
4.069264687645761658e-01
5.096139987236071311e-01
5.592795256514668800e-01
6.613484626293385515e-01
7.162394574145903858e-01
7.191324474802885947e-01
8.515492054134021771e-01
9.002299208037309874e-01
9.748980118595361732e-01
1.039598793724915593e+00
1.080959565261022659e+00
1.195149024304528185e+00
1.222005424290272035e+00
1.273528342746092834e+00
1.291804289453446719e+00
1.283479406703674552e+00
1.329588801977473311e+00
1.297618955013512432e+00
1.296109116527561333e+00
1.292995416752540816e+00
1.151225301941646739e+00
1.194114933534289547e+00
1.107527420402844021e+00
1.062363326582015599e+00
9.169907379564971039e-01
8.565185536626610530e-01
7.932721278382888208e-01
7.513211808071478259e-01
6.731709258631966009e-01
6.027096281570486491e-01
5.012199625879653064e-01
4.503796441239258930e-01
3.615810742041181136e-01
3.291566399812119181e-01
3.301809259695818177e-01
2.279367401730554854e-01
2.542805514911201104e-01
2.078720245319058135e-01
1.822610775867028188e-01
1.686834344219206305e-01
1.194409969307394515e-01
1.326745753166617969e-01
9.800424242843816525e-02
9.094461681965285149e-02
1.616888165577830272e-01
9.847746320936287545e-02
1.086642869457989102e-01
8.386841456071611467e-02
1.511443849627179814e-01
7.761392016503294855e-02
1.129474021396023042e-01
6.004464311343935684e-02
1.060598654164591204e-01
1.650990790855373369e-01
1.118952671673213162e-01
1.473675171554167107e-01
1.488528480651278851e-01
2.094249170909333047e-01
1.622346791130838684e-01
1.680582173933035661e-01
1.334768821805015215e-01
1.939811913171355373e-01
1.293091204366665359e-01
1.861758630728737873e-01
1.734010872453417007e-01
1.334268968055102589e-01
1.964838468757033607e-01
1.894417890125598136e-01
1.861995331249620134e-01
1.827251348348852278e-01
2.188063256627129083e-01
1.983892667001557752e-01
2.362694971202294880e-01
2.337559867614595055e-01
2.030231359076082875e-01
1.786082434837126531e-01
1.842417042409279226e-01
1.571360755709159673e-01
2.278672222568946248e-01
2.599408883379170643e-01
2.138278373592811532e-01
1.806817619039084721e-01
2.497395036073535857e-01
1.699642805075304575e-01
2.585524955513192058e-01
2.018418038201084119e-01
2.046343070220055793e-01
1.923031316425150017e-01
2.109128981614718790e-01
2.429713542710785767e-01
2.390355356963566047e-01
2.233326178418384433e-01
1.358739210515809148e-01
1.273324291059416968e-01
2.166465483244943702e-01
1.466374657562814765e-01
2.224710288894083121e-01
1.338275034625432403e-01
9.282560641709994287e-02
1.616251218536276513e-01
1.281190553877630811e-01
1.736399578642006114e-01
1.164607314347042011e-01
1.397614112262968444e-01
1.047987349116116240e-01
1.091480468697758055e-01
1.401439526390222678e-01
1.293632940317376578e-01
9.471216284044273181e-02
8.759299534935069409e-02
6.679235242530082162e-02
1.310537137675906738e-01
8.596741038977251392e-02
8.513617931757350155e-02
9.167267390543704098e-02
1.363170611962975509e-01
9.594456132656714598e-02
1.196144809857737357e-01
5.525791508887489822e-02
3.631636912624226082e-02
2.415720890895903250e-02
5.166108546387573885e-02
5.792834882783597095e-02
1.067723523899199445e-01
3.521686279673494346e-02
6.262548645576709871e-02
3.113922784430620677e-02
1.222382234016301805e-02
3.294734047745465078e-02
-3.813530839584262921e-02
-7.060249032980400741e-04
1.770610182337715999e-02
4.392113770570356401e-02
9.175849855938839061e-02
2.197780022434384084e-02
3.561692148777837602e-02
4.964171569407307971e-02
3.242987726734557208e-03
4.386463479457668180e-03
2.748133651548842482e-04
6.357766358554788055e-02
-3.620740606389014765e-02
2.487774118959728414e-02
3.809535148132666554e-02
-4.312846892580501218e-02
7.053244577873254983e-02
2.649450675368283936e-02
2.526121154586524059e-02
-4.882900269293428269e-02
-1.267232572374571431e-03
-4.152158984812234083e-02
-2.503431373491811843e-02
2.275373742155958889e-03
2.245484911021063124e-03
-9.844899893846601607e-03
-4.253420395144581062e-02
1.217403398691392635e-02
-6.050383238932006968e-02
1.371976855823715466e-02
2.553527932285069163e-02
4.262739033603461791e-03
3.338694243116464844e-02
4.168899511586811324e-02
7.276114373832620608e-02
1.244736102207378431e-02
1.085984137454522325e-02
8.016909981541486818e-02
2.039231379156600243e-02
4.890186223851160363e-02
8.017521296830094901e-03
3.288250321236947660e-02
5.819656105209845831e-02
4.114663593128893571e-02
3.390141449421885111e-02
1.246576825527789534e-01
6.830486435100004139e-02
8.102702660504440546e-02
1.422392044120077415e-01
1.177859921863652626e-01
1.141182845945596658e-01
8.254831938192035146e-02
1.189594722153229922e-01
1.290826469587485203e-01
8.400029027189712116e-02
1.060219117859125537e-01
1.859482461222467520e-01
1.865194003663967481e-01
1.434134762293800547e-01
1.355405192409122606e-01
1.413445809809650566e-01
1.089709531985171703e-01
8.774188501270098473e-02
1.745148538217408674e-01
1.231763545682662553e-01
1.142542539049381661e-01
1.056966421251718385e-01
1.161365999867885745e-01
1.507171561975247653e-01
1.238794074592364375e-01
1.473937748978307316e-01
1.530239386646029265e-01
1.483489694717022855e-01
1.685106261279804840e-01
1.663718668098345677e-01
1.828942896970413567e-01
1.720168013766948945e-01
2.033168197011166467e-01
2.422074711579578765e-01
2.054077938212786891e-01
3.189110094771383519e-01
3.498984606488597660e-01
4.374502602772732396e-01
4.113317928149187175e-01
4.577939534414629530e-01
5.465664613992073928e-01
6.203741269885293397e-01
6.873719948681968894e-01
7.583908023973667811e-01
8.420807584290244119e-01
9.327294559545125097e-01
9.809748835622067453e-01
1.095203871685641817e+00
1.157610595268596443e+00
1.138649593546058991e+00
1.222568607436438137e+00
1.262050256418097538e+00
1.300428023882687079e+00
1.307817565270823934e+00
1.391769177178960648e+00
1.373202337721158184e+00
1.355626433859589364e+00
1.348756924058872153e+00
1.309091692564393616e+00
1.226816902963434819e+00
1.118976298565508731e+00
1.134952970195451272e+00
1.088726798348597535e+00
9.645025070202958295e-01
8.789562627043127074e-01
7.703913227906092898e-01
7.096123585272680057e-01
6.627255004351991774e-01
5.683074478972651722e-01
4.717698869250889215e-01
4.400140112000096582e-01
3.923121128197920027e-01
3.306285028217456068e-01
2.604159854868270951e-01
3.477924689337822950e-01
2.540335273210636013e-01
1.799473496467041411e-01
2.010308475520133364e-01
1.539162271963195605e-01
1.959283623248473938e-01
1.084450861875294742e-01
1.278614065228429186e-01
8.437790827955385375e-02
1.268948575304628679e-01
1.163880039907170261e-01
1.427398893514557066e-01
1.432486394100199734e-01
2.145549459272390880e-01
1.605325147196038915e-01
1.051749741377556446e-01
1.204277506478684812e-01
1.838974948570432366e-01
2.017121995890699127e-01
2.150599936221052333e-01
1.559107827900539089e-01
1.993456645889589707e-01
1.602431948035549225e-01
2.132759645359508516e-01
1.896352151106721617e-01
2.166600100449146971e-01
1.750701403239000586e-01
2.765525068108786733e-01
1.761998485048504037e-01
1.472088826403223361e-01
1.974693005871084039e-01
1.740983225475113139e-01
2.216709920860555350e-01
2.192354927644878659e-01
2.482545705848528683e-01
2.264991785587368300e-01
2.410117058674846324e-01
2.636662853380676852e-01
2.155287767828547862e-01
2.765113794865928787e-01
2.028782271634482492e-01
2.630389921896789107e-01
2.185903455061244116e-01
2.331044779637749254e-01
2.561236779051441759e-01
2.489136058776216520e-01
2.129674284199701007e-01
2.518409986714200133e-01
2.186653064422316994e-01
2.864164587150705987e-01
2.347290250701927761e-01
2.546563618747867408e-01
2.422060729515440880e-01
2.199954690481040198e-01
1.887562349972764508e-01
2.133480255749536370e-01
1.984504235964331398e-01
2.621142680934862024e-01
2.113346945539089083e-01
2.170653417947454311e-01
2.540622502860263587e-01
1.600735586218129114e-01
2.364909380105512660e-01
1.721580836809811776e-01
2.563961635201246203e-01
2.436295761354182465e-01
1.961145665710837815e-01
1.691838678658367512e-01
2.104893824007765535e-01
1.528292429351238435e-01
1.253923023637074918e-01
1.377465374506127715e-01
1.859588875290575927e-01
1.367597129083871488e-01
1.329064928785558541e-01
1.312479951784032706e-01
1.386621581820052518e-01
1.339467097962852293e-01
1.292406944502938748e-01
8.930620114581222513e-02
1.489890379399072817e-01
1.798872380511209457e-01
1.264205590667512036e-01
1.131146745040154944e-01
5.405292867389319134e-02
1.333430495236366253e-01
1.327743283981420441e-01
7.674232760276789023e-02
1.356011493969732917e-01
1.569106765086285618e-02
7.133219355473122136e-02
6.448945410777795484e-02
8.378236013741093002e-02
9.249904551188004032e-02
1.256961598255718904e-01
4.767213839986032126e-02
5.663731006702082960e-02
8.719187460840466253e-02
9.060761327911673324e-02
2.631402027067830662e-02
8.317183897914715018e-02
9.495799569399235307e-02
1.155747549704045501e-02
5.279267587451787203e-02
1.696818390261612894e-02
2.806450588426500845e-02
1.577042889929032923e-02
3.027776067860526998e-02
3.293459095316254859e-02
9.635419100003711490e-02
5.778374610910021192e-02
5.750759299458486906e-02
2.630944832997035576e-03
8.144075342272882878e-02
2.873787441937735929e-02
3.579913539500417102e-03
1.052131987150330961e-01
1.095772112734220566e-01
2.829870719313362301e-02
8.542385116436645998e-02
4.183583290981669756e-02
3.747706673108356507e-02
3.999927249832792298e-02
4.728246622695272267e-02
6.316557599856494065e-02
8.043838052974047748e-02
8.416285330590075886e-02
7.482417403827139324e-02
6.714023420936041098e-02
1.012060595772090177e-01
7.913209458521251738e-02
8.109354657233738828e-02
8.692531994639390858e-02
1.258275083753149504e-01
1.007607293728127323e-01
1.478899764243375992e-01
1.335550993318090351e-01
1.276645486549226327e-01
1.614116239748899506e-01
1.334772710475602975e-01
9.468628956191943447e-02
1.321432467153403345e-01
1.533486879166433836e-01
1.740678144568672259e-01
1.684062545814384582e-01
1.649047832386151824e-01
1.618557703155625027e-01
1.230163305927468032e-01
1.468281501701379776e-01
1.683311881457425496e-01
1.526735205831610265e-01
1.971685097125891739e-01
1.540793365155786188e-01
1.691249578835151424e-01
1.691246735445483818e-01
1.651645068038579967e-01
1.650492937125864756e-01
1.595693299119044228e-01
1.927619543038346650e-01
2.040217729717745954e-01
1.547385975643429945e-01
1.577729749377004553e-01
2.276078907734450096e-01
1.717446445551711887e-01
2.265484953427817083e-01
1.270321157365512099e-01
1.644323829126657921e-01
2.149967625788231640e-01
2.434855970665143476e-01
2.042986687013581271e-01
2.711820487826773762e-01
2.591834352098046912e-01
2.811465314853642816e-01
3.536104595661053174e-01
3.542371394389961514e-01
3.737822796253938429e-01
4.919516442858202776e-01
5.654207992339972400e-01
5.685002398740136575e-01
6.452425961885078776e-01
7.087120188776426799e-01
8.230376332643020154e-01
9.181483347586903987e-01
9.299756520107017588e-01
1.019828303929933178e+00
1.056346413878888724e+00
1.171384115955645289e+00
1.192779636048103109e+00
1.229359102205550336e+00
1.316429616456102902e+00
1.351345537527467888e+00
1.358825934776443756e+00
1.361500109779068213e+00
1.398807950678487177e+00
1.435150416174917343e+00
1.360522457893237780e+00
1.311431235157818342e+00
1.266079010302644470e+00
1.247271682370547641e+00
1.106880706216607502e+00
1.057582695528525907e+00
1.036790267277712729e+00
9.287118596330449227e-01
8.823016426784572319e-01
7.341715122200849208e-01
6.671035066276601588e-01
5.863622872477924908e-01
4.974764376479507977e-01
5.061351456517899638e-01
3.837950884960938391e-01
4.413718924877172434e-01
3.303357852339699474e-01
3.160056495706320967e-01
2.609855783143479879e-01
2.250552794676325408e-01
2.872314205526520503e-01
2.076175131922506634e-01
2.078310545676905208e-01
1.965864548622694441e-01
1.966470840412507803e-01
1.652957251670043037e-01
2.002775119116206315e-01
2.190982124311422474e-01
2.167119432553961389e-01
2.284917836699548732e-01
2.103755198619250144e-01
2.329789788793519556e-01
2.099921412658797004e-01
2.285246830201975166e-01
2.279551120380859386e-01
2.777797276692746675e-01
2.187313291195346343e-01
2.739629291647607268e-01
2.897621485018337939e-01
2.248433968507893566e-01
2.894391190475971709e-01
2.945694587767271888e-01
2.336713135107514605e-01
2.621535833194367782e-01
2.473701837402152437e-01
2.182073513575892576e-01
2.285001097366293754e-01
2.416937956257554365e-01
2.425197491731430066e-01
2.722889431023223228e-01
3.393122095677142958e-01
2.235028613150544241e-01
2.853635245528375330e-01
2.946687990366191334e-01
2.532573355934796266e-01
2.736004115965003369e-01
2.996789362234148490e-01
2.893559096024743149e-01
3.342720621938836123e-01
2.624195706417401519e-01
2.702323921788259420e-01
2.932910491279245302e-01
2.809517652429543988e-01
2.766446748618149876e-01
3.254371334638844759e-01
3.094115345603564715e-01
2.613016147762384223e-01
3.123126802104501110e-01
3.051570003190275937e-01
2.315927537744351672e-01
2.844981879821228965e-01
2.703948177353378557e-01
2.760812161009033039e-01
3.317365939491526694e-01
2.675697819176773296e-01
2.501902442375575353e-01
2.781587346119598902e-01
2.290177731089925173e-01
1.902371786910217188e-01
2.194365673755426238e-01
1.799430951036528892e-01
2.451038565824821547e-01
2.278945494054672727e-01
1.699968496651073080e-01
2.903316372963537506e-01
2.078641934651782597e-01
2.567128766597521206e-01
1.772735445736818016e-01
1.546385903210292234e-01
1.552545614365830884e-01
1.501726869926806873e-01
1.823045874203743644e-01
1.952246031709883034e-01
2.132815933320318380e-01
1.067544339434906009e-01
1.459203132982664075e-01
2.041073106112387125e-01
9.666106541107995220e-02
1.701340962053245198e-01
1.383633548189355800e-01
1.191323349677411159e-01
1.229440081320316291e-01
1.765761798636363566e-01
1.212119674396337637e-01
1.085392610423546872e-01
1.315256208949013295e-01
1.858000782850564581e-01
1.756122938482730100e-01
6.608127008516692658e-02
9.756285480081730577e-02
1.151458057684690423e-01
1.135971760724790586e-01
9.792340305237079434e-02
1.243145330087491451e-01
8.222444890965030506e-02
4.382245921988892762e-02
7.835563854171040399e-02
1.325114120285346975e-01
9.333505374676681621e-02
1.592475250697879541e-01
8.073592382398678269e-02
1.788376989849983778e-02
2.743005775104276345e-02
7.193405160565063960e-02
8.084217621525020825e-02
8.345908049873371204e-02
4.386709068679438966e-02
5.023185193531407716e-02
1.363525242726999764e-01
1.588352662221162448e-01
1.157604070229484999e-01
1.521313692257279249e-01
8.559075153680745229e-02
1.166702332814575360e-01
7.408962169326030467e-02
6.183315080366069694e-02
1.220307633138167092e-01
6.255215739059483138e-02
1.126725830243831827e-01
2.370711635619043162e-02
6.943455646602095244e-02
6.348873804602139792e-02
1.183985917415598110e-01
1.027118657425376419e-01
1.001558513479559459e-01
1.100386440109843988e-01
1.409417420900572759e-01
1.027677997831152740e-01
9.082060076448904284e-02
5.721878101060361155e-02
1.631136930874118873e-01
1.174022079835837507e-01
1.679203789843525252e-01
1.787678235361608026e-01
1.651326060134313545e-01
1.718477598233108528e-01
1.497910573820107061e-01
1.319190300632774593e-01
1.635329247556925325e-01
1.748003993502911524e-01
1.199712267721456116e-01
1.879521823294659222e-01
1.723819457908239150e-01
1.912623156210651598e-01
1.990003347533356726e-01
1.862810913244587196e-01
1.720904573686692363e-01
1.783211752104457426e-01
2.080816657377811962e-01
1.839432368912284066e-01
1.744415771002618964e-01
1.774538694399369620e-01
1.807670567341692069e-01
1.822015867592235716e-01
2.218886318587357520e-01
1.834748072190207357e-01
1.713717606364930923e-01
1.953887931600422068e-01
2.498013460719379908e-01
1.876469757849868469e-01
2.304848190670100716e-01
2.101143229793427381e-01
2.045196038748409995e-01
2.704138301306215353e-01
2.145313709129009205e-01
1.918399421506086222e-01
2.500689158806690404e-01
3.056953960105242563e-01
3.249203156529524295e-01
3.254462570647827513e-01
3.162558655417614939e-01
3.760257114128243705e-01
4.451249955130752722e-01
5.090046121969147297e-01
5.049047196562956863e-01
5.750174673841509376e-01
6.681304558666294469e-01
6.908093829264713159e-01
8.737209251807123156e-01
8.286754553999107209e-01
8.844402441868997045e-01
1.016392864268371277e+00
1.084692341692363060e+00
1.140195094497955308e+00
1.226392775844591165e+00
1.266325993507466663e+00
1.338719983672545633e+00
1.409375347562282998e+00
1.390970581206749213e+00
1.425485055499494225e+00
1.435071880703432390e+00
1.435340298084440303e+00
1.415243298606179589e+00
1.284686763351888583e+00
1.262148569398450881e+00
1.207527334484295833e+00
1.110759494408725123e+00
1.080079421510076632e+00
1.023177193967430565e+00
9.955191523756945493e-01
8.437725895679563104e-01
8.443019237033932978e-01
7.498415263759999894e-01
6.261644171493099265e-01
5.833986195255067564e-01
5.081514906679441834e-01
4.506138776159713810e-01
4.091820267672361400e-01
3.835664247262191018e-01
3.344835243023924765e-01
3.091945118785187074e-01
2.788300179771586174e-01
2.079231190711031130e-01
2.401526535908405646e-01
2.419408117515516876e-01
2.564038433371627068e-01
2.264084004186999177e-01
2.156794814872979582e-01
2.317474780353699915e-01
2.037569936748969135e-01
2.042340902245282086e-01
1.435657373817240678e-01
1.911474985093954970e-01
2.244653549378176072e-01
1.914795168911688494e-01
2.452187389732156664e-01
2.403416085055013751e-01
2.568941374395362076e-01
1.933688931149859513e-01
2.033029419319155040e-01
2.614959175482362008e-01
2.671497905123536021e-01
2.230655712705584548e-01
2.647881520541276457e-01
2.732292578465084221e-01
2.836256812346159561e-01
2.411761233930591608e-01
2.768381186134279970e-01
2.216831578587780405e-01
2.591715236321909810e-01
2.509688004186909627e-01
2.609095974652080319e-01
2.976890071094288048e-01
2.020105933020715228e-01
2.797992424699842218e-01
2.473694972263890124e-01
3.034968458570503347e-01
2.772760567111471897e-01
2.892712307829883311e-01
2.772056813895856786e-01
2.732218684072003079e-01
2.854813544315118468e-01
2.336060176721916348e-01
2.807698335730455796e-01
3.365877659536153366e-01
3.231800097284521778e-01
3.210289532888687125e-01
2.617605508635820200e-01
2.881281035949581071e-01
3.077764481238249306e-01
2.820416883036738209e-01
2.871428619464256871e-01
2.718729812745513952e-01
2.212546131643816083e-01
2.300703227469717560e-01
2.797595373743346769e-01
2.759700053169128475e-01
2.914405437230214169e-01
2.794512264245360145e-01
3.082769037027772718e-01
2.643381287110443401e-01
1.806850671656139717e-01
2.364708885260791704e-01
2.089655446196939104e-01
2.258728419935027709e-01
2.223431624909175675e-01
2.171047155873101209e-01
1.875313911852729554e-01
1.824731761671706809e-01
1.748980643280580172e-01
1.535352576505697730e-01
1.859252979299284014e-01
2.126728128824866282e-01
1.536312251783470972e-01
1.760136976072320669e-01
1.684040074807216236e-01
1.733787896121466998e-01
1.444087090788190031e-01
1.113611154067683517e-01
1.241454599909341538e-01
1.482004425306718831e-01
1.843024501066022613e-01
9.417354608762361357e-02
8.872643023055176714e-02
1.369175552006181573e-01
1.481412473698318633e-01
1.173608575538163390e-01
8.308335048031359471e-02
1.113615456122357406e-01
4.352835282406440631e-02
1.075412214944076184e-01
2.857311472427525451e-02
6.511497670024485318e-02
3.999953216279662077e-02
1.320188128512754244e-01
6.197594143132849343e-02
1.779272136474351618e-01
4.829327729350214871e-02
9.148125009081907455e-02
1.039534034848445809e-01
1.534049552042973663e-02
8.742533990179809922e-02
5.149311369715682540e-02
7.835911141151452597e-02
5.164006648228929713e-02
8.220486232316340236e-02
6.066645736832036034e-02
4.872732704747863297e-02
7.133217116395516866e-02
7.013158415838895154e-02
5.637783471262255985e-02
3.779168821602137129e-02
6.572557150465233033e-02
1.009867647316531614e-01
6.538588104958878433e-02
9.592101050348837699e-02
-4.634218850978102933e-03
3.176117355249568480e-02
9.202216354209800941e-02
1.009543372027668084e-01
1.131688704071513174e-01
7.253028185261428673e-02
1.064342842856552812e-01
1.037607906659555601e-01
4.485998504951255184e-02
8.658842570605085331e-02
8.556636406499404379e-02
8.452472642040834150e-02
1.129252281597647734e-01
7.522402001133435268e-02
9.021914407611875131e-02
9.183636485984350561e-02
7.846870414731908772e-02
9.449637896549582805e-02
1.054482734236320274e-01
7.713347868868866697e-02
1.387726747763118329e-01
1.310201595018697374e-01
1.347523993645442786e-01
1.568974651039801438e-01
1.268219039776579127e-01
1.474077849177866384e-01
1.101991009115012576e-01
1.696231070607656655e-01
1.667110265643522438e-01
1.454167035137873543e-01
1.552562751748944314e-01
1.416062996973895816e-01
1.619689698109403331e-01
1.959398564367129114e-01
1.385486673941231928e-01
1.903257460316244432e-01
1.298453566473928289e-01
1.891243332283889245e-01
1.211511168669645450e-01
2.218698223418027193e-01
2.096163216057256029e-01
1.690357230930812638e-01
1.693245615367931223e-01
1.729396758608592599e-01
1.297221872025580147e-01
1.976117884086171228e-01
1.375322144710989514e-01
1.985873336019025603e-01
1.797434168907973973e-01
1.765559182488698475e-01
2.310507407425284598e-01
1.805504627409505736e-01
2.564375497667604198e-01
2.044702240790542969e-01
2.130555772498080591e-01
2.879824096877534045e-01
2.961724758138047919e-01
3.235770344950603672e-01
4.081280607290918017e-01
4.247335289753022547e-01
4.599186254007180397e-01
4.683944907784128309e-01
5.656700093097853932e-01
6.433125474625788209e-01
7.385940346526418399e-01
8.214199986002088671e-01
8.938566216186869529e-01
9.689691386575317589e-01
1.047180429974358784e+00
1.144310689117191249e+00
1.193530128757484432e+00
1.261074011975735987e+00
1.253000788873495086e+00
1.326613551105457978e+00
1.375741728818246079e+00
1.368154397176503334e+00
1.396172405666318506e+00
1.350966225882822336e+00
1.379993125554234146e+00
1.294309304588311615e+00
1.293060165851625198e+00
1.287457260500007861e+00
1.166934385679830877e+00
1.056304949596347909e+00
1.010350574989852257e+00
9.665649218346893390e-01
8.005814122421464063e-01
7.633999704389212715e-01
7.061577755325880723e-01
6.065916953142012069e-01
5.887194229403782675e-01
4.320007073295810684e-01
4.812295455109619757e-01
3.591824163857387231e-01
3.023438940139822617e-01
3.281139067555899347e-01
2.452631324378146127e-01
2.513604040272482965e-01
2.458641420391479704e-01
2.274542328280736714e-01
2.081603332154122465e-01
1.710290335114372229e-01
1.925928701092521067e-01
2.035366882819141521e-01
1.480011466163716483e-01
1.369583214653330994e-01
1.295043728238616798e-01
1.415395453262303926e-01
1.538339643130254564e-01
2.520275870926876327e-01
1.918064866379357025e-01
1.499545383812616595e-01
1.786535823557990066e-01
1.870763446711470046e-01
1.274825441684994398e-01
1.551855244237534959e-01
1.739302930885419374e-01
1.906601306712396859e-01
2.041397773205844701e-01
2.386814344629681617e-01
1.907430704718734438e-01
2.369136220168628348e-01
1.950263115510832423e-01
2.398669685869559420e-01
1.624026960005746090e-01
2.166834443301551838e-01
2.121904962265427075e-01
2.276625846676560150e-01
1.912970248975510157e-01
2.925579304027027816e-01
2.236332324603711452e-01
2.869328979465108898e-01
2.199553117920461931e-01
2.378986318506947084e-01
2.801383764775266516e-01
2.153666141750073815e-01
2.096273233398301405e-01
2.187716206010252851e-01
2.171366755048317887e-01
2.313140397399966186e-01
2.119896329121254419e-01
2.143274546969272942e-01
2.043440546028060245e-01
2.147174332189606127e-01
2.437445517424422503e-01
1.779552597801210001e-01
2.227444886279828784e-01
1.683842628163307320e-01
2.570577440095141442e-01
1.942159993740455448e-01
2.154111950467131609e-01
2.395872363614647560e-01
2.435171740438244747e-01
2.417327066622571574e-01
2.053673079884640595e-01
2.366974472259834872e-01
2.846250905201233583e-01
2.167347404515231335e-01
1.920400274419954978e-01
1.677851670072932899e-01
2.226342627360056725e-01
1.895344224162903990e-01
2.452445893969573409e-01
1.915228062382231533e-01
1.111035323176408074e-01
1.705480121719027131e-01
1.655461161727010688e-01
1.540402425811075726e-01
2.041399321686579449e-01
1.300940578893111099e-01
1.722567327097343504e-01
1.243330234596718015e-01
1.260933822987029274e-01
8.082915487534572674e-02
8.235367701433708720e-02
1.065578566465644889e-01
1.097529108241773882e-01
1.257741054985602458e-01
8.832952710069828794e-02
6.095538496157976160e-02
7.612191278192158295e-02
6.175183618303870664e-02
1.693677905546837892e-02
6.106653008116883635e-02
1.193387538371168122e-01
7.235883014425241455e-02
4.039825464037014036e-02
1.094040006519636232e-01
3.910593631347145105e-02
1.137426465656593555e-02
-1.510707059572516386e-02
4.686429929686632134e-02
2.232090538321308479e-02
1.419477230528367120e-02
9.517086308552445695e-02
3.199801111730388170e-02
4.365638993340789642e-02
6.347604933664739713e-02
3.225552677207758900e-02
3.958853187466920831e-02
6.052280213120915520e-02
-2.963942882602524018e-02
4.627588326364956428e-02
-5.615161584070717249e-02
-1.248773476260108331e-02
3.144537193859467394e-02
2.002608386134222332e-02
1.867853449448303796e-02
2.140003394883441615e-02
2.514635666517599580e-02
-1.789053293316440404e-02
-1.132415621944749679e-02
-8.909958434903698932e-03
1.922356866045731374e-02
-8.720383540610599643e-03
1.549152978592524543e-03
-2.280917091474057162e-02
3.222870459069642618e-02
-6.274821140011191400e-02
-4.990132915357523707e-03
1.734016018551625543e-02
1.787769667822301789e-02
-4.349969773186336541e-02
-1.109103410717656238e-02
7.981162586728064723e-02
2.228386120057400041e-02
5.574421453382967517e-02
4.409755192727675410e-02
8.424657993413173229e-02
6.626720355548752772e-02
8.512158439295516854e-02
1.042187599705853146e-01
1.192914644079665076e-01
4.699656477550637201e-02
1.122606775202851237e-01
6.993926446974088607e-02
8.896948109284864847e-02
4.078539893695776186e-02
9.223366306719248120e-02
9.094497244560925675e-02
1.026469349071494480e-01
1.031922955174820744e-01
1.313714870061865880e-01
7.360767908376447677e-02
1.292338875519775943e-01
1.177461885242578055e-01
1.416229868763231592e-01
1.482902863509660829e-01
8.734434053191328373e-02
1.120784392282878211e-01
9.758140206698025232e-02
1.161504139010197667e-01
1.625758422963942962e-01
1.331117449235809103e-01
8.450970079363340215e-02
1.240631077107241936e-01
8.007109763292225013e-02
1.632754445859926073e-01
1.438614654499293377e-01
1.042011314562706070e-01
1.268359046767625065e-01
1.276684604557720148e-01
1.677109054014640499e-01
1.532869356091652036e-01
1.564998583888815575e-01
1.815065793177099152e-01
2.239846257733424384e-01
1.708606583560229875e-01
2.879154297671259188e-01
3.383384074019826215e-01
3.212516286165834067e-01
3.860913624316239523e-01
4.200540990976492917e-01
4.921924130695678468e-01
5.373902498681706330e-01
5.989055478365936658e-01
7.110409768691268173e-01
7.049896430315674145e-01
8.103997022861249011e-01
8.544105089117666196e-01
9.269781995842142353e-01
1.093554634734363429e+00
1.177526521225336076e+00
1.201596792162651361e+00
1.263925395410796515e+00
1.287423103497404853e+00
1.278100784263356715e+00
1.320044712474732096e+00
1.318296861277252541e+00
1.306571958743519613e+00
1.289662525132706294e+00
1.313888521070383453e+00
1.211471611965802442e+00
1.162304820217252344e+00
1.101734703486091371e+00
1.019640576860503023e+00
9.527717785622437097e-01
8.800262219012495724e-01
7.522172645642863920e-01
8.031065951956455340e-01
6.707279738732103702e-01
5.352904337440542726e-01
5.248073801960028151e-01
4.556457373014266565e-01
4.046966191857992445e-01
3.928069816171554374e-01
2.870190120133710443e-01
1.828610093937000913e-01
2.457679600801039033e-01
2.077443668215579464e-01
1.820829230527330200e-01
1.696886465203655825e-01
1.051118772152613706e-01
1.079736115842392097e-01
1.252707265876447373e-01
6.976641145149788115e-02
8.376627395553612465e-02
1.206104471202931183e-01
1.532924973392519319e-01
8.795096338691961446e-02
6.512970169427828582e-02
1.083209448680283321e-01
1.201561157065730995e-01
1.148455490092129549e-01
1.470511570447854965e-01
9.501861157699331706e-02
1.519371830222819297e-01
1.282208173799762596e-01
1.582239184034718027e-01
1.459007234997695690e-01
1.213803284722697051e-01
1.053355784571011478e-01
1.729211823195827558e-01
1.742042395197274662e-01
1.883213448387229261e-01
1.933792779825626584e-01
1.602345028229402724e-01
2.615372057659984262e-01
2.114502869777978022e-01
2.368867504953631464e-01
1.592364869614375233e-01
2.189521735424233284e-01
1.731478634149651030e-01
2.473946252805898360e-01
2.365587336744608415e-01
1.966551958033066205e-01
1.718881234417812265e-01
1.285913858397311760e-01
2.101257580078566278e-01
1.908903722297812244e-01
2.201306164669512011e-01
2.420231396152515979e-01
2.413281603740086712e-01
2.119321266688607430e-01
2.105821141010918995e-01
1.735782323658962845e-01
2.763975987112397559e-01
2.089928736477595639e-01
1.848617786478201908e-01
1.931241007489686023e-01
2.143531207872130806e-01
1.726518712606963102e-01
1.423058945952301590e-01
2.242936911271204425e-01
1.892817001432448576e-01
1.923890987940838349e-01
1.719163235955777635e-01
1.124302208336742104e-01
1.686048334762343670e-01
1.971023351753024566e-01
1.254606853983120940e-01
1.073209332701856311e-01
1.571189982167118526e-01
8.369851138663797485e-02
1.558566259077911464e-01
1.610152759876579132e-01
1.377192242416167556e-01
1.266286186998898666e-01
1.256261437637491707e-01
1.054146929379767283e-01
9.086635702836932948e-02
7.658854189540210966e-02
5.301789788409722037e-02
1.108113629251651217e-01
1.122169717201686595e-01
7.848913116081873698e-02
1.278083849015394791e-02
1.041938313372058889e-01
7.904246720201224541e-02
4.294737382178490798e-02
4.792300696466148674e-02
4.483473003956812281e-02
4.986933420200366507e-02
3.296766578914925999e-02
7.670436165051902622e-02
5.135525149745226448e-02
-3.787864285989490931e-03
6.874495684675080431e-02
1.804018678508263751e-02
1.703805432827516092e-02
-3.044250455051046578e-02
4.510960424776178090e-02
2.016986234787238735e-02
1.437927139231681001e-02
-2.697983902913520665e-02
-8.416104633340347474e-02
-2.512497617704709946e-02
5.055281437215802809e-02
-2.166470590800254059e-02
-3.714825974094920075e-02
-1.165767432564349809e-02
-3.746710853128379370e-02
1.978390988887888252e-02
-3.591946431025631187e-02
-3.010832140752912889e-02
1.133409930100123808e-03
9.520103309167762817e-04
-1.163589953728084991e-02
-5.477870478248242359e-03
-5.514499594936174420e-02
-5.547954159146228220e-02
8.338509217037860799e-03
3.377443400895976250e-02
-4.623068773111199681e-02
2.382782624538798411e-02
-6.382088166131429097e-03
5.313075399294962115e-02
-2.296383136543623388e-02
-2.810894589809160085e-02
-1.074048238694861324e-01
-1.958986389919856186e-03
2.402586608526374040e-02
-1.683673177937647369e-03
4.843503090614653672e-04
-3.849151551617514821e-02
5.909570012962116203e-02
2.382316647615852212e-03
3.675964167123801918e-02
1.157707646621782688e-02
-2.492121178726151853e-02
-2.702926642641101385e-03
5.048370335273904413e-02
2.903424313576083438e-03
3.960976267133175382e-02
6.356192025681477176e-02
7.046587841963036780e-02
4.436518267038740831e-02
8.342281703560802675e-02
1.098691779817199121e-01
4.682833736369904770e-02
8.662009596981176673e-02
7.134917288314102102e-02
8.110750739938932252e-02
1.000125521283159041e-01
1.109926408229884032e-01
1.236871253110124191e-01
9.805846530654858950e-02
3.457242765333871232e-02
4.621337292668259433e-02
8.129430255806395500e-02
7.662118048571026074e-02
7.512364780645344742e-02
9.250016372169028722e-02
6.268776400722586573e-02
9.704684001952168515e-02
1.226288667388714948e-01
1.185748358425155469e-01
1.381130639165808749e-01
1.038385690728905325e-01
1.050818571898362169e-01
6.083918496962467670e-02
8.185222615844606198e-02
1.032281685571668078e-01
9.616188469665473693e-02
8.535057897977746388e-02
1.013043676119085579e-01
1.621734448365514669e-01
2.248394467993149737e-01
1.590757047322877149e-01
1.844446573455797711e-01
2.462617054882952627e-01
2.475088857787786922e-01
2.463567170142847429e-01
3.318530331463402372e-01
4.120761976809866889e-01
4.153501692372288390e-01
5.045214274964181511e-01
5.916537604556146857e-01
6.441327795532130196e-01
7.301326627582414019e-01
8.330144059609465579e-01
8.937041391851714423e-01
9.631288229283321289e-01
9.667459333822103762e-01
1.036543554554809177e+00
1.154804747015054867e+00
1.215467990872202364e+00
1.235194838501326720e+00
1.330495132822276272e+00
1.286408104463828028e+00
1.320836275145805150e+00
1.326731565323295614e+00
1.265547550735347082e+00
1.264136658701445759e+00
1.269197187862095566e+00
1.171745103627385820e+00
1.081304854814864491e+00
1.061196626521770714e+00
1.014925644779573588e+00
9.121372716514323242e-01
8.372286096276981837e-01
7.734435387838838327e-01
6.690761614774094479e-01
5.858056404626920122e-01
5.962101973091439300e-01
5.262266506046194836e-01
3.719548401577603691e-01
4.117098224781761129e-01
3.118887005572809068e-01
2.758937124505507210e-01
2.671547188123236660e-01
1.501206981365681703e-01
2.495625491608141622e-01
1.421975304045486610e-01
1.463573996889920015e-01
1.406163455094760206e-01
1.674656328297481622e-01
1.375748861660232580e-01
8.069066661981078026e-02
8.068136151086799379e-02
1.195134590928087492e-01
9.992095232933462245e-02
1.022608774404342169e-01
3.906275659582892495e-02
1.759473628575272675e-01
1.244459481807197454e-01
1.633188485299346404e-01
1.458537255524809395e-01
1.602035652797718090e-01
1.699976955045186811e-01
1.150160097447478769e-01
1.704383152074424312e-01
9.196991931589659774e-02
1.630170302722339370e-01
1.847768665510549635e-01
1.547734202376268575e-01
1.530539000474767930e-01
1.381596144639045398e-01
1.446926184410569360e-01
2.058028565293006373e-01
1.760800887348134836e-01
1.611242893697512057e-01
1.846511599207537602e-01
2.064733009828150778e-01
1.521516389284592874e-01
2.032658060431330183e-01
1.624166963572567512e-01
1.864956228070758781e-01
1.971982470668910137e-01
2.025640793829249775e-01
2.273996617043474167e-01
2.249360181400277270e-01
2.436499820080396672e-01
2.230837950967392014e-01
2.129709673633827793e-01
2.354168930243104585e-01
2.018427167912812958e-01
2.510155783149732867e-01
2.313860243598915845e-01
1.702529523205101869e-01
2.281768545959759198e-01
2.127700318010560809e-01
1.974989045968468804e-01
1.628374603525995501e-01
2.057032854126430443e-01
1.537463732837283659e-01
1.952925169690100105e-01
1.869051337349908748e-01
2.124655257928295959e-01
1.945982231099278315e-01
1.589639816030845032e-01
1.611981961502103322e-01
1.768514390506784328e-01
1.554289997164461090e-01
1.173637373094643943e-01
1.254486301748552468e-01
1.384533796005375517e-01
1.778765402962981523e-01
1.252057025788306521e-01
1.434582656287011204e-01
1.862603568422480371e-01
1.179579072670407930e-01
1.354301266798014769e-01
1.484778866456030189e-01
1.055506028339820990e-01
7.672474304956439228e-02
1.472463935172856342e-01
1.253472307846413003e-01
9.033835367302557595e-02
1.045465313193869872e-01
6.638191507988683293e-02
6.034051198026210011e-02
9.221770932029771384e-02
5.223144798588864185e-02
7.707098185543836966e-02
6.590046847256852969e-02
5.024619998244433255e-02
5.519552012493030707e-02
7.835321680973714176e-02
5.562808934245753317e-02
2.802480957570039483e-02
2.232321609149955088e-02
9.621206958393045683e-03
1.177661194784903470e-02
6.625101380352083069e-02
5.801876833267129857e-03
2.864359347146697501e-02
-2.947496525917623483e-02
-3.304788589289977402e-03
1.731665227437630128e-02
5.749610975150645786e-02
4.783960994199432104e-02
2.857275584683653669e-02
2.718082877937272671e-02
1.159461642137050302e-02
1.648585004737281035e-02
2.172422238656399052e-02
-2.847971482093833787e-02
3.770786103537972223e-02
-1.422503743007971777e-02
1.122287143800968293e-02
8.213284255941991074e-03
-8.226197124775156549e-03
2.339208409895685709e-02
2.391357013487914809e-02
-1.448115770018851972e-02
2.482336927356845746e-02
4.527051536192869263e-02
-1.362723613155068098e-03
5.958265894515368810e-04
2.315523285903122591e-02
4.967269179272221918e-03
1.868032635186488502e-02
7.083125907501531399e-03
2.572127079954895229e-02
7.784174548758942408e-03
4.087593760913669355e-03
2.648763495354439917e-03
2.013878876970943629e-02
-1.306713854991384260e-04
8.592436284310382699e-02
3.411084673451576788e-02
8.417389932904945082e-02
6.856114733785867443e-02
5.843652599152508731e-02
6.333986150286366468e-02
5.981106038153713444e-02
5.511150483843200998e-02
6.302791590949383127e-02
5.047277691587674642e-02
1.543069514707444412e-01
1.151110327834257707e-01
9.652680667535745718e-02
1.437144944725239071e-01
6.334105894382990876e-02
6.636512893256842072e-02
9.981113585674442068e-02
8.911839253142321560e-02
6.115257080265834588e-02
1.246496523391484451e-01
1.107378574116616582e-01
1.553782547659391389e-01
1.337561727443268289e-01
1.086035431336734025e-01
1.795229080518284948e-01
1.002798516017076175e-01
1.453500059760090002e-01
1.583085885978470497e-01
1.632306843194739621e-01
1.442112489749927673e-01
9.071861963131283568e-02
1.649823013425597007e-01
1.921633128769682508e-01
1.168880359249804823e-01
2.063932311957846766e-01
1.194423705365313115e-01
1.374344178014337003e-01
1.795464060258347427e-01
1.906754069258770334e-01
1.382904090025387500e-01
1.401853463254432719e-01
2.354421018597143977e-01
2.409640535775261494e-01
2.733773115201633130e-01
3.491819447716360547e-01
3.801255243482596913e-01
4.292889347464377003e-01
4.220221099281583066e-01
4.860517909601985709e-01
6.086969672469497716e-01
6.286868091023646299e-01
7.149575840862003595e-01
8.016721297141417013e-01
8.924193379226227352e-01
9.608642274534887617e-01
1.000715626431910810e+00
1.035860706192504699e+00
1.180559846334613860e+00
1.220711510691082857e+00
1.273184482860124866e+00
1.277917296005415038e+00
1.366871998538401911e+00
1.385521975162411712e+00
1.367911833497805096e+00
1.337916394593074543e+00
1.317036876931885869e+00
1.253826759460763940e+00
1.256631297052279495e+00
1.203066642951157839e+00
1.128911613457286300e+00
1.061941887705025733e+00
9.782577791708798598e-01
9.526064803926659330e-01
7.974063343130431969e-01
7.611606200160657698e-01
6.601812899412254909e-01
5.687770800284888129e-01
5.504126020099932015e-01
5.034650477607323094e-01
4.493906435799897570e-01
3.470304136473800205e-01
2.880137222159819266e-01
3.035075552975194380e-01
2.611004648068749878e-01
2.293993853806091943e-01
1.931855992778419850e-01
1.862819380156866544e-01
1.475820382327815983e-01
1.713383791758187891e-01
1.582888020099275372e-01
2.096714365359710341e-01
1.112408557726166508e-01
1.570558963698593380e-01
1.673798310103463693e-01
1.891260393597586076e-01
1.778725027965395722e-01
1.718309303861522419e-01
2.123094502420456720e-01
1.477419134308964044e-01
1.296487062714047345e-01
1.550698702454522959e-01
1.510837946252310826e-01
2.817587456711706517e-01
1.399499716086143597e-01
2.101816799766405564e-01
2.493954442387562587e-01
1.575978742467730453e-01
1.738528274926229300e-01
2.017432631744837113e-01
1.791539415699197058e-01
2.343467710812862370e-01
2.256236680831448238e-01
1.994057106630841569e-01
2.828135840901029874e-01
2.435627347546315824e-01
2.466329426013616766e-01
2.403745447607106012e-01
2.415505040542750836e-01
2.125161331753938898e-01
1.861911929154843048e-01
2.753932901784835741e-01
2.071020315777088172e-01
2.767957050385056461e-01
2.304386967248112927e-01
2.646515773365112345e-01
2.223266611011018856e-01
2.370681446773106049e-01
2.833645901327353500e-01
2.620539977028275569e-01
2.631575005024609504e-01
2.701100545460012881e-01
2.139667469728974147e-01
2.316204050625712829e-01
2.553083879356154440e-01
2.205586597947117034e-01
2.503231602903612241e-01
2.084075723015960113e-01
2.043959544153410024e-01
2.325001987814764026e-01
2.612375409845122398e-01
2.713312763736224209e-01
1.699957129843012171e-01
2.197205974366053527e-01
2.104889211922508219e-01
2.330974434503560455e-01
1.941271566005859650e-01
2.406202460268835885e-01
1.976793665406769707e-01
1.681488005842407540e-01
1.368509656984360501e-01
2.159110220728513718e-01
2.131204451753185014e-01
1.949568224478928635e-01
1.865976849118475278e-01
1.281391104384178581e-01
1.851152785797092193e-01
1.357146209044999552e-01
1.776025185650690896e-01
2.017245712711263905e-01
1.580025852687637622e-01
1.602000118646941251e-01
8.600540480776446006e-02
1.619972357817051622e-01
1.666455698108564309e-01
1.246041289444327627e-01
1.081742366886411788e-01
1.238164345412492290e-01
1.283662763004174423e-01
6.409920983174918763e-02
1.663064955457921879e-01
1.001907611379173058e-01
6.743292539565952370e-02
8.528736819070101283e-02
1.467821398398728439e-01
2.233975993163450288e-02
1.054858996360380219e-01
1.280224747603025126e-01
1.033526280602682507e-01
5.864507444323915908e-02
4.787603363481950092e-02
4.556525078356258446e-02
7.044073871391030861e-02
8.089027928828383673e-02
8.064790178153687095e-02
6.169905222241479914e-02
4.484117057928401623e-02
8.347395620810567352e-02
8.941688003506419180e-02
4.485836554668715115e-02
-8.169002424718463384e-03
5.914573947233239815e-02
8.478864539743678763e-02
1.412189486227981988e-02
3.783247024175458162e-02
9.539632784027339552e-02
4.573395175899591658e-02
5.970073679077439466e-02
3.977862565901529868e-02
3.265353896065141537e-02
6.210583673774647262e-02
1.031552958186583574e-01
6.390254893458552354e-02
2.010741889313170591e-02
7.315256945824669121e-02
1.099763599047040991e-01
1.296562218442017245e-01
7.201818353675512596e-02
5.811831859604894152e-02
8.924277642844538616e-02
7.482277814077403777e-02
8.486565853601302223e-02
1.284545267469916485e-01
9.430677226505727873e-02
1.083295047986115589e-01
1.258160489071469545e-01
1.554091461444782329e-01
9.532694830252214091e-02
7.572165514091450111e-02
4.966993134994194398e-02
1.414626085837120961e-01
1.203725389865280271e-01
1.795420798533148565e-01
1.533054786397052838e-01
1.233376257147291433e-01
1.532043374805715785e-01
1.963912254560838955e-01
1.816443298605484591e-01
1.481528699024537710e-01
2.099189725936550510e-01
2.167670004871858624e-01
1.646083138584277794e-01
1.617145357382737125e-01
1.469142604207683556e-01
1.710144338270496167e-01
1.800680784233174569e-01
2.195306703596449915e-01
1.963460611193737493e-01
1.561230457382909442e-01
2.045521358930139921e-01
2.187433432449406023e-01
1.860773166195818784e-01
2.151984654432180233e-01
1.759809340898404462e-01
1.617576341183373234e-01
1.619438478504000301e-01
1.712772732114142271e-01
1.580533742624037341e-01
2.276957369090551464e-01
2.028325955416863391e-01
2.343658437951941509e-01
2.041362830073880641e-01
2.296239461699505768e-01
1.953831860683472588e-01
2.196815247258773196e-01
2.615290517347586552e-01
2.597310772931189504e-01
3.659679465739834048e-01
4.278853121252315650e-01
4.414283821117090389e-01
4.823064849692879075e-01
5.091581572343120143e-01
5.951151641274018411e-01
6.815489402980575706e-01
7.792774217272768755e-01
8.477592839327285912e-01
9.389118802098634919e-01
9.578950167013375872e-01
1.066189197971451952e+00
1.120829321937176548e+00
1.172720504032351174e+00
1.265453645616409162e+00
1.314746384127454037e+00
1.383587952888776007e+00
1.392431234262264672e+00
1.383400488953628438e+00
1.428325742568256729e+00
1.392339395713570793e+00
1.338458104823089467e+00
1.312975987520917487e+00
1.312624292622103672e+00
1.285203723628005834e+00
1.197142060965595389e+00
1.153836148076222479e+00
1.022161303841320423e+00
9.434616526851242746e-01
8.999419725240600521e-01
8.006484069502364243e-01
7.258655518549622654e-01
6.504883639097107650e-01
6.194555515662295564e-01
4.988320771046838575e-01
4.054421788970511420e-01
4.211309681879766287e-01
3.833321815933284360e-01
3.715130618977728894e-01
2.600169843416603732e-01
2.855845820437771798e-01
2.845889633310236810e-01
2.301333167942084534e-01
1.967295018502856763e-01
2.302262208793099119e-01
2.136620280198976707e-01
2.160408591047314197e-01
2.247634223439247680e-01
1.475502947574337809e-01
2.711564181897559433e-01
1.895433661949127713e-01
1.716176448483138772e-01
1.742444558127058951e-01
2.325806178496642174e-01
2.191592068935594717e-01
2.556860981622208207e-01
2.244320231779706187e-01
2.556265943065901269e-01
2.429499832948848470e-01
2.424835735715453466e-01
2.857596882966735308e-01
2.628675523021631877e-01
2.509877499309856597e-01
3.247957740280854599e-01
2.945338912000264875e-01
2.524542580250843105e-01
2.044387072446577913e-01
2.507926707103205199e-01
2.564618563825095676e-01
3.163926710452147351e-01
2.810279832994307392e-01
2.906783099481384802e-01
2.689414142344935255e-01
2.613143189990739246e-01
3.417194805227441456e-01
2.639380958444567105e-01
2.801974527906494483e-01
3.097541390246791870e-01
3.094881437989051576e-01
3.236082591556350141e-01
2.983703958068170126e-01
2.836354344384887094e-01
3.080382522895981356e-01
2.275838441119377720e-01
2.809987790573557076e-01
2.987926052050948189e-01
2.707356403843078074e-01
2.847577121545654677e-01
2.725795067070851951e-01
3.453972225932027129e-01
2.932121412173154806e-01
2.793392296301379085e-01
2.792168638173357920e-01
2.919574240025845091e-01
2.279938452581536379e-01
3.082769792815264198e-01
2.361955576973346072e-01
2.446306570578609951e-01
3.301907415054180506e-01
2.751405495080450625e-01
2.413781804993414826e-01
2.059538491223213974e-01
2.764958454908479357e-01
2.318143655728969188e-01
2.590139360981215666e-01
2.433305761191273398e-01
2.567049103547325295e-01
2.196587520902937296e-01
2.040188902699251183e-01
2.355907401850360350e-01
2.308240104436085904e-01
2.647020890944836169e-01
1.557368698675207219e-01
1.928623690811957780e-01
1.721794204298169317e-01
1.538995567970662948e-01
1.430885838158240109e-01
8.781877451083232311e-02
1.193990412760073117e-01
1.569400847499705653e-01
1.255253235390617061e-01
1.862981816774391119e-01
1.196740506986326003e-01
8.285321071833379181e-02
1.563813843375828905e-01
1.962817192360231111e-01
1.700462124293023181e-01
1.238381745479903567e-01
1.385787905492968097e-01
6.390385136494911023e-02
1.336909618262826227e-01
1.498151178195966104e-01
8.263427911989204566e-02
8.300739817300584189e-02
1.420368503512584590e-01
1.540992877253539173e-01
1.011538716911161567e-01
6.984788655202961438e-02
1.246174517882634170e-01
9.024764627871909028e-02
8.314482056845720614e-02
1.072427817577355502e-01
9.085163640916327221e-02
1.240621261411669063e-01
7.548729270712048467e-02
6.520183266825139989e-02
9.996271870787303004e-02
1.036775151281594115e-01
6.186907965034288415e-02
1.146701918881651294e-01
5.960057264817501116e-02
6.595143950141600653e-02
1.068439388314796068e-01
9.933749782143641571e-02
1.902596543218904035e-02
1.185016868088791531e-01
1.158520482295891663e-01
8.645020389348054279e-02
4.549259379681685339e-02
3.870352953852415623e-02
5.039727443526842432e-02
3.334044435713220955e-02
3.428419199481669288e-02
-1.168699336611610240e-02
2.140115566559415428e-02
6.223575970494595044e-02
5.849679849929108333e-02
2.544120144091142205e-02
5.601080969444880570e-02
5.338089596397387754e-02
1.206011067017047356e-01
4.519286281060540950e-02
5.475635277170148169e-02
4.818962492959204258e-02
2.136790595547874427e-03
5.428171214905717912e-02
2.913044672240329772e-02
4.964867282452050529e-02
5.713050890471607635e-02
2.307857411837755876e-02
4.274871903542230150e-02
4.168965587388209770e-02
8.079752990706233484e-02
7.552459817921518270e-02
