1.441230315584104638e+00
1.459066631617170096e+00
1.447290334127147915e+00
1.354013368831307629e+00
1.400423447718887493e+00
1.281890356307826773e+00
1.240496489026312377e+00
1.178966232330815433e+00
1.110867886099593083e+00
9.832611162708594366e-01
9.813467953333068206e-01
8.278786783715360587e-01
7.957990806971645403e-01
7.072132118925001931e-01
6.502461118028541875e-01
5.574197772547374585e-01
5.409289211385345242e-01
4.687675519877433361e-01
3.859979525478451912e-01
3.612910584658027280e-01
2.941245164306671711e-01
3.252994324824240446e-01
2.629301533157138993e-01
2.564921552272436123e-01
2.484080230945208134e-01
2.101434442166931205e-01
2.121598885358644548e-01
2.706341869043281112e-01
2.125173514931887331e-01
1.618703735438407343e-01
2.037740750516231214e-01
2.318793159658626424e-01
2.107971140301667656e-01
2.112970002767547983e-01
2.029598272687714866e-01
2.386897015498855579e-01
2.378931519105172421e-01
1.745556980566380090e-01
2.392320324705998202e-01
1.781044021320813409e-01
2.237993706051289444e-01
2.222959850207324728e-01
1.974860897630491829e-01
2.515693419195331737e-01
3.370560654443843784e-01
2.651541720366558663e-01
2.123508270021319810e-01
2.938351167328487334e-01
3.214186974776827577e-01
2.661442307987979539e-01
3.292133757762863433e-01
2.747719757120644091e-01
2.865436171326022352e-01
3.161744728956440986e-01
3.161153657969794639e-01
3.430665474815052796e-01
2.452433500018002532e-01
2.714842980601034350e-01
2.766996835024085333e-01
3.316356292687560048e-01
3.427891260730915324e-01
2.618898471064332600e-01
3.135610730067545648e-01
2.840401212688217769e-01
3.281222172035331286e-01
3.058680955008771796e-01
2.539810073322648076e-01
2.520726084899163055e-01
2.635530368565380255e-01
2.959824146063053107e-01
2.694807001996056828e-01
2.931239890413455118e-01
2.515417296087554266e-01
2.734679291452311034e-01
2.712820361373384226e-01
2.294773754105133290e-01
3.111328697092233808e-01
2.611669730098513664e-01
2.620342291790427325e-01
2.764574435930035601e-01
2.485419932194148362e-01
2.404283427897061509e-01
2.577935656605975789e-01
2.038066476001434424e-01
2.547394605245030252e-01
2.263416781530297461e-01
2.235867637890675275e-01
2.335767314685997798e-01
1.557551269003515926e-01
2.438401776234571938e-01
2.186735457342209865e-01
1.928391479106574546e-01
2.541926885936197644e-01
2.038266748959223773e-01
2.256731959681101962e-01
1.714586382291910238e-01
1.667176284293708510e-01
1.422839739377816659e-01
1.624477784629485555e-01
1.480217491890144788e-01
1.378723027200279283e-01
2.050509141475711228e-01
1.373577098366679794e-01
1.144913024827478448e-01
1.590975257230584083e-01
1.565785616631882593e-01
1.457334668608422368e-01
1.275178177308387006e-01
8.709603477676257366e-02
1.084757552882434223e-01
1.054431042107955296e-01
9.870734565585856379e-02
9.831483990860026556e-02
7.394894532718901403e-02
1.116476559357868215e-01
1.237558287832806608e-01
7.677644021898755167e-02
5.805830336963235805e-02
8.792885161763394630e-02
8.252965568213936620e-02
1.036645405814075882e-01
7.741000028410452427e-02
8.265126440483898385e-02
1.016652823532884636e-01
1.131394606250746837e-01
1.061077426081949021e-01
5.571711685721626728e-02
1.467335616740323423e-01
8.692076588932590164e-03
7.400472181654102477e-02
4.295626967597436507e-02
2.951540140804031695e-02
8.603015408779085549e-02
8.043328503665361784e-02
1.777430973676611542e-02
1.025610625755925542e-01
5.226668072926557440e-02
6.676689869094890040e-02
7.130620120267722184e-02
4.517395447387247825e-02
5.914505068056737092e-02
1.022568651860179256e-01
3.959953181851730286e-02
2.735331689419946699e-02
7.492910318625531363e-02
5.108875850627007942e-02
2.299339823227310869e-02
4.222443975423055551e-02
3.014201001819533099e-02
1.107722569375687860e-01
5.720683921913882752e-02
6.431751539704588794e-02
1.585009727757311637e-01
6.924547956399859650e-02
5.488697644383049024e-02
8.589621868700955676e-02
1.072142584295604634e-01
9.755553072846875895e-02
9.281649080104074911e-02
1.796744571047964312e-01
1.268581027292944030e-01
1.441130586484921927e-01
5.232254134836204773e-02
1.603897570685096918e-01
1.029618323446358230e-01
1.466624223539164107e-01
1.406295969393261125e-01
1.371804922874239052e-01
1.724957783045420745e-01
1.217841245189270893e-01
1.416494090966212427e-01
1.453382313595461550e-01
1.504351559715728925e-01
1.108059389565057978e-01
1.902992017396756830e-01
1.995086211789657837e-01
1.072206123619321716e-01
1.446548243987728632e-01
1.926285234306481520e-01
1.887151134868948199e-01
1.612451233026128694e-01
1.612178897422769652e-01
1.796635868594468333e-01
1.830097948348430315e-01
2.046865174281032318e-01
2.001406312135062260e-01
1.913834081092850581e-01
1.247678633592128605e-01
2.178728148872065284e-01
2.482721174631368211e-01
2.221109981950540324e-01
1.922027991534984714e-01
1.959688670009639977e-01
1.924334049729837792e-01
1.636214046158569468e-01
2.180359378178605700e-01
2.080361781012448619e-01
2.854651558321003590e-01
2.895968846975539579e-01
2.925736533225786751e-01
3.185586371442540865e-01
3.883696497273514958e-01
4.224144574680524511e-01
4.778440698105394513e-01
5.105457182935272398e-01
5.769452504993918263e-01
6.441907225682168558e-01
7.061038347431191076e-01
6.983316882759714739e-01
8.884368862489219199e-01
9.339298143460385004e-01
1.025952981706484746e+00
1.145601266519611361e+00
1.196457372641175132e+00
1.251618062568828460e+00
1.290948605988457620e+00
1.364803922571888650e+00
1.350327213799792370e+00
1.406036965587867948e+00
1.443229678755725720e+00
1.466162014975213701e+00
1.395867596697720536e+00
1.393934346700365978e+00
1.358693271154353122e+00
1.322663111217107001e+00
1.294099572582824154e+00
1.196811391460958607e+00
1.110996340926227344e+00
9.731294099316131208e-01
9.577460674634628024e-01
8.343943037041928745e-01
7.864740932076832447e-01
7.190612714220664392e-01
6.472919992459138516e-01
6.020576456068902349e-01
4.634119527958069917e-01
4.742980680388665382e-01
4.027160996988715658e-01
3.707659256328098563e-01
2.922454683674201581e-01
2.602698714055372564e-01
2.371340179098062606e-01
2.168882626271940728e-01
2.480295760228483637e-01
1.759817172819936326e-01
1.964779357339921095e-01
1.758470317419685569e-01
1.851216422410174867e-01
1.743581907794177210e-01
1.823557605187102748e-01
1.566439477546258119e-01
1.822305488699447196e-01
2.138668041482740534e-01
2.151798663739108719e-01
1.417511242765507606e-01
1.676849288303616514e-01
2.497236228218608078e-01
1.607259719747459181e-01
1.634299603402207257e-01
1.687541292824328576e-01
2.501838219292424892e-01
1.949163552455044635e-01
1.962924257905956649e-01
2.484381873648076056e-01
2.167080517482037338e-01
2.368465122674868195e-01
2.180389611591528054e-01
1.910377394228545689e-01
2.324488546820658030e-01
2.176102768405460963e-01
1.499601328041779980e-01
1.860330780467624734e-01
2.449330692383779318e-01
2.630196685449613381e-01
2.294858156571027430e-01
2.437598772444251327e-01
2.819888406895361688e-01
2.085914925350916549e-01
2.772318264124684628e-01
2.159852199542762752e-01
2.724500667767487672e-01
2.314521086539525485e-01
2.477827892072903826e-01
2.401069609150056905e-01
2.841514319679834810e-01
2.523525507202166729e-01
2.018131820350984318e-01
2.428813353436486966e-01
2.333986895169378462e-01
2.276464186793952515e-01
2.657175632941747301e-01
2.697515858695515023e-01
2.769464933321561517e-01
2.043755953723159491e-01
2.482008650171071973e-01
1.849436546691004268e-01
1.943327427379999139e-01
2.305521254755424632e-01
2.353471723786059178e-01
1.804288082824384298e-01
2.108579421903248596e-01
2.155904570166104206e-01
2.228942304787888407e-01
1.586692659848484843e-01
1.745242814071574222e-01
1.265606968479955630e-01
1.886632548869716097e-01
1.572300302981120557e-01
1.459058902496550569e-01
1.424722631738194467e-01
1.232534453852789785e-01
1.662117216217748328e-01
9.504918239552921644e-02
1.682666938917452559e-01
1.378199030902481081e-01
1.219653480278726915e-01
8.891195106221810862e-02
8.550353455910766898e-02
1.467166051131297277e-01
1.022696768135187839e-01
1.045768768410735294e-01
7.854377235581171124e-02
7.063381659177701832e-02
6.349014015649519227e-02
8.159499179159171445e-02
7.486281737246872070e-02
9.940027792988161137e-02
1.225822215637635965e-01
2.214282314044527245e-02
3.031976296850329849e-02
9.148723525389536315e-02
1.020476274118125026e-01
6.445476059586192907e-02
2.611853585268749528e-02
2.328207599165983688e-02
8.777363443492172679e-02
-2.967107275921674475e-04
4.730211114820686430e-02
3.906953410525258741e-02
3.489570346959936648e-02
4.925718844756751119e-02
4.346733109147000312e-02
1.705250617304881339e-02
4.272109675012374791e-02
1.960582439779728903e-02
2.300347642406576354e-02
4.068951276803380035e-03
1.786690347998802844e-02
3.193862985561343737e-02
-1.069550518891105792e-02
3.007492082772039721e-04
-1.743480165057734177e-02
2.726204045951297755e-02
4.693304833144745780e-02
-1.202253033632790999e-02
4.373195913006326652e-02
-1.358506773024885025e-02
2.720416649605686063e-02
-1.570519177566475841e-02
-1.581961893845936981e-02
1.552934170543847359e-02
7.997025433543747397e-04
4.746408861623901271e-03
-1.981019766051451622e-02
8.924151608404705394e-02
-3.820821544352072385e-02
5.580536220656440866e-02
-3.576726677483370309e-02
1.793141708680238630e-02
1.880266701623662176e-02
9.513841451207687150e-02
2.225151789661748702e-02
7.747424031934205257e-02
6.647764988229362682e-02
2.180104562906082233e-02
4.745937818319830026e-02
6.670524896469204323e-02
3.862953900188272061e-02
2.118914416240537044e-02
1.179300540347609227e-01
6.254911730114426360e-02
3.672652387126787432e-02
4.647122221121613439e-02
1.096759084826933600e-01
6.705533870487323522e-02
8.980995111555915844e-02
8.795020463726066495e-02
9.862591507395428170e-02
9.622625524507716355e-02
1.153005156430545602e-01
1.025511537154250447e-01
1.456007167741273645e-01
1.387563036074343503e-01
1.873027565438178943e-01
1.299439184159374427e-01
1.555314174415546313e-01
1.147783453239159535e-01
1.591766227282433721e-01
1.397795431110542552e-01
1.388395955042447394e-01
1.508552098335600999e-01
7.541748553438697156e-02
9.070806798889911871e-02
1.061660909823261417e-01
9.705568194485909850e-02
5.943708998993695036e-02
7.522887341365572245e-02
1.106806944925690234e-01
1.020604370360013308e-01
9.487431539030879990e-02
1.003693524662321868e-01
1.553502555572997823e-01
1.606393977306880549e-01
1.059570103326332724e-01
1.665901947176000319e-01
1.430632320972748395e-01
9.841231318372670178e-02
1.607332752126919839e-01
2.304695170522714220e-01
2.367203140888766710e-01
2.913047891593879557e-01
3.337507070053121749e-01
3.850510034420372429e-01
4.192922975017173148e-01
5.304074090007586673e-01
5.684397293507782445e-01
6.533646073289939293e-01
7.108896510776469002e-01
8.012555102707157317e-01
8.981875388785027781e-01
9.288914350603633130e-01
1.029744036344235614e+00
1.109258192164517043e+00
1.170492872228046322e+00
1.251908241094231711e+00
1.235428486111065371e+00
1.328206009121505549e+00
1.311230648575712365e+00
1.308511997489912426e+00
1.385147802797388694e+00
1.352734928164595063e+00
1.360621462762968470e+00
1.378302098791972075e+00
1.338017757961390108e+00
1.182406063347093639e+00
1.169293426604988806e+00
1.059239317035306938e+00
1.018368450599035580e+00
9.309326675663304185e-01
8.271776665460214284e-01
7.588789515236946670e-01
6.613538779404837253e-01
6.441025035424755574e-01
5.610301093530183358e-01
4.722166570609492853e-01
4.435632699708380589e-01
3.783975255958469952e-01
3.102743870895007250e-01
2.320424567591701792e-01
2.295422489889203665e-01
2.376472880264508813e-01
1.746796129024593414e-01
1.537372199525378624e-01
1.971196839944920343e-01
1.239069717086600519e-01
1.461682545552774881e-01
1.049668877371438547e-01
1.006402049295093137e-01
6.098483633352032307e-02
1.437190408108648954e-01
1.532660676979533676e-01
1.273368973727621034e-01
1.067788455773631268e-01
9.909127105097506605e-02
1.049247063327199136e-01
1.432769369985028574e-01
1.298826822626813760e-01
1.578675397540396652e-01
1.556740528777032784e-01
1.046238336858669321e-01
1.869807547484584331e-01
1.438952387500860575e-01
1.711643416767688886e-01
1.403822747296032125e-01
1.977945429552428469e-01
2.013611596107693635e-01
1.794275331363099635e-01
1.499781945053345333e-01
2.183470458306371320e-01
1.646155341064374777e-01
1.932503269955169467e-01
2.410427439959493268e-01
1.909816153667601990e-01
1.898430640495477051e-01
2.477212818806432404e-01
2.036516790816930711e-01
2.219739069406159448e-01
1.886567055908949520e-01
1.949212735165369303e-01
2.529719247171678953e-01
2.052836174204513975e-01
1.923913859441563345e-01
1.800765935615529501e-01
2.058419429098884423e-01
1.500398697569993167e-01
2.270379696170988781e-01
1.322791901116622815e-01
1.880498843972469025e-01
2.434517639677681866e-01
1.963188314757109143e-01
1.736603334497581752e-01
2.452577952527232874e-01
2.279517557949751194e-01
1.818883934470775787e-01
2.111822323549289171e-01
2.109989924505425163e-01
1.783603165217573505e-01
1.852388218614998416e-01
1.023176331423076291e-01
1.821815244480342599e-01
1.184412865193854303e-01
1.648817117341588034e-01
1.239593890418241029e-01
1.386914833299504601e-01
1.159525666951756184e-01
1.450448082399102279e-01
1.165424048734175211e-01
1.453180658485030974e-01
1.697719533092136024e-01
1.438241598002609756e-01
1.077308726005196671e-01
1.356152560390842532e-01
8.198260055548278746e-02
6.954872362153180498e-02
7.023712549399879768e-02
1.176962459636156644e-01
2.913992330026091843e-02
6.776019366426590251e-02
5.059036876426331597e-02
7.464453832470760442e-02
5.821949590878094244e-02
7.722229598797644701e-02
6.853129697378840257e-02
8.625071801250557002e-02
7.154471298809968183e-02
7.746780767567511272e-03
2.695124075112202700e-02
4.710617356422087953e-02
-2.028371282457344660e-02
-1.157947034928995256e-02
-3.628307308762767497e-02
-1.569371658401902403e-03
8.630143531815695490e-02
-1.122491338605562106e-02
-4.555387819286037948e-02
3.114232088599622195e-04
-9.397482858428791996e-03
-2.323095236196320162e-02
-9.726393968136756718e-02
4.503891477227012913e-02
-2.067859094117290020e-02
-1.697071426502500674e-02
1.443181205905358366e-02
2.027360802218897140e-02
-2.438892853168804498e-02
-2.873970459016544909e-02
-7.144700398975864508e-02
-6.360948278258075905e-02
-2.004150254269905854e-02
-7.459098453034605780e-02
-3.652895532045263849e-02
3.551347744042934740e-03
-1.198205996100977500e-02
3.924672274723914334e-03
-3.000368757168666439e-02
4.113520497494548012e-03
-5.636345812139304662e-02
-8.423174197117702655e-03
-5.087099578926949917e-02
-3.507764456488418614e-02
3.195019463217367572e-03
-3.998645780103354808e-02
-4.717200357489133300e-02
-2.315582181902705455e-02
2.492730066681297929e-02
-5.878233752024203396e-03
-4.145361844364866405e-02
-5.199237978393229931e-02
-2.108693995109316155e-03
-1.136616649817245167e-02
1.360230835403555827e-02
1.998585286749237494e-02
9.135390687448549651e-04
1.507458439586003424e-02
-9.433438875345076524e-03
-5.596698547646483668e-02
4.612856234239976622e-02
2.169592283311179426e-02
3.926130573016701347e-02
3.997731243701529297e-02
6.124718925448351114e-02
1.759447031973754988e-02
2.043468158634174220e-02
4.420516419901057703e-03
3.316798705862723795e-02
1.062224713980583213e-01
1.036953885929464692e-01
5.817342098790832805e-02
7.568809982421290106e-02
5.356093544050125749e-02
6.066991698800033861e-02
9.188575562610623582e-02
1.673157282101447874e-01
6.871518685544088234e-02
7.683885330897990973e-02
9.724478232103947462e-02
1.381588291382493394e-01
1.138652517498628669e-01
9.423438313366039321e-02
1.174467233101422897e-01
7.447628627402870516e-02
1.394627594276010574e-01
9.825607095128610635e-02
1.424254541938401730e-01
7.242580164333417558e-02
8.427136903505447196e-02
1.174271229850986087e-01
1.520870851120603717e-01
1.379041113474578639e-01
7.765409364955999649e-02
1.238549309821422029e-01
2.144258997097039099e-01
1.489682238038467776e-01
1.472249653158493043e-01
1.352035228682377799e-01
1.122600983967650540e-01
1.681607232064495638e-01
2.441275962914633557e-01
2.578499665284705866e-01
2.267989262807221795e-01
2.525880854317713586e-01
3.202156447559180164e-01
4.151516250583374146e-01
4.498025476507003795e-01
4.960186425036747226e-01
5.510811980455952996e-01
5.974663886497708631e-01
7.258156596730086507e-01
7.887816792886200856e-01
8.949824150139928935e-01
9.679867894467188982e-01
1.014250244664282041e+00
1.107315617354209802e+00
1.120710488992550102e+00
1.276018287754878910e+00
1.256204729579727619e+00
1.295172700978235003e+00
1.363266953813630389e+00
1.348589663676347250e+00
1.383934497483569892e+00
1.349683364079788284e+00
1.303482459768078083e+00
1.262817222806578155e+00
1.247836260292161548e+00
1.168136586696059576e+00
1.084323137143728299e+00
1.019678442632301563e+00
9.423641841309001732e-01
8.497796772840313650e-01
8.259350534836509272e-01
6.555669661940042303e-01
6.702462727903909512e-01
5.669509396656121636e-01
4.746675181436560975e-01
4.562332894398225536e-01
4.205069021052855183e-01
3.415431133637101269e-01
3.051635917502492079e-01
3.464434074079780768e-01
2.101151242894034321e-01
1.532842348901096163e-01
1.908685524730010241e-01
1.328631228249043950e-01
1.225331267483803221e-01
1.048910471099672725e-01
1.015114831469044465e-01
1.276770331532206260e-01
1.390901913135402235e-01
1.060075099316027114e-01
9.664855046961426388e-02
1.139599562786081932e-01
1.328213146854546056e-01
1.112801934521311376e-01
1.691687807541761845e-01
1.399241857038568959e-01
1.484323527562520506e-01
1.276349067386356173e-01
1.423132317146669767e-01
1.675436357281167854e-01
1.186719307860186479e-01
1.962593829240512622e-01
1.262412990300822990e-01
1.554227496922139518e-01
1.464148595835431665e-01
1.717405395842045157e-01
8.697289909796433738e-02
2.122586456664638244e-01
1.277656001852803813e-01
1.985583239159571800e-01
1.665912275569099987e-01
2.279084377279692042e-01
1.970003989335617489e-01
1.739408921531164220e-01
2.290979929184343844e-01
2.137785910278608148e-01
1.420158721725763296e-01
1.600973313021986921e-01
2.550880503880809114e-01
1.477833352902027664e-01
2.248104143876164251e-01
1.837095526378004773e-01
2.027491608083867858e-01
2.116523008857566501e-01
2.009582212645455446e-01
2.322975136406676411e-01
2.600631976252875677e-01
2.261968455774883702e-01
2.498284807861730350e-01
1.645349772134753474e-01
1.661192542253545901e-01
1.891986034999529054e-01
2.079175458935326737e-01
2.221666299427589308e-01
1.701442599754337814e-01
1.378775851073097136e-01
1.251843363879089066e-01
2.013499951630842721e-01
1.937377887825482703e-01
1.340844793147352443e-01
1.275031414645922401e-01
1.283898202548666989e-01
1.607601975981501063e-01
1.608504911933252846e-01
1.588655398019686582e-01
1.986194314423625207e-01
1.879758748697042403e-01
1.044762295895919901e-01
1.658504925837486210e-01
1.369064747455378539e-01
1.135559810647919082e-01
1.306598152503329335e-01
1.218515731825046133e-01
1.300599459241109646e-01
1.247258824598781735e-01
1.359296733781038824e-01
1.249783583659684616e-01
8.025908456892275056e-02
5.895059211072510574e-02
8.119130821897799222e-02
6.859419252169213221e-02
2.359002449630571291e-02
5.985632797645136505e-02
6.022562268625874377e-02
9.572393340398388517e-02
6.247464796529455383e-02
1.091000722558288644e-01
1.081612025797117072e-01
2.730295770206279948e-02
4.219931404332661479e-02
8.517295430256918709e-02
3.109096743671696528e-02
7.321254360416329376e-02
2.929452308021056328e-02
3.248309251058361519e-02
5.815553333223116850e-03
5.412714772744221109e-02
2.677128786563714308e-02
-2.195261331492830842e-02
9.919243726002661965e-03
6.122291721612747178e-03
-1.237501510522980019e-02
5.403591223132633153e-02
-5.968543211506190105e-02
-2.751419550551952725e-03
5.044234477839639602e-02
-1.295939744053482140e-02
-2.528508414303094753e-02
1.389114340672127981e-02
-5.330296647260735626e-02
7.783286658004621994e-02
-1.846674737339228795e-02
5.240318141929402318e-02
-6.867340520887173227e-02
-4.329786037668234555e-02
-4.057528474060124318e-02
-4.481051256183608833e-03
-3.766259370760186020e-02
-2.036130948658424270e-02
-3.489632041324259443e-02
3.210891816644072250e-02
2.168705498882272931e-02
5.251373909057009681e-02
-7.050545990874873548e-02
1.611123795736125325e-02
3.300367546587537615e-03
-3.690791872511704763e-02
3.687636001742422565e-02
5.611287876956169707e-02
1.091351881716046135e-02
1.898447658443380009e-02
1.164492120919440390e-02
5.463738112639730804e-02
2.357633322411572738e-02
2.214093194356760511e-02
5.047719888977206942e-02
4.519700301376894380e-02
5.218074507916042881e-02
7.750657275154393400e-02
1.123395154102111437e-01
8.607091676239579658e-02
4.425825765003700563e-02
5.684908988191629542e-02
1.442308227699824752e-01
6.850296521059517918e-02
4.819478602338707340e-02
4.355352403285729646e-02
3.292710389576118668e-02
3.782304127694930546e-02
1.605170495046278067e-01
1.255282668852694405e-01
1.141386898204357070e-01
7.219964382566840255e-02
1.045222895215503905e-01
1.503926327960766474e-01
1.108598558031926723e-01
1.999951313927113283e-01
1.414444841954612953e-01
1.488708179248266206e-01
1.291703469374975433e-01
1.443891652745847298e-01
1.295216563344798177e-01
1.355974004980520509e-01
1.334716066596790263e-01
1.264213983469056612e-01
1.739109265300939622e-01
1.702631928870916300e-01
1.520907921740662916e-01
1.393776222354475292e-01
1.551225484229017404e-01
1.429839377134109468e-01
1.487091165990164776e-01
1.437566834087521395e-01
1.536058638662710918e-01
1.505663072964377180e-01
1.458679014399448526e-01
1.885748775656789500e-01
1.911034675993650844e-01
2.538920251360829994e-01
2.943150468085075078e-01
3.556523791694399250e-01
4.093415986134607554e-01
4.089699046689256878e-01
5.014275985088633147e-01
5.086992746359562112e-01
5.816674444718927806e-01
6.447297476339253208e-01
7.246191838433457821e-01
7.256420516496807638e-01
9.163562372729106009e-01
9.348758285621452391e-01
1.022592255786402005e+00
1.135501983646604041e+00
1.209562338639528667e+00
1.184291248621118120e+00
1.285601729170820384e+00
1.270324218667184590e+00
1.377349688551914308e+00
1.418851307136544060e+00
1.356473321126345333e+00
1.429837701151521312e+00
1.348795323283537018e+00
1.364472596566338236e+00
1.257725194169944993e+00
1.215071423281568030e+00
1.168718079833390711e+00
1.074611431734098010e+00
1.032573562329053285e+00
9.146821617122827819e-01
8.324547381520890355e-01
8.027630658053858115e-01
7.289055590028439280e-01
6.317523337984111143e-01
6.295889934721845549e-01
5.060540293429351966e-01
4.300412013896551811e-01
3.769283172611198607e-01
3.237492104438352003e-01
3.478201208572289649e-01
2.952693645670773637e-01
2.767064141541277222e-01
2.427119323649994942e-01
1.731219633067116459e-01
2.059382294570380190e-01
1.987882964091431948e-01
1.743492215085056529e-01
2.040878065035410527e-01
1.602690042941687931e-01
2.014860716220532311e-01
1.454947835061247974e-01
1.305371701375135640e-01
1.215702523511498212e-01
1.663367865016596447e-01
1.485286395573620633e-01
1.374227374432590576e-01
2.416641677864002913e-01
1.779116605395305306e-01
2.059412632051818015e-01
1.544209826100606808e-01
1.735527266339717822e-01
1.788381055456517710e-01
1.977761201596128504e-01
1.873171401580780437e-01
1.873467073253100579e-01
2.330683944952466335e-01
2.249151397638345651e-01
2.271093655524600852e-01
2.317538516770700496e-01
2.096933230587851027e-01
1.681438159345285954e-01
2.523169334186866064e-01
1.978067398982784331e-01
2.081598635838733113e-01
1.994056055482275602e-01
1.785460679260451877e-01
2.423085116142445761e-01
2.147159793313584975e-01
2.196458299169609940e-01
2.455128817652890982e-01
2.704462417606726121e-01
2.205125222850336519e-01
2.754060012908671751e-01
2.517533410348638534e-01
2.363123789913219031e-01
3.124716887452292369e-01
2.687209203902065080e-01
2.505621182690807025e-01
2.174224053099923504e-01
2.614375526499004287e-01
2.829064178325018664e-01
2.228552086108471220e-01
2.644467665599963269e-01
2.455235304393718065e-01
2.279127616232477505e-01
2.593533637070579156e-01
2.039533723910711693e-01
2.741503340777014519e-01
1.967362080904236366e-01
2.546128931189599598e-01
2.333212920645715838e-01
2.794250648677516491e-01
2.061953359267372221e-01
2.401072526266394003e-01
1.556649782257459314e-01
1.805071697975291767e-01
2.052099083758541498e-01
2.146265505632717618e-01
1.991080607043487771e-01
2.262857715024718941e-01
1.780962575451074947e-01
1.686674233476399831e-01
2.142763898493599828e-01
1.265358508034619411e-01
1.441992751593082489e-01
1.589678355125492826e-01
1.805467355292567633e-01
1.586803371987214051e-01
8.875662166509062923e-02
1.470932211095234143e-01
1.492982586769109055e-01
1.609344389124497676e-01
1.446229332772892284e-01
1.350826906889853740e-01
5.052492431732973771e-02
1.098591054703005054e-01
4.836909493996323361e-02
9.872689504266059235e-02
7.202815037368397177e-02
7.694794612074604134e-02
1.012557080123811654e-01
7.998219328559846852e-02
5.960669518580191673e-02
8.392863303736675107e-03
1.193488060501272513e-01
9.454177423836769567e-02
9.521207559936833986e-02
4.286427559947958432e-03
4.209943706678359598e-02
6.703497119109197433e-02
6.321398077010620398e-02
6.368855951596000264e-02
4.266515429628443129e-02
9.673831583938714840e-02
7.399687452008565924e-02
1.077986582576209579e-01
6.635621996475886408e-02
8.151324018151671902e-02
5.029715195386336157e-03
9.019626894330434741e-02
6.767821841967888025e-03
5.648499259999796573e-02
3.089365572539512494e-02
8.074671660174483068e-02
3.442966609465182570e-02
6.938178301352668220e-02
1.925725520875450070e-03
7.186561725075843454e-02
6.758983544005124633e-02
4.940685235318890978e-02
1.063953694402779426e-01
9.957975307928307318e-02
8.527273335614171668e-02
5.674986054259013868e-02
2.187968627233871990e-02
6.929827727455441233e-02
7.480072042106661323e-02
6.662508405259341682e-02
4.750802951603388252e-02
7.096927055448068455e-02
9.309450428876633876e-02
5.927914693863096940e-02
1.272013835186692754e-01
6.787472696475961575e-02
1.356966979473683277e-01
9.509871984401309375e-02
6.273462396252291184e-02
1.448735747899673187e-01
1.219199760894546791e-01
1.162091250818115679e-01
8.770687355706630051e-02
1.437769476393269685e-01
1.441789051934899979e-01
1.594356316542117902e-01
1.402586614332179127e-01
1.453704374073129246e-01
1.096120757145671865e-01
1.051307624716161238e-01
1.342537119423554970e-01
1.225391208543590987e-01
1.761436481140422616e-01
2.159841045505647150e-01
2.099027747432364310e-01
1.597138373209583684e-01
1.396485270531215295e-01
1.880354382028271432e-01
1.791764957213402565e-01
1.362216524414460173e-01
1.126965705127755124e-01
1.687453336916015789e-01
2.179692982968308990e-01
1.773356036151144122e-01
1.590880435228540501e-01
1.516009205635178714e-01
1.553570886012776986e-01
1.769499298865648274e-01
1.965113357370390501e-01
2.122788924721873693e-01
2.079276242397317953e-01
1.893135162637478719e-01
1.597346209171524034e-01
2.089278794300303832e-01
1.850760460951908493e-01
1.955625694423297478e-01
2.364057539817998599e-01
2.242449711708062177e-01
2.516969996183375802e-01
2.545684218648510688e-01
3.265440657814269176e-01
3.221966917396454355e-01
3.666372461012335493e-01
3.061595984011084570e-01
4.634790933124046663e-01
4.873580393742983907e-01
5.645155646664978821e-01
5.656572303290944292e-01
6.662786192890571835e-01
7.123525054334273188e-01
8.036958760821586445e-01
9.264777308689899904e-01
9.730889884621066743e-01
1.048413404283583983e+00
1.085024181482140859e+00
1.225739474009186480e+00
1.249560774562096910e+00
1.322814696061275219e+00
1.392405912014882619e+00
1.405315176515716802e+00
1.477662013638086913e+00
1.427091297792563829e+00
1.494359477617452470e+00
1.392579676524983157e+00
1.448377326175216195e+00
1.362540829249818675e+00
1.296856209887920164e+00
1.339075232340584343e+00
1.222817638506305427e+00
1.159833869212953728e+00
1.030024437649359248e+00
9.701969185625947123e-01
9.192457669632855266e-01
7.674672047595446633e-01
7.111318317447310466e-01
6.413718332011596468e-01
6.199217717590638221e-01
5.730738886760693429e-01
4.777012469774541414e-01
4.079261205159574466e-01
3.554218900746814458e-01
3.432782848390275587e-01
3.013097439074533535e-01
1.969943344606906177e-01
2.708244742299920071e-01
2.558614624407702931e-01
2.125141983255596778e-01
2.579099839582345566e-01
2.101164636795825880e-01
2.668568030295027094e-01
1.956775038476863959e-01
2.074884380990668353e-01
1.930954510784554934e-01
2.402879061893349322e-01
2.394677210940617529e-01
2.061472839465630091e-01
2.301385812435935985e-01
2.808018280131456823e-01
2.177768231812143851e-01
2.406920749524380787e-01
2.181257065626274749e-01
2.476904478445232372e-01
2.658166371779048243e-01
2.673581302077154831e-01
2.780070310204448281e-01
2.314728579001659736e-01
2.387526587476933304e-01
2.667151378612759860e-01
2.354595769084619206e-01
2.959299006535511811e-01
2.918924346706511797e-01
3.301454618573222421e-01
2.945797240920471349e-01
2.913975196122089995e-01
2.610336441346054470e-01
3.307331694144762246e-01
3.317566795131670077e-01
3.314675457371403788e-01
2.861626460295845220e-01
2.953794367531466514e-01
2.966271098133350659e-01
3.478927870011270795e-01
2.870249360280328066e-01
2.821329602614686127e-01
2.705169685214473541e-01
2.378492184591333714e-01
2.355853880548224033e-01
3.061114885304162536e-01
2.857599398273502622e-01
2.597921695911556417e-01
2.944988873685194797e-01
2.640506042280372223e-01
3.056133835904214502e-01
2.516615407603451926e-01
2.593760041850766696e-01
2.699628226905917971e-01
2.749765831694616081e-01
2.335803130838965680e-01
2.808207107320172535e-01
2.761103548236781835e-01
2.877981388148954101e-01
2.778855521241490045e-01
2.511129288659745273e-01
2.425586602432640293e-01
2.346140709900019772e-01
2.344579521174600112e-01
2.525411413352278700e-01
2.380380355712224671e-01
2.360776032037357752e-01
2.043913874233534433e-01
2.459728870345967433e-01
2.335011007122951843e-01
2.076226022955091621e-01
2.343464414206783697e-01
2.016576496685961450e-01
2.542231566724127423e-01
1.896085269091221381e-01
1.537163903589583158e-01
2.144156348611259699e-01
1.612996638169778563e-01
1.931814544746340012e-01
2.217461162373118577e-01
1.542432858318001920e-01
1.697126108522002130e-01
2.049112958637945847e-01
1.804631275130073043e-01
1.495791088487546106e-01
1.308144969708672223e-01
1.250333308640141916e-01
8.249151746718730305e-02
1.095305912897686640e-01
1.503364165105424699e-01
1.097861416578571198e-01
9.989286973353975196e-02
7.583472022725609718e-02
1.155052698467325389e-01
1.020449344221359828e-01
9.136441491112654023e-02
9.945400044991263566e-02
1.248075691571672030e-01
7.386208779992967099e-02
9.491619679894824912e-02
2.009819569422061081e-02
3.963835720320799810e-02
1.179264379829065568e-01
7.879073802053414288e-02
1.544968633961852356e-01
3.187802331244657394e-02
1.563747329081582316e-01
4.826138302916932465e-02
1.164935850656874938e-01
6.961173058364780730e-02
9.549143128909207134e-02
1.249477996034322330e-01
6.910490447031562844e-02
8.361099798302337738e-02
4.138902671389771415e-02
1.005293994890371079e-01
5.353089355455990794e-02
6.011293181671698016e-02
6.672745045651057305e-02
8.925113912971274766e-02
5.862701120896624679e-02
6.203740245216421423e-02
1.083381906675067730e-01
1.053173917642796359e-01
2.703463480772474309e-02
6.568268414317560144e-02
9.999691280664393944e-02
1.119170601317142633e-01
1.117337030124856689e-01
1.030262874329967993e-01
1.465587514384255885e-01
1.093257627337962112e-01
1.313420056813372483e-01
6.054640381388577686e-02
9.344373278952272655e-02
1.141170271541641357e-01
1.108708090799864487e-01
1.318274427383920033e-01
1.416495623277332638e-01
9.586059610660147001e-02
1.719051612014638741e-01
1.396997978831334974e-01
2.025489450915460288e-01
2.026282712007872466e-01
1.517855695544206018e-01
1.754610849953729679e-01
1.505594649893138570e-01
1.838419006195795569e-01
2.075398386535602380e-01
2.375769046562296039e-01
1.694314803436794692e-01
1.088009129310183454e-01
1.756465679928695400e-01
1.759362262194051063e-01
2.059490746057987265e-01
1.863075818244170068e-01
2.097809419211774662e-01
1.916532757358849481e-01
2.162182260251115096e-01
2.082279455359237197e-01
2.032873425429797265e-01
1.852470896383241195e-01
1.829564961248379973e-01
1.987507425656745985e-01
2.470497854981122399e-01
1.846543602644321047e-01
1.649338269647048494e-01
2.092859820608586607e-01
2.401587570875651501e-01
1.900686306973384809e-01
2.350246497392607103e-01
2.248531069892627798e-01
1.632992205441568534e-01
2.768722125883396612e-01
2.644446535859726333e-01
2.776099428672393898e-01
2.698827004422350573e-01
3.225317831106898070e-01
2.332725300592705386e-01
3.688370085043112256e-01
3.690798399995628420e-01
4.509557199574906194e-01
4.182373236829385332e-01
5.490771204717845855e-01
5.568803805120325912e-01
6.805790465131145162e-01
6.666138091157993717e-01
7.952002375831854764e-01
8.689402513825574825e-01
9.093325922140971240e-01
9.705499968358155538e-01
1.101290024406767376e+00
1.186670259559836849e+00
1.207828679067747046e+00
1.346739247108430737e+00
1.345943475051515792e+00
1.378010394111693238e+00
1.488194153615840287e+00
1.455609944472363138e+00
1.418511796427632810e+00
1.398635745484274828e+00
1.426775167775473419e+00
1.392557432602305356e+00
1.336989540710979085e+00
1.234045443855841917e+00
1.189802774407220820e+00
1.165960881253722103e+00
1.050121224380142326e+00
9.176410896842419618e-01
9.670725639034775112e-01
8.758900613798047408e-01
7.248246923883587822e-01
7.152782373236152846e-01
6.170850893286217165e-01
5.503673257158526733e-01
5.231276009557015438e-01
4.763861653240940575e-01
4.532704351526929964e-01
2.849869951572332472e-01
2.730162533600445918e-01
3.134368230669620781e-01
2.704998026864443572e-01
2.570908555430179709e-01
2.273130377802364821e-01
1.963901391793065332e-01
1.495797488845187206e-01
1.824163104092859644e-01
1.993438197800699307e-01
2.355598370409566766e-01
2.414988866923776789e-01
2.027425040475333562e-01
1.905320387951743299e-01
1.492960376011332191e-01
2.514954181067969308e-01
1.727268151733431234e-01
1.431071231317836145e-01
2.192622844098958135e-01
2.645643842227111686e-01
2.421483251953214511e-01
2.235096832797551225e-01
2.888951774147505702e-01
2.128294153920868292e-01
2.383429944692934677e-01
2.552388798920897650e-01
2.631619539594366453e-01
2.995816442556571424e-01
2.154668648171483847e-01
2.366703783690326524e-01
2.818919518585029094e-01
2.557192692785751342e-01
2.758888635055031791e-01
3.055054137847962314e-01
2.564903324721706235e-01
2.370557312746555678e-01
2.932023213461545375e-01
2.628995853460916465e-01
3.011137171690249081e-01
2.825081656308748301e-01
3.084207991195700993e-01
2.715221349068931422e-01
2.799864747378408292e-01
2.420579331402481771e-01
2.869475268876024998e-01
3.021034203162026310e-01
2.694840637370076175e-01
2.709716237653032600e-01
2.693467866860216886e-01
2.791525699810823435e-01
2.905763365668282416e-01
3.314501751075799585e-01
2.773881842574912326e-01
2.325077795407491932e-01
2.128672799239840208e-01
1.778273415302952798e-01
2.571130607779710253e-01
2.789537936845095656e-01
2.382882384528494102e-01
2.368272799059491784e-01
1.856248698364362792e-01
2.359136806450802815e-01
2.929641039214596621e-01
2.445707690219659225e-01
1.999643453663725867e-01
1.873543346335563020e-01
2.314937907039261444e-01
2.445126422991740212e-01
2.154021952879937307e-01
2.266800129555796572e-01
2.353332482338709730e-01
1.917765248040523285e-01
1.828503494210996783e-01
1.706016284448484410e-01
1.757836815639303996e-01
2.654094576422735274e-01
1.944706607267926990e-01
1.532303062234640356e-01
1.250772968137882635e-01
1.438979756101386731e-01
1.746155206925942283e-01
1.848149326954831861e-01
1.549903381768370503e-01
1.616770326027658078e-01
1.627275256608042564e-01
1.023358303454565271e-01
1.271396078292030274e-01
6.852822923379256470e-02
5.197308542511609036e-02
1.156258173131884948e-01
7.552616006124796000e-02
7.081845420509252920e-02
8.130448660296085706e-02
8.053724088492350552e-02
5.081332410437056080e-02
8.260977403553561305e-02
8.263561669084618089e-02
4.286529963588972536e-02
8.119215606268535834e-02
8.326313140531702017e-02
3.865700902748037127e-02
3.889683395800348775e-02
5.243991168902856215e-02
4.882196374569815894e-02
2.056355289629270208e-02
8.616433859177557997e-02
6.125827981518622983e-02
8.720482553386343927e-02
5.847525742416533057e-02
3.406559081714631565e-02
1.323928892139807911e-01
3.030467954587287224e-02
8.397755376743915035e-02
1.476548858109519996e-02
6.931457257282389040e-02
7.434557966304952692e-02
-1.228995302068242382e-02
4.380588250487515989e-02
6.524235093318373618e-03
1.084982715971035960e-01
-2.640056664327709163e-02
5.706418460522818398e-02
5.524314929506776717e-02
1.075385230771034456e-01
5.900888098649424707e-02
7.183338656516383147e-02
4.557040788543952059e-02
7.091573965311989691e-02
2.317509785298281152e-02
2.977392766546065397e-02
6.585443060844566043e-02
3.078906168437665902e-03
9.329943499281698194e-02
9.538578244901271819e-02
2.432011211158414607e-02
8.894942766903615738e-02
5.662010921719690115e-02
7.391680036918975294e-02
7.770078624662005162e-02
1.112799328437049790e-01
1.218030297405013063e-01
1.287727504030420078e-01
9.681072792333780819e-02
1.024193936287479401e-01
1.258591513684083896e-01
1.251600988242362600e-01
1.008296061813019340e-01
8.782075254382611107e-02
1.209533513616417588e-01
1.825232816872314756e-01
1.377301985716203325e-01
1.088488890261956332e-01
1.380477471660066235e-01
1.533135693848712289e-01
1.538386818240522480e-01
1.149279261694513415e-01
1.690971094338406255e-01
1.455379805038067853e-01
1.098643384032744197e-01
1.571631322205846171e-01
1.838316172466101239e-01
1.756743870603568458e-01
1.894827273833047665e-01
1.553810962973029008e-01
1.562406203237975688e-01
1.699108516962062054e-01
1.079974177998266616e-01
1.478709604050610915e-01
1.564601046194825373e-01
1.585833328725783642e-01
1.372280273013416485e-01
1.405323297820988415e-01
1.605191880779205937e-01
1.183896422417420324e-01
1.630711749778710751e-01
2.163988948609136542e-01
1.937750151540538202e-01
2.417300566987168886e-01
2.430455857505628703e-01
2.599375568453013430e-01
2.451653721725039203e-01
2.873588942678102498e-01
3.768473317427898373e-01
3.349309320792153155e-01
4.350561759254139571e-01
4.887041488657787869e-01
5.880445179756348395e-01
6.676890966714812414e-01
7.659678591462811825e-01
7.802514978033046056e-01
8.795723639984002196e-01
9.440712835455212781e-01
1.031385990065752711e+00
1.130185875996174705e+00
1.163251689998180183e+00
1.256353727085624428e+00
1.300257642110443479e+00
1.305739067665215636e+00
1.343494552633002659e+00
1.386454261517767073e+00
1.398895421179547460e+00
1.404136845179069004e+00
1.357869926406554795e+00
1.384396872147240831e+00
1.352496909637904254e+00
1.327379162427202219e+00
1.222684963997662910e+00
1.150162176899308442e+00
1.078994809326193627e+00
9.908229418016896162e-01
9.087617122785319745e-01
8.436793841392999926e-01
7.964288077512789998e-01
6.999714178111766660e-01
6.185009646711355780e-01
5.647418148129379478e-01
4.787598327129825582e-01
4.102018111850584403e-01
3.859780160762404932e-01
3.056691227225817875e-01
3.089268594162855042e-01
1.928599950381813533e-01
2.687294680458390261e-01
1.879575542893320850e-01
1.881949040042030785e-01
1.360330389880069768e-01
2.010307155395636702e-01
1.284878781166135797e-01
1.295520901776111566e-01
1.558955898515772265e-01
1.022200133448797066e-01
1.499075797844315605e-01
1.371594527905509175e-01
1.297154095900205639e-01
1.866809357575459904e-01
1.740609389118155936e-01
1.683300179803072227e-01
1.255672690539489100e-01
1.588243219861567579e-01
1.395045045624493940e-01
1.984255806248374221e-01
1.818001297319742360e-01
1.836527787839118131e-01
1.940376029399909774e-01
1.764386619778826604e-01
2.340687549137049350e-01
1.645364085409398158e-01
2.095505158094978226e-01
1.872854542553059332e-01
1.563410010998339539e-01
2.106270880459253092e-01
2.457707630073757699e-01
2.174990869741910693e-01
2.218228567335448487e-01
2.349086699971292547e-01
2.727686882479514741e-01
2.252987322052437680e-01
2.448906486858472287e-01
2.464404172157559358e-01
2.321834409690213263e-01
1.870316642788985573e-01
2.518963372661112698e-01
2.139576155011525538e-01
2.701126194029569993e-01
2.585282227021692414e-01
2.158220911826926880e-01
2.003652107854296816e-01
2.471704364147821742e-01
2.717223382966572065e-01
2.456542533581212717e-01
2.194124814879392649e-01
1.872835817418764814e-01
1.773202109181872821e-01
1.959788909127750944e-01
2.608141708918825241e-01
2.064575212467840704e-01
2.174332082783324571e-01
3.164959671884999270e-01
2.190470275796874977e-01
1.743215629762346341e-01
1.959608963734360276e-01
2.062789617088660044e-01
1.826841019856453585e-01
1.817184112512571781e-01
2.126584610678756704e-01
1.771038060753924448e-01
9.530448622727484553e-02
1.213215370347138083e-01
1.556710751194259335e-01
1.482514608232495534e-01
1.366713587540718533e-01
1.327628610321039682e-01
1.730709219261986065e-01
1.064907276600799285e-01
1.464227820677192204e-01
9.600704573537931219e-02
1.264416523137294746e-01
8.806673916593149576e-02
1.838569737060486431e-01
8.731929916858485741e-02
9.230152853496091658e-02
5.736961302140421159e-02
7.366364943473752147e-02
6.899341296980120164e-02
1.069267662172713185e-01
-1.741596528450218076e-02
3.434269946294316034e-02
1.180454841982898212e-02
1.001145640218876476e-01
7.035786814556047042e-02
6.032304504513455456e-02
2.585906233612199345e-02
7.274148356092753620e-03
3.568491600331887004e-02
4.583727949631180576e-02
4.019224961250458111e-02
3.829900637513994344e-02
5.306606038517146934e-02
3.791908341720489489e-02
5.056514689459798428e-02
-2.456499312012250247e-02
3.390441185203386248e-02
-3.482606448676373728e-02
1.765390879884864983e-02
-7.326934701790546040e-03
1.049145760157212462e-02
9.283292375201035451e-03
6.294072050456928080e-03
-2.105127374419414957e-02
-1.717415463700980999e-02
-2.844241919076187508e-03
-6.497526320206659795e-03
4.188645082802859576e-03
4.074135237500486201e-02
1.336096970576069326e-02
9.504983768989831716e-03
3.671169380309001473e-03
-3.808436281286224634e-02
-7.645175930429840006e-02
3.116724868996482989e-02
3.289537367739334139e-04
-1.811197124084827637e-02
1.879620358435962063e-02
5.598833577299232311e-02
-3.309494335921550623e-02
-7.010727975252650790e-04
1.830775367583410002e-02
-4.720786021667584820e-02
3.547279538669213805e-03
4.102018467682516656e-04
-4.113876055128554143e-02
-1.189390588199069551e-02
-4.022763232367340680e-02
8.632254051236375181e-03
2.383527077044170217e-02
-2.803955248252032462e-02
6.615341741764126093e-03
7.372687413572681647e-02
1.884181530722905257e-02
4.544208742909821436e-02
1.271850062790168268e-02
4.883125312205836843e-02
-1.454178827968673204e-03
6.178036410739277257e-02
5.847622132150079310e-02
9.945770790607785794e-02
6.726306451512087392e-02
2.852348873356978093e-02
7.622470088983086811e-02
1.122939422019249012e-01
3.947083665508802769e-02
9.656920768843016423e-02
5.583794015439800390e-02
8.556892187980645603e-02
7.914765166871934321e-02
9.053989370430873262e-02
4.682788128874488393e-02
7.489796781746289878e-02
1.170404071707846494e-01
1.197076335540907255e-01
1.134917376319860005e-01
5.735611986758422376e-02
1.444085315694817462e-01
1.060798451580609592e-01
1.116012166737085920e-01
3.376920138293659779e-02
1.596273063430330708e-01
1.290760733496431334e-01
9.066643393061954437e-02
9.358741492334383960e-02
1.191865337950939463e-01
9.839833089074931372e-02
1.193824336256427976e-01
9.167553024622977775e-02
1.238381249120587002e-01
1.489742246266687609e-01
1.815783692822670603e-01
2.198817072437863618e-01
1.504038947642458435e-01
2.407215488689669058e-01
1.943206249763788085e-01
2.447118135448461129e-01
3.062042144044701542e-01
3.438207123628791995e-01
4.375075138573138456e-01
5.080607082930087559e-01
5.507523159044860339e-01
5.524685506508705268e-01
7.279681379455684720e-01
7.482103816704601673e-01
8.140144632903273392e-01
9.417829546457801015e-01
1.016738948905285600e+00
1.093388628048086231e+00
1.133583532910232838e+00
1.184803655156959623e+00
1.253599935535778087e+00
1.276540458694776392e+00
1.362738154899896026e+00
1.362213855138181717e+00
1.329479063730717225e+00
1.377204945851919327e+00
1.329088203317035699e+00
1.276243909270759591e+00
1.226601026598506339e+00
1.144515841585060478e+00
1.126714935558688513e+00
1.069485186231580176e+00
9.952388351704065661e-01
9.003191589749754975e-01
8.210467251060283855e-01
8.164779909274384462e-01
6.773108849313914659e-01
5.975221116645832442e-01
5.146079667314429340e-01
4.322682375520041642e-01
4.028759317588819222e-01
3.265445701424796177e-01
3.122493892515634806e-01
2.912791820064092874e-01
2.234435813435373119e-01
1.987239022289435664e-01
1.703558126631575520e-01
1.440931492922877810e-01
1.312401477185327348e-01
1.311829531193719478e-01
1.127507889457605161e-01
1.469260468423111698e-01
1.025623519621549629e-01
1.209793158954819148e-01
1.189528455429817583e-01
1.350140400151874365e-01
1.002836468058697639e-01
1.232616677708256170e-01
1.030455138813589772e-01
1.377034759033278766e-01
6.328647298554937461e-02
1.499754337390070136e-01
1.368489187329990919e-01
1.061971829174666315e-01
1.544214355092082824e-01
2.012382442217751366e-01
1.376666443933678707e-01
8.414833336109067696e-02
1.592442905198015457e-01
1.595083514833356975e-01
1.570633552452378456e-01
1.445452138606668213e-01
1.547592693357829619e-01
2.069482674880324113e-01
1.687154983295999222e-01
1.414239552481094953e-01
1.474116098127362384e-01
2.027034283761487976e-01
2.012792644703795819e-01
2.090856800381941938e-01
2.043390943683114913e-01
1.452852017564978948e-01
2.258594668667074090e-01
1.801031156089145935e-01
1.915824806974714689e-01
1.903961075545274884e-01
1.836279977448393719e-01
2.211110704731260590e-01
2.074587176489655349e-01
1.791520360101333809e-01
2.004596138662741722e-01
2.045258365318648464e-01
1.992028442678921429e-01
2.135506423801837306e-01
2.232752703854191112e-01
1.680004456171709515e-01
1.565066271472614901e-01
1.775483094194564293e-01
2.199482929888973981e-01
1.905849627829806769e-01
1.643477196807095198e-01
1.844592828234045689e-01
1.938518881538017491e-01
9.885263725421764014e-02
1.711590822869524242e-01
1.869841317931952851e-01
2.125795367455699525e-01
1.609420232417095031e-01
1.094498570195305415e-01
1.627195134380650665e-01
1.055716977480027075e-01
8.994980144634986963e-02
8.897567762021801885e-02
1.341240512177353239e-01
1.473978968548949053e-01
1.322559521209808464e-01
6.624862303786233086e-02
1.328243249952202609e-01
4.909299190576273120e-02
1.079051390654117981e-01
1.056543129537055870e-01
7.218172107399151161e-02
9.086270562995868438e-02
3.985659246745085205e-02
7.292373763105639006e-02
1.132706456810924633e-01
8.782134169102479015e-02
7.149364114218764721e-02
5.667273514245869948e-02
1.349950858773377865e-02
2.463422319875770844e-02
-1.114980076533463038e-02
2.008794696062338181e-02
2.459700644743199188e-02
5.941315916132838826e-03
1.195760263600805645e-02
9.399115092245252656e-03
3.064044980304245214e-02
-1.527417419748595961e-02
-4.887116667474100673e-04
-3.418522055921083269e-02
2.101478580760313131e-02
5.273102663716597305e-03
-1.015188146841088102e-03
-2.305816417947742850e-02
1.350295395303265089e-02
-2.239119466856209079e-02
-2.054648934897438523e-02
-1.505548884439809887e-02
-3.712344863170208287e-02
-5.584644997446184395e-02
-5.486966390208262989e-02
-6.489541456532127439e-02
-1.439697859077016667e-02
1.430594640365898812e-02
-1.824717971807704453e-02
-5.108437379064287298e-03
-2.109052656453867108e-02
-1.519280284382999030e-02
-4.888655077608917293e-02
-3.791926809929311443e-02
5.727067644530181578e-03
-6.547540869068874114e-02
-4.580741314791858532e-02
9.077683041554054921e-04
1.161308607035246854e-02
-3.757177911607805648e-02
1.824862453555694403e-02
9.409781925692181637e-03
-4.728438423782019978e-02
-4.346394471709776053e-02
-4.396096779526667553e-03
-3.821162441503006546e-02
-2.349480059878326227e-02
3.102753834823381712e-02
-5.164870494430118947e-02
1.469720546260717964e-02
1.230604991061741982e-01
3.478903101317794982e-02
3.719867134901595762e-02
-5.586417229652536343e-03
3.023623261517738997e-02
-1.247005446109428900e-02
4.226079241213806514e-02
2.032740540269790952e-02
7.251017540769594261e-02
3.467612565195202223e-02
6.935251346145757112e-02
5.735888789799465509e-02
1.754016984607797980e-02
5.163576352747248355e-02
6.363406047741262950e-02
8.931143678028102828e-02
1.056609303417063161e-01
6.433862247260253853e-02
7.212645211114404598e-02
9.320380072550871198e-02
9.369999334190932949e-02
1.014374019782769976e-01
1.582932926561205766e-01
7.886844565620204639e-02
1.422896736938220608e-01
9.503112225728019280e-02
1.272373264367385459e-01
5.049318507417176888e-02
8.040330294229496022e-02
1.126108478690266979e-01
1.347295802293707601e-01
9.328450030540980098e-02
1.296400058673961020e-01
6.823571847786913391e-02
8.800504776546061447e-02
1.486172417971424742e-01
9.519431150281854048e-02
9.213830073283366118e-02
1.001767767820602867e-01
1.477046761405444442e-01
1.152692291531268176e-01
1.524629954442391078e-01
1.069526190805258903e-01
1.404838161285763831e-01
1.638568039736593152e-01
1.939355390909738297e-01
2.325504973066227499e-01
2.388541305776518131e-01
2.677513735041571197e-01
3.889818928640046414e-01
3.667133780111009322e-01
3.931035027330023190e-01
5.253920910518651288e-01
5.688285679074961410e-01
6.445554616149861138e-01
7.202964130726199343e-01
8.465009978235368271e-01
9.102497850852994121e-01
9.565265803754118279e-01
1.019169321369979508e+00
1.143639118291036150e+00
1.164547909289212368e+00
1.181155577915926624e+00
1.262152757366522771e+00
1.312162194265547921e+00
1.346822540947649527e+00
1.351787108133202908e+00
1.344588019636443255e+00
1.334447850541906622e+00
1.318771743563038168e+00
1.290543854579756733e+00
1.219358321378023025e+00
1.196418486872589781e+00
1.074631277372303684e+00
1.040157550085626825e+00
9.643920629086769614e-01
9.141560534266716109e-01
7.992876660155546764e-01
7.364450600147645076e-01
6.220938871892246480e-01
5.541100977856158183e-01
5.847377431799386516e-01
4.882995922056872495e-01
4.071812527106601909e-01
3.598653529957401287e-01
3.010211274007231763e-01
2.216131972339060452e-01
1.843617439949176429e-01
2.209842968204061564e-01
1.666156571913292583e-01
1.675855977503526995e-01
1.458767824897836685e-01
1.587466120926278035e-01
1.434067839095295449e-01
1.312974780844451961e-01
1.004916932288112130e-01
9.159767932306714378e-02
1.542613648417840433e-01
1.250331859977224236e-01
9.942577443501988965e-02
9.802485022137188975e-02
1.204685195210050686e-01
1.633509886193145189e-01
1.171039900025559743e-01
1.555649092081453078e-01
1.089986430089508185e-01
1.765220820518917655e-01
2.009711767348673628e-01
1.630034874520042976e-01
1.561463871279356597e-01
1.551148350054247504e-01
1.717681043891064741e-01
1.877733186802824639e-01
1.540772524677706534e-01
2.167596508571213165e-01
1.919715897626912970e-01
2.039000234455201899e-01
1.712717183607269378e-01
2.274293298574132649e-01
2.238280660061428562e-01
2.005315536434091606e-01
1.487769818674073707e-01
1.927270067547495747e-01
2.091704446874851908e-01
2.535128000112685243e-01
2.312042811867253966e-01
2.242519604303804259e-01
2.247289037141786960e-01
2.140855768926830105e-01
2.373519442907913168e-01
2.664977962655149524e-01
2.207737568310030041e-01
2.193557582457383859e-01
2.162438222320088310e-01
2.149791018909264217e-01
1.480896378784559986e-01
2.307048906233249985e-01
1.553637822340600827e-01
2.229447801954716479e-01
2.198535473410646868e-01
2.370810685173480870e-01
2.090563362711562734e-01
2.269315505957353873e-01
2.175064590112492091e-01
1.548772022103673818e-01
1.746190575803996670e-01
2.231353440288249002e-01
2.134475547655022010e-01
1.798771337481767651e-01
1.648792679882235823e-01
1.902152097102259298e-01
1.691365372511516862e-01
1.522703902097414796e-01
1.327253718761396140e-01
1.732259462795251448e-01
1.403008636686272348e-01
1.917939744043814509e-01
1.245443280952911458e-01
1.462566792162633134e-01
1.311599990540576466e-01
1.042747436642477432e-01
1.205738296127632225e-01
1.279741003341093031e-01
1.160614768054551993e-01
8.313957424001913732e-02
9.366232993278052199e-02
1.262422611397353289e-01
6.288682965861783214e-02
8.680527890511496869e-02
7.222364568468520041e-02
3.343030481957233457e-02
9.098647138969982728e-02
6.456676462497236424e-02
3.534110075237475307e-02
8.697622995887119290e-02
5.873383755976013809e-02
4.386227210543075516e-02
6.868988011467762334e-02
6.932797163421586251e-02
5.174214218164141510e-02
2.285858637205660099e-02
1.290042325175031201e-01
7.779331606253155756e-03
3.854048716413340653e-02
5.211657889142670697e-02
5.755155053461534498e-02
5.058140237373234815e-03
2.566030044940959681e-02
6.329968614962011575e-02
2.658851907448692153e-02
4.644961903364729083e-02
4.732589622535353369e-02
6.172060098410349360e-03
6.834184136408556764e-02
3.656429829567880291e-02
6.377831430279572167e-02
1.361846282085124246e-02
-9.991608143956626914e-03
-2.173333765759907082e-02
4.080772986072622038e-02
9.091202045779959301e-03
-4.714375593016511407e-02
2.064131447854156837e-02
2.137835061724225466e-02
-4.131913471357483505e-03
6.772637503099268597e-02
-4.249230833399290919e-02
2.631090310088332260e-02
4.255143143944722928e-02
5.920449635393559146e-02
5.872414728302957632e-02
4.924697730588938754e-02
-2.358979340318063250e-02
4.729037017009098121e-02
2.370176257649353121e-02
2.733103228288140743e-02
8.183693521993046227e-02
2.419247562249176101e-02
6.938156446861222515e-02
9.690416340067475875e-02
6.783576131007237886e-02
5.594055767773885995e-02
5.316604454632690296e-02
5.116281700542348737e-02
7.641085351952799087e-02
1.260656685653194775e-01
6.614190451127749393e-02
1.160022279430034942e-01
9.093441438911284425e-02
9.226490298931259992e-02
6.879984861303439780e-02
1.011434802066725480e-01
1.543220736815273109e-01
1.518302272838690514e-01
7.718248960224026456e-02
9.175696391475929303e-02
6.416209375062190134e-02
1.078877703864566107e-01
1.229412844696678303e-01
9.542664846941785461e-02
1.561887690753053226e-01
1.338959686952606309e-01
1.044058793647943822e-01
1.758789017410845590e-01
1.476396292035756230e-01
1.873557900915139851e-01
1.546435862610781031e-01
1.712066291281935104e-01
1.400456285986608207e-01
1.512505889316752283e-01
1.611986973026555414e-01
1.861874473506276439e-01
1.119710256957811151e-01
1.910812225751269133e-01
1.764838099818806516e-01
1.788450483707869909e-01
1.244103491599056477e-01
1.528238005415310241e-01
1.844368286475964458e-01
1.484914502926535096e-01
1.991860460240244823e-01
1.919236008627758228e-01
2.353345663780084529e-01
2.228006603789392803e-01
2.118244995777266715e-01
2.379617071421779861e-01
2.916293661888481048e-01
3.306940502822111050e-01
4.059656072327621490e-01
4.207509152391016305e-01
5.133674172409783409e-01
5.863351223272483814e-01
6.227642917893043695e-01
6.560011976001562939e-01
8.043745494262473095e-01
8.394975221228123674e-01
8.984855505070291626e-01
9.329324258968071382e-01
1.053074601387995246e+00
1.146942354856842483e+00
1.210128009953498118e+00
1.281536779599033116e+00
1.291170376202542602e+00
1.390945831829366375e+00
1.383039152686591944e+00
1.388504056065277714e+00
1.395598879323904917e+00
1.352696927317367903e+00
1.429578598171056703e+00
1.364068858161556541e+00
1.296160738033611093e+00
1.242623022868737159e+00
1.239686727962546531e+00
1.080133512945814500e+00
1.061984708515141262e+00
9.976740932295754538e-01
9.139612599607878085e-01
7.707599270405275371e-01
7.784953855558237601e-01
7.026959223642981200e-01
5.469206130969590518e-01
5.639427544031144768e-01
4.815569051351354934e-01
3.757208795677282609e-01
3.722449595965402480e-01
2.981005549764053075e-01
2.726305497114577259e-01
2.501788110371827023e-01
1.777747399207864065e-01
1.976936383687924736e-01
2.137475189081347315e-01
1.780759621972987372e-01
1.986884528162319030e-01
1.162100197539950447e-01
1.439059207586497746e-01
1.774430321869722160e-01
1.724093063721641172e-01
1.713753801547071576e-01
1.807946555352099027e-01
1.977917455928132340e-01
1.769144213189341452e-01
1.485816617497707492e-01
2.125455591516305365e-01
2.196162756454145271e-01
2.047996819981742767e-01
1.990465147000220480e-01
2.290658974554241056e-01
2.423257448104041145e-01
1.630270825788837918e-01
2.026727515394798063e-01
2.415775729204965305e-01
1.793440282575995692e-01
2.960806339129246068e-01
2.818632337460265647e-01
2.134774265642372382e-01
2.742144464548804117e-01
2.095172552680005795e-01
2.486273023417832073e-01
2.654162596236571692e-01
2.741881697053656919e-01
2.397357819366089660e-01
2.437977317797183074e-01
2.905929215669630361e-01
3.236629870379656437e-01
2.725526803010908661e-01
3.118693407100112114e-01
2.540409294496125403e-01
2.487980180688286747e-01
2.838930110446590271e-01
2.392592172383345428e-01
2.428219146409091311e-01
3.057908360855564611e-01
2.260539080446228033e-01
2.786879237231643658e-01
2.985483628203983719e-01
2.755617717965981872e-01
2.876682347844700116e-01
2.676088166959545989e-01
2.778391426056755487e-01
3.246674808330364259e-01
2.022730731490650913e-01
2.039395363984694842e-01
2.355633836315401963e-01
2.434291143387043721e-01
2.618702829823644773e-01
1.724615463881582766e-01
2.413564353851359312e-01
2.573927866896296157e-01
1.748374497512432679e-01
2.098452840444154366e-01
2.139137106007071576e-01
1.708866913610070926e-01
2.402143562729580351e-01
1.365825220420057995e-01
2.328837596357101469e-01
1.256876044367697676e-01
1.791902407674846598e-01
1.770511840164268047e-01
1.855593448352204355e-01
1.459702464775773367e-01
1.939862005717904458e-01
1.303799711858380783e-01
1.402162391262429808e-01
1.710343910107414156e-01
1.369691003159789477e-01
1.411909071241881086e-01
1.498043684626138572e-01
1.130133920412177556e-01
1.386681749076862646e-01
1.041612642566439040e-01
8.673221722707905035e-02
1.367377699044919070e-01
7.103323714964893121e-02
1.552193705117633493e-01
1.107880082380161280e-01
1.463579206909536579e-01
1.930620453486085464e-01
7.770857244944230635e-02
1.181935801080005732e-02
1.257506786148358535e-01
4.520458273791246040e-02
9.201695520999839117e-02
8.693501840346046228e-02
8.715743991079874520e-02
7.894344634241320935e-02
8.551840794250489819e-02
3.662589749110819332e-02
1.044629898717217842e-01
3.805414525080646343e-02
3.418587263008520533e-02
2.751927174639739321e-02
8.983159597153045350e-02
4.252746582375752094e-02
1.050012997286974004e-01
5.349048940226520249e-02
2.151760114687181411e-02
9.666931581059307055e-02
7.787104462519824077e-02
4.984759395394350312e-02
1.080338034816423626e-01
3.916215758572783034e-02
1.081596071211129162e-01
9.604636488738968469e-02
8.998016741374290084e-02
8.930657190493764691e-03
1.060747258223709022e-01
4.996459946914000305e-02
8.412069416979231495e-02
6.139579530756636427e-02
7.053142049403746117e-02
2.599285495816148692e-02
9.118056967896487341e-02
1.416111095087052574e-01
3.853575208221680926e-02
7.423209003196912237e-02
5.874241045521573501e-02
1.106264694692685041e-01
4.600620532134409857e-02
6.558191991220123362e-02
1.105255627555863651e-01
5.252960750439855664e-02
1.453695226727411416e-01
1.342041159878059053e-01
7.891102196913808708e-02
1.818572331225912497e-01
8.667134862261882677e-02
1.152862569545874266e-01
9.729954705054648378e-02
1.069102182214773655e-01
1.340839399895536743e-01
1.475679085996982887e-01
9.981907090109502778e-02
1.639129753082386176e-01
1.311905736994468663e-01
1.541061734780219128e-01
1.923355318087212606e-01
1.745071176323856610e-01
1.750110310785577550e-01
1.898749015165114851e-01
1.496719671782144045e-01
2.382939653027808247e-01
2.122453309608733074e-01
2.189477624373390996e-01
2.454859349906002852e-01
2.092110956592821425e-01
1.682637524709459931e-01
2.354201034284052196e-01
2.259527449015607814e-01
2.219022389300891185e-01
1.657049310353650995e-01
2.357177928745609885e-01
2.241272109967440418e-01
1.877263460793127947e-01
1.715277836374406450e-01
2.078435223220214401e-01
1.965728118405196123e-01
2.656657896611911984e-01
2.261657252411833074e-01
2.227326528297881858e-01
1.764821153834788547e-01
2.100287612846858665e-01
2.489540233303099703e-01
2.672725546429905452e-01
3.099278719823975736e-01
3.142888029169889075e-01
3.564795976448960624e-01
3.111309553078442924e-01
3.684066080133397980e-01
4.587539936642741067e-01
5.435133897490244115e-01
5.174139311077907699e-01
6.184901296280700400e-01
6.981857515780557355e-01
7.490499799606553655e-01
8.143573387308901124e-01
8.970504271729728973e-01
1.032108811604772303e+00
1.024030613889716612e+00
1.126245616176412057e+00
1.196476535377920314e+00
1.269818795856892502e+00
1.328952543277894138e+00
1.395991389731076948e+00
1.362671584255860324e+00
1.398742237251649811e+00
1.478602715186629002e+00
1.455147339800523243e+00
1.454708058338255228e+00
1.449838447663497565e+00
1.367720761045497557e+00
1.345674669093345210e+00
1.294090189410630032e+00
1.160436913408564363e+00
1.140367613060416563e+00
1.035541055040941405e+00
9.787089760013205630e-01
9.119710507391965981e-01
8.137693808958998964e-01
7.368480400098919025e-01
6.242666763867436019e-01
5.920611761880331114e-01
4.835811266276967557e-01
4.473428615393043595e-01
4.559036390805321082e-01
3.800361934132273634e-01
2.863161911912673885e-01
3.024028691581923112e-01
2.311882849569099618e-01
2.814213109473647223e-01
2.219269125122414477e-01
2.688174917970817535e-01
2.183878756757129391e-01
1.460735455932194449e-01
2.312932624764525436e-01
1.843525905419713951e-01
2.095165091819496950e-01
1.770045358930359969e-01
1.891603665798818334e-01
2.445834980416722038e-01
2.053466421590825763e-01
1.885532298443003962e-01
1.781231882164942548e-01
2.689066318890728224e-01
2.200696549890033826e-01
2.202803125414259378e-01
2.122455089331400091e-01
2.218766679667835418e-01
1.767330856757254876e-01
2.482271583357049116e-01
2.576620046575907041e-01
2.572735815729463305e-01
3.027538418417440313e-01
2.388761756522195800e-01
2.975849670577026540e-01
3.463311732210193616e-01
2.494936517072564863e-01
2.818366327235619084e-01
2.825221059527582845e-01
2.001001648819676904e-01
3.450670386808237233e-01
2.872876765777097052e-01
2.863922925327698765e-01
2.876822614812432066e-01
3.327531316122671612e-01
3.086993016218156916e-01
3.328429123447143034e-01
3.507222693355203647e-01
3.060760240083574280e-01
2.859261274551384568e-01
3.439938500900490692e-01
2.692688972863003793e-01
3.395182492488577619e-01
2.659508487494254281e-01
2.925605683605719265e-01
3.043217874722902172e-01
3.236117332075130193e-01
3.217221074242034851e-01
3.195897027986056571e-01
2.721556092028640239e-01
3.273222160160040861e-01
2.484000726878975995e-01
3.170008627815511515e-01
2.856198358500169898e-01
2.556679083022239118e-01
3.362587474966244327e-01
2.998603205516516268e-01
2.844898918873359772e-01
2.725583308171344310e-01
2.554497617293431388e-01
2.029417320987831341e-01
2.294815404716094853e-01
