1.273670403166722753e+00
1.307522231739521645e+00
1.236760330000114871e+00
1.307233974731095705e+00
1.201805630934145608e+00
1.193588452026212554e+00
1.141869779756623515e+00
1.068090275041728043e+00
9.806214983767459481e-01
9.509781441050759732e-01
8.008307558447617103e-01
7.894489252589618200e-01
6.900921781139617295e-01
6.456811043312000731e-01
5.519100151498842477e-01
5.455501432870434320e-01
4.565637280357237593e-01
4.029193838642408654e-01
3.727244078026507035e-01
3.679580740756873136e-01
3.165445469166831560e-01
3.248421266071069846e-01
2.913204029526429428e-01
2.465076260629617266e-01
2.507971775708939255e-01
2.125515676564692369e-01
2.172878271974665598e-01
1.657738961151874468e-01
1.822227333937579685e-01
2.024308570179850497e-01
1.946129312814887935e-01
1.904529457677626991e-01
1.791818351480998217e-01
2.231106735826507981e-01
2.403617152035081861e-01
2.141936745007439746e-01
1.940050022560039222e-01
2.416142700574424040e-01
2.137740838890059281e-01
2.058150381509646631e-01
2.592526601016877930e-01
2.520218537734575937e-01
2.782086925394195998e-01
1.983618470888280916e-01
2.171327655652544875e-01
2.224938302049425665e-01
2.812608553561563585e-01
2.313759769578596359e-01
2.378829542959632337e-01
2.288485310830673802e-01
2.599627062273741629e-01
2.185624659662063485e-01
3.060360486112882472e-01
3.140707221773147428e-01
2.780077146951741573e-01
3.031968325261025776e-01
3.147168955956768932e-01
3.244662856682864471e-01
3.233286698865415754e-01
2.318513797559998146e-01
2.570901610396528203e-01
2.947717763248571821e-01
3.011586052971333971e-01
3.050984770779265887e-01
3.100184219347684733e-01
2.942326488667534878e-01
2.839419509575733525e-01
2.797411505612951710e-01
2.724703825226456044e-01
3.391344038028045738e-01
2.687731805742203939e-01
2.579935178306380084e-01
2.209814318001171451e-01
3.407465769184124804e-01
2.082280943846549492e-01
2.404774419440837974e-01
2.650055754553317655e-01
2.900178064939224476e-01
2.598305291024377572e-01
2.543762639091430300e-01
2.859102531540905212e-01
3.087294407743832458e-01
2.725667319717617332e-01
2.000359895199003701e-01
2.352007273690647771e-01
2.699397422944140312e-01
2.215053140873546600e-01
1.651261041143185782e-01
2.510108266874432337e-01
2.111789078026639621e-01
2.083729211985503038e-01
2.059347031938158212e-01
1.981673643517929406e-01
1.420767009885539056e-01
2.291137822468926333e-01
1.630642080377181502e-01
1.454308719091639279e-01
1.828360462011470455e-01
1.784219840816583247e-01
1.225208943543326934e-01
1.446014951140873750e-01
1.865390028434978364e-01
1.203611254570493561e-01
1.057434559072772118e-01
1.151807309925276662e-01
1.233629088432201537e-01
1.177396141771063498e-01
7.790325226884299570e-02
1.170044400041596738e-01
1.051575756311690230e-01
1.131056179798532457e-01
1.273670174854579784e-01
4.912235939447570643e-02
1.000508809338031546e-01
5.503389488111886524e-02
8.374261034962095229e-02
1.621511384194412181e-02
4.581589733971330736e-02
8.770277581359162133e-02
6.674227891711501104e-02
6.641127264060239788e-02
1.267391493951978143e-01
9.374782703106407378e-02
3.214286558285950335e-02
1.100665059815189722e-01
9.529307217722514378e-02
1.101056560005844731e-01
6.616782009392363495e-02
5.253972655547053949e-02
5.707702963516612243e-02
8.469344489916456886e-02
4.116882773205840507e-02
5.938859226330359120e-02
4.172138032542192093e-02
1.634444861322128725e-02
6.483047908980275192e-03
2.851961100599168658e-02
6.449091697908687637e-02
9.675828735616257004e-02
6.621681013416880202e-02
-4.550688790189220262e-02
6.750618144989056768e-02
3.486645279596246177e-02
3.400887906391505955e-02
3.955488442592097753e-02
4.003267604110928579e-02
7.188161191429764951e-02
2.306525791072915749e-02
9.397090358518953024e-02
4.005775530732871154e-02
1.039605353936561005e-01
3.358072777650267238e-02
7.692657308603816080e-02
2.045344437892241893e-02
1.277163865405239740e-02
4.612555627334163910e-02
8.093580159064828194e-02
9.715209269935004555e-02
5.610195147664569226e-02
5.826310633213842294e-02
4.134320930129814498e-02
5.581028072023175302e-02
9.417369143758584638e-02
1.088994543015192606e-01
7.846927012962616466e-02
1.032106664484853942e-01
1.012804395308056910e-01
1.219453662588323301e-01
6.452783831589453678e-02
6.096126526457280176e-02
6.984168209579587339e-02
1.192920723443694903e-01
1.179071759303935152e-01
7.357090750220848796e-02
1.209747143146291809e-01
6.992611314837729464e-02
1.160928067612006231e-01
1.195668311700920777e-01
6.638504922694263288e-02
1.120555981990705302e-01
1.211523238102313327e-01
1.585933147476129290e-01
1.622722251606736887e-01
2.111466213415034154e-01
1.534692052523768946e-01
2.053185362144048232e-01
1.398012759437751718e-01
1.740619299809916809e-01
1.561079338901295299e-01
2.385543799523121011e-01
1.308428573387855898e-01
2.308252731434166094e-01
2.064660520638853525e-01
2.167357847164229079e-01
2.296243215460158638e-01
2.150588327210245787e-01
1.895562226326932831e-01
1.870015767578212529e-01
1.557271556957698089e-01
1.752573324833592294e-01
1.554400540841679723e-01
1.381707119738937173e-01
1.667621940963378568e-01
1.474022915790423605e-01
1.948934955561279769e-01
1.544506179586132288e-01
2.146304223302688552e-01
2.138856242086236426e-01
1.529274969185083211e-01
2.670640708920624662e-01
1.806455178607762890e-01
2.833174588367538549e-01
2.491930285994041760e-01
3.200963035493307185e-01
3.292243924915100317e-01
3.682472005820590089e-01
3.731411075198275973e-01
4.475293244383762303e-01
5.608214670968953985e-01
5.361998793507363192e-01
6.964624861163449809e-01
6.719636123892740454e-01
7.780454006422846680e-01
8.861463975377648072e-01
8.829696207961138521e-01
9.425870560087943328e-01
1.067998416790348903e+00
1.081808288516447281e+00
1.151087529243380869e+00
1.218187494286613992e+00
1.239358966998292066e+00
1.219999981405363698e+00
1.281952819625587381e+00
1.333234032645709277e+00
1.233228453298578442e+00
1.227093068143116028e+00
1.193776540615996584e+00
1.169862024570384795e+00
1.104218063466822386e+00
1.065084135034772839e+00
1.025976384391021456e+00
9.138152333454019338e-01
8.453282142392442022e-01
7.841214414245911701e-01
7.403437409955383464e-01
6.175114690563034969e-01
6.022762239426161512e-01
5.371356618850864351e-01
4.915840362395192398e-01
3.849883050320092592e-01
3.325469454482202769e-01
3.308030482056297794e-01
2.483054460714689549e-01
2.605667747490850727e-01
2.249107292631447874e-01
1.939341942281275211e-01
2.451353989210193207e-01
2.243190445031986724e-01
1.389270397062553897e-01
1.599687043551795140e-01
2.119540189674870567e-01
1.525343107106941765e-01
1.748520102957678291e-01
1.415604038811305310e-01
1.997674472569209436e-01
1.591048126420913089e-01
1.619597793476867387e-01
1.995470892299099352e-01
1.844422394909487894e-01
1.756057791099793208e-01
1.459904795450420456e-01
2.197574700667106751e-01
1.882556733637990587e-01
1.997594674733840781e-01
2.014639172313360538e-01
1.915919007668497320e-01
1.895650062345357600e-01
1.860019809716458306e-01
2.000072774691417365e-01
2.430915261919485149e-01
2.291480016070679693e-01
2.319749560932094778e-01
2.419155119253484643e-01
2.047212284668988025e-01
2.733091811779406188e-01
2.454711350732628750e-01
2.352110025259635806e-01
2.531572041268618789e-01
2.221726401590161104e-01
2.993860634544343036e-01
2.368560913099713172e-01
2.334977729281237646e-01
2.538748642428870772e-01
2.125073753639025176e-01
2.390653901837422324e-01
2.167515635716143474e-01
2.729678713427987624e-01
2.760752280377724577e-01
2.121306967163623103e-01
2.717575417338812249e-01
2.478142671363166849e-01
2.555896110263410348e-01
2.236515475608606418e-01
2.738914353677595059e-01
2.601675127316191438e-01
2.553294045013351776e-01
2.462335795415777906e-01
3.082253972259666464e-01
2.204041199095434500e-01
2.493765712239102983e-01
2.562528567701438664e-01
1.872359776059492054e-01
1.909512236135423036e-01
2.328016548578414335e-01
1.732570863539263373e-01
1.929040937960615487e-01
1.893521176468111744e-01
1.822739524937509736e-01
1.268473903088700727e-01
1.674056662779518367e-01
1.926536810380244102e-01
1.597209292504469247e-01
1.722664583490793322e-01
1.552157317891065813e-01
1.575239081186114165e-01
1.194324661738719456e-01
1.142669935661923125e-01
1.083083073359157461e-01
8.865002447442660305e-02
1.160190110886694798e-01
9.394182650959623238e-02
6.656163172291409968e-02
7.253159802824529767e-02
1.080181658198127032e-01
9.824424612523183220e-02
7.370877598399953878e-02
6.013975538123091796e-02
7.068095691401463099e-02
8.460051677329964714e-02
7.885461823801871717e-02
5.820931916585052324e-03
7.195959120392766972e-02
2.513340190994829693e-02
4.479075901202396459e-02
2.027379602757434229e-02
7.832201538842108179e-02
1.931010495069555855e-02
-1.547408436732126275e-03
4.071366876404519664e-02
6.596496194556217274e-02
1.694560741404632642e-02
3.103017318607129843e-02
5.047874408856751344e-03
2.327913978215164978e-02
8.014777504707584765e-02
1.522483122139081657e-02
1.055040923442149628e-02
-9.890281853266815609e-03
1.515937159279312843e-02
-2.657073329170212342e-02
-4.102353998874933710e-02
6.230379723946105619e-03
8.024502716022077764e-03
-4.892817539428817586e-02
-2.451932599280032266e-03
-2.464914752409358770e-02
-7.844558002390597529e-02
3.292651765342229087e-02
-2.213589267799261420e-02
1.909919577861829768e-02
1.935423567578323234e-03
-3.695299206636246114e-02
1.772582350073458046e-02
-2.643470743823710806e-02
1.686908943145812301e-03
-2.113243622588314996e-03
-3.161912369129910028e-03
9.657534242336972274e-03
-1.361727350314371338e-02
-4.437147314258021308e-02
-1.359951634550866234e-02
-4.629762973982790020e-02
-1.796715578756585135e-02
1.599907140463720581e-02
-4.179460671940395805e-02
-1.711543613666584307e-02
9.266202475226990865e-03
-1.821246598777824868e-02
-3.722119409541214258e-02
2.741002510830257630e-02
-2.763446382875850080e-02
-1.109179619707233687e-02
-8.538241456568446131e-02
3.403056420557021289e-03
6.000263372884856450e-02
-4.197193151704663866e-02
1.301670047357366897e-02
4.847864202694462943e-02
-7.256559437205135910e-03
-3.366337858465875271e-02
-2.389066983014536891e-02
4.285822793578770995e-02
5.020738007587484397e-02
1.406979743636398161e-02
5.048955424344325760e-02
7.230998014550917008e-02
4.191105856306047428e-02
8.191493254947104785e-02
3.562459878204497776e-02
7.634449822140781938e-02
1.393363528287868969e-01
6.771391851098093606e-02
4.715818244669706116e-02
5.887740298435821529e-02
1.131719282128381132e-01
4.685670165707544327e-02
1.017439709136073733e-01
9.093397448374231085e-02
8.920980791166047141e-02
3.921229430659906035e-02
9.560400605106286753e-02
6.931196067563476226e-02
1.280445657997270337e-01
1.481238023639251389e-01
1.316355914239938085e-01
1.461246406784976193e-01
1.536398709387024608e-01
1.498600250011830060e-01
1.189553982043318747e-01
9.372147922372861539e-02
1.428394496664252000e-01
1.499179619707544375e-01
1.717215210110497881e-01
9.905379882404548308e-02
1.433034997941733391e-01
1.300938522116806273e-01
1.382002499842939769e-01
1.087159598605253602e-01
1.032945799754469984e-01
1.634536849811765169e-01
1.119848662897661301e-01
1.515651448353902697e-01
1.113668923818337958e-01
1.396412022242516371e-01
2.026676655932694859e-01
1.869088451491897618e-01
2.970196855938255776e-01
2.542639232946319328e-01
3.349382392746144133e-01
3.506424476125760692e-01
4.257200280539568116e-01
5.081431763952313219e-01
5.293269031269685065e-01
5.619594747235721055e-01
6.485855366312982540e-01
7.441565945346513278e-01
8.265198163511728868e-01
8.427278738907565403e-01
9.335256138429937067e-01
1.036824501556341316e+00
1.025091957489315808e+00
1.141109389248241346e+00
1.132369978674207189e+00
1.220496890381396415e+00
1.224372649937940594e+00
1.257191970688677607e+00
1.207433319822160733e+00
1.186769096396731893e+00
1.161358634360566633e+00
1.187517812253575222e+00
1.106747061477784344e+00
1.048177789199530308e+00
9.542319344145122617e-01
9.425984552330173294e-01
8.512848928492509071e-01
7.812809130074586106e-01
7.380793315956465372e-01
6.224926233877630111e-01
6.172818161102201495e-01
5.200805842451803329e-01
4.644144888584890163e-01
3.653491189425291941e-01
3.153562059313606003e-01
2.990661018668918647e-01
2.473237713814529781e-01
2.485862449480202296e-01
1.890767555477051443e-01
1.474363583476537842e-01
1.346874902542999353e-01
1.557344178149762670e-01
1.622621514672925591e-01
1.138818742306546561e-01
8.199102369079930286e-02
1.467260676105454908e-01
1.266200207677927736e-01
6.194559325815521267e-02
5.979964856676939222e-02
1.564705510662410537e-01
9.355096595962050787e-02
1.511545492144852065e-01
8.800046775438760682e-02
8.609292851350069942e-02
1.454519604871504224e-01
1.238541778729231185e-01
1.134397530893969108e-01
8.854596855626392649e-02
1.334485328997812026e-01
1.457656040246407270e-01
1.513312025453285581e-01
1.436237047020469393e-01
1.454072768576583630e-01
1.882524417052769961e-01
1.422993986816425971e-01
1.193884963030049928e-01
1.406971200941895261e-01
1.510130638098192424e-01
2.139342311234549432e-01
1.669165919149303012e-01
1.361237949674611036e-01
1.869338489325954589e-01
2.226434719168703391e-01
1.538779639178892711e-01
2.166147230538899016e-01
1.629720608009955218e-01
2.049629501269585596e-01
1.646356847810540869e-01
2.410078177654146336e-01
1.657710796939293185e-01
1.349067684036317771e-01
1.900022864057624439e-01
2.234822777032898777e-01
1.990397607977565375e-01
1.398558281863511443e-01
1.954880419599424601e-01
1.655969562417484719e-01
2.093091147940144836e-01
2.259790654292736234e-01
2.118914009469157755e-01
1.851248925389606947e-01
2.291559298153778290e-01
1.389637069405479652e-01
1.464622101766701046e-01
1.702688420864678920e-01
1.910122514830486229e-01
2.012743350973366652e-01
1.053099340654205518e-01
1.519348270642758292e-01
1.269063231863488128e-01
1.504461041663610887e-01
1.439711525038451234e-01
8.963541210632366973e-02
1.306581486582157337e-01
9.892560372247022338e-02
1.595643072263822626e-01
6.747190642001474337e-02
1.238577080499181499e-01
7.195134443653386502e-02
1.193104481360448554e-01
1.846667778010635808e-01
5.649726063567055839e-02
9.986175586706444451e-02
5.681180057806269057e-02
4.482923731053609084e-02
1.381846924854521763e-01
8.223117491537687562e-02
5.823756644900226348e-02
8.112322822546524925e-02
6.161404641331846843e-02
3.827339459989857751e-02
2.750105791322504656e-02
8.334571006042645891e-02
7.502173379226373395e-02
1.800685627339189410e-02
4.333432745699675182e-02
1.777930823306845404e-02
-3.258224984874628222e-02
2.839188401898672109e-02
4.076306245469643597e-02
-8.829550373619272918e-03
6.654572205469908019e-02
-3.480356353154356874e-03
-2.450787479292885346e-02
5.598393153136399514e-03
-6.046790264027747386e-03
-1.231449338023535289e-03
-6.551928671982995556e-03
-2.587619224703136683e-02
6.345336022905670448e-03
-4.362173593767293411e-02
-4.605900912100333033e-02
-4.601711718787508676e-02
2.157365298693087602e-02
-2.502994683064716647e-02
-2.705399681490612551e-02
-6.543519165740198373e-02
-2.282481847212261550e-03
-2.887016627772134858e-02
-3.179421236879882706e-02
-4.412032489068289098e-02
-2.168057878610484684e-02
-4.787067978254751915e-02
-1.788167647404029920e-02
-2.330158831788606971e-02
-5.629582300482745272e-02
-2.253278862540143701e-02
-1.445777831199162450e-02
-2.626397067119223827e-02
-5.322943850757110018e-02
-2.477908461556434239e-02
-3.060227695315538912e-02
-1.674456282504346860e-02
-1.272378881616673812e-02
-6.447849437034411380e-02
-5.655552772274239498e-02
-4.947256882329344879e-02
1.601825446221014776e-02
-5.127773890946386859e-02
-7.057473038365323637e-02
4.956650170067813943e-03
-4.585412611493219770e-02
-5.353520351113613684e-02
-6.491395840761672587e-03
-5.411271022054629093e-02
1.136852493294912558e-03
2.356455169949501355e-02
-2.913263487763542020e-02
-3.144463092090107187e-02
-1.480108819299627565e-02
4.847980582708598385e-03
1.770615312241239497e-02
-1.184684768269835681e-02
3.004401144478575231e-02
-1.283495702710620023e-02
3.339520195327316809e-02
-2.318169746979048540e-02
3.473088670435635350e-02
-4.202296474524427894e-03
2.064601238436065966e-02
8.727708029013700464e-02
1.848740403057907988e-02
6.044678233022564295e-03
6.852733545100878065e-02
4.168993999776773179e-02
4.313232883521339600e-02
7.455944606256316443e-02
1.414279590858564389e-02
1.062067627851570190e-01
4.667213936105540917e-02
8.196179965738434325e-02
7.958471366159378113e-02
1.286857591311343363e-01
8.452927562210338364e-02
4.956671937927170646e-02
1.099729751925591081e-01
1.365425620964448306e-01
1.425904595235246708e-01
9.166497688286845413e-02
1.084714180412410661e-01
1.416824757398447154e-01
1.169509748628607126e-01
1.162903474211490207e-01
7.563844974821221090e-02
1.500936864892788714e-01
8.270806784062484374e-02
1.201997375310715765e-01
8.425672318508103942e-02
5.079795647920828244e-02
8.424492726157437050e-02
1.456499728977799224e-01
1.225775030058906256e-01
9.237837603616384785e-02
7.910067773291054594e-02
1.266797761610238271e-01
1.090023183536364959e-01
1.218907023762274278e-01
1.291084502340050788e-01
1.387080032345077429e-01
1.992887163213609980e-01
2.080621317433192785e-01
2.530471512221167396e-01
3.254497594577356878e-01
3.303557263341014294e-01
2.953859663321884987e-01
4.160293481234472179e-01
4.684262573554119347e-01
5.393430674345228715e-01
6.596736271051651945e-01
6.377292102196683299e-01
7.144245130491578832e-01
8.137695576579924150e-01
8.909740338369471768e-01
9.260504645999119155e-01
1.007211879977575553e+00
1.106320418223549762e+00
1.101840347314945623e+00
1.129058637816741983e+00
1.197060860515765990e+00
1.188814229995865723e+00
1.247748864673445146e+00
1.185115685075764258e+00
1.180397914440246776e+00
1.173634781176732478e+00
1.114674365869693151e+00
1.119859471619605085e+00
1.007815520608669191e+00
9.794694855600949435e-01
9.035125431878262559e-01
8.004039785726193568e-01
7.078091081248006899e-01
6.913874248579824355e-01
6.481842733656865141e-01
4.754112755552606373e-01
4.909361181602595603e-01
4.762759850987356991e-01
3.542066222487946225e-01
3.217773472173799942e-01
2.349963924207719990e-01
2.264087277356074124e-01
1.876495992542193958e-01
1.662060355510474874e-01
1.755637749721423724e-01
1.558133728292941389e-01
1.031705500871003683e-01
1.171435258278587799e-01
1.067637264375539685e-01
1.117497597675856658e-01
1.230604581812219100e-01
1.429773121824852167e-01
1.637348027044619736e-01
1.323751630642997223e-01
8.773729884906128484e-02
7.361572662096242670e-02
8.226733141297079555e-02
6.135875675130029322e-02
1.218954053868614718e-01
1.519519753669183737e-01
1.132192380339814286e-01
1.469601570092498866e-01
1.545160619115848732e-01
1.627006053009181219e-01
1.763077228573978750e-01
1.836041567761297622e-01
2.061300956257849371e-01
1.424569151773740772e-01
2.329787212757665760e-01
1.992385987869959019e-01
2.235054900431671931e-01
1.472628404357275711e-01
2.474018029495776982e-01
1.423320778763639272e-01
1.903634186292452735e-01
2.570031315964195207e-01
2.154279888221421468e-01
2.169758538541554649e-01
2.328512160241847373e-01
2.370240273067874270e-01
2.241165263557598208e-01
1.901561610523083146e-01
2.085226795895150920e-01
1.830712790596235040e-01
2.230625665382759970e-01
2.094732456854247471e-01
2.354817130813870452e-01
2.572467259314308308e-01
1.908961756311378932e-01
1.840402006224752252e-01
1.927524314920254500e-01
2.271342290323567215e-01
2.074356201942487155e-01
1.859493640687180371e-01
1.926995864990274643e-01
1.513450860290737610e-01
1.676669248850009009e-01
2.409844682653061454e-01
2.304632330675121521e-01
1.861592888759139863e-01
2.224311019710841775e-01
1.448144877750448534e-01
2.001496924352829387e-01
1.540675253528563104e-01
1.571182446277313016e-01
1.211633780553166839e-01
1.226218875970265937e-01
2.094025373289437608e-01
1.526081942227167920e-01
2.103355643264930575e-01
1.458646653684181338e-01
1.449237572336630475e-01
7.041720771225247477e-02
1.500433384696074346e-01
1.450319756700335083e-01
1.050105296926911458e-01
1.431400663988176558e-01
1.263306698113025872e-01
5.544260000871877037e-02
9.279658520813288680e-02
1.292122112816412316e-01
1.332951374770125486e-01
9.262815935053156369e-02
8.718626551626845744e-02
9.771377769192680918e-02
8.758673007438622093e-02
1.628292789864170531e-02
2.891342495202030988e-02
7.568272862424568759e-02
8.069647439888494311e-02
3.409158421684965051e-02
7.591095253949986521e-02
4.521453601533884786e-02
3.384080672085208741e-02
5.654914802222577030e-02
2.539177037433136552e-02
2.844002086865827714e-02
7.369577279672261116e-02
2.065118199368669305e-02
1.669747440172692290e-02
-7.691241461665391382e-03
2.513541423570656019e-02
5.940031360132518728e-02
4.603841149717877168e-02
-2.123957194184570435e-03
3.744398653175252945e-02
2.260690153868095617e-02
-9.215841047051292340e-03
-4.773618925463062046e-02
-9.742200729670372206e-03
-7.371844373733327932e-03
-1.227358012353447006e-02
1.231225877512424211e-02
-2.523518389616504973e-02
1.091781662639516870e-02
8.720298113757039837e-03
-2.006016648176993031e-02
7.008438094612667868e-02
4.834868102403033774e-02
-3.169785477710468369e-02
2.207959203142690827e-02
-1.440037077170594482e-02
-2.225546288353798946e-02
-2.856488573400556980e-03
-2.742477055431851926e-02
-2.721550767072795918e-02
-2.298361152129821394e-04
-1.421012231248799072e-02
1.400738523277699280e-02
-4.257077753399415160e-02
-3.831505929719185993e-02
-1.080614016323076972e-02
-1.415299635388935287e-02
-1.740507299736419183e-02
-2.927778521336640155e-02
3.608074611983776853e-02
-2.428920840704121634e-02
-4.093978953168944668e-02
3.755605388351342805e-02
-8.303006105556995364e-03
-6.567541853259863116e-02
2.011998667464592189e-02
5.821819846287226013e-02
5.109748618020771432e-02
2.901940707638505507e-02
3.719999995924402197e-02
-2.796422003638748821e-03
1.112384648712755157e-02
2.996564493482554298e-02
-3.180875772172223753e-02
3.822031149400119399e-02
7.052915428767142503e-02
5.062812421956692371e-02
9.440646317471598770e-02
6.208380534941428802e-02
4.932961990996344304e-02
5.459792986342584808e-02
5.036679786161819827e-02
9.099252068824605078e-02
8.291249316731882923e-02
1.204564510739407068e-01
1.315529402145139692e-01
8.830826338152236721e-02
1.356441572776847793e-01
1.054931716454941409e-01
1.073913952575733383e-01
1.163383907328435080e-01
1.813709987513751343e-01
1.139958005328687712e-01
1.148444236467403567e-01
1.316895467517895657e-01
1.425025332575932946e-01
1.773185739287584106e-01
1.660346184877032338e-01
1.135816357923327274e-01
1.749219940477326207e-01
1.677522633716650169e-01
1.600943558040455739e-01
1.828037757145349884e-01
6.459191909864812897e-02
2.187437659810124446e-01
1.571864924644919836e-01
1.817496109845091190e-01
1.829795326272213585e-01
1.552060738159964925e-01
1.504269474617178637e-01
1.529480141687583339e-01
2.107454886481087697e-01
1.361064809557582800e-01
1.533047492328399042e-01
2.298138180249584828e-01
1.431415579861535781e-01
1.935074666564836898e-01
1.602775569685239987e-01
2.495054641161026932e-01
2.362946276855013295e-01
3.210079594547453619e-01
3.729433187504334613e-01
4.014510427113099356e-01
4.599590605118694664e-01
5.420149106445891762e-01
5.286863552538159094e-01
5.872785613907292035e-01
6.572114573606513410e-01
7.933379512738035766e-01
8.336213056331611693e-01
8.517123371862325154e-01
9.976266512091691574e-01
1.005451982692228130e+00
1.102955038315729830e+00
1.213231889673578534e+00
1.155473112940654135e+00
1.196687485854070587e+00
1.310970669124699839e+00
1.272958085183476085e+00
1.230417849881944692e+00
1.276460711503540457e+00
1.280548795471707413e+00
1.217906270363119603e+00
1.156647809477307165e+00
1.109143315593460466e+00
1.069616986498771016e+00
9.255635276340279383e-01
9.011288949082134625e-01
8.458449891456398806e-01
7.768759228362122071e-01
7.226098570883175976e-01
6.489243195499003747e-01
5.922654312520009290e-01
5.859461580958347238e-01
4.744182801698533791e-01
4.067728051278164947e-01
3.347220460933216235e-01
3.203702810240821597e-01
2.948991517080992164e-01
2.970374210697162565e-01
2.295667687483297914e-01
2.317927289402345603e-01
1.796901982780204354e-01
1.742082487063355556e-01
1.748750976930611711e-01
1.628807730847644519e-01
1.895874198248520548e-01
1.507157705030076622e-01
1.004875793355377439e-01
9.256311790981462673e-02
1.560628410904322250e-01
2.182453856355889288e-01
2.193217971975668645e-01
1.971254871924963126e-01
1.670068002888313863e-01
2.193269008911959139e-01
2.086193713825103824e-01
1.683893859242366065e-01
2.239505998038627821e-01
1.832327725290046061e-01
1.868345441119223793e-01
1.923495460171113780e-01
2.240507533704801102e-01
2.289524922025417963e-01
2.410136682455016333e-01
2.336522133529361223e-01
2.446321304392803375e-01
2.723404703716817976e-01
2.776895778608400867e-01
2.644837329608133447e-01
2.179669544936807257e-01
2.675651646264972094e-01
3.079558805788977782e-01
2.488401439474877130e-01
2.515784532849982824e-01
3.003271668222665114e-01
3.138481220842530561e-01
2.988365365936063722e-01
2.596490639857551574e-01
3.059760766722331993e-01
2.514527253105266480e-01
2.334182075237086484e-01
3.415197090151342874e-01
3.094748632594621074e-01
2.559917142069719764e-01
2.704700078626234849e-01
2.516664128619885421e-01
2.143687782610832482e-01
3.051388478344372879e-01
2.415555276925678285e-01
2.194129841130992575e-01
2.015123585072614298e-01
2.493707230286955068e-01
2.776325967685450702e-01
2.610800655390689284e-01
2.104352191044949194e-01
2.490080763855747614e-01
2.408113471080199353e-01
2.367821744639324044e-01
2.408460804804901934e-01
2.630082271543190964e-01
2.370531504203684248e-01
2.295261968628553584e-01
2.483188633649120181e-01
2.089609551333531101e-01
1.904574408954227971e-01
1.839753162710033862e-01
1.678647714865220131e-01
1.757118665420148440e-01
2.051488703552799553e-01
1.731426904719358673e-01
1.701952465180613661e-01
1.982112524973818624e-01
1.737438243153828499e-01
2.224116599292658147e-01
1.975165359235440121e-01
1.982970938324372379e-01
8.784945780582469055e-02
1.781180224116296062e-01
1.084120266137660049e-01
1.298794044253997471e-01
7.378243761167325998e-02
1.427609253339951478e-01
1.104262877821670374e-01
1.531352347863046137e-01
3.563494208956623222e-02
6.912925333411991391e-02
1.581589059049717805e-01
1.352739894283016275e-01
1.095450623828773118e-01
8.926785681926775740e-02
1.339661372960158081e-01
1.167718547318900291e-01
7.405810881817671831e-02
4.645457377308933461e-02
5.422456214461961882e-02
8.070862167448575319e-02
7.372860366468984850e-02
9.544427232872607081e-02
6.624048161876283647e-02
2.757622821762466953e-02
9.430676558933791254e-02
3.300350465674310729e-02
6.560870342173533154e-02
9.616993480939887984e-02
8.104070930699164288e-02
9.021859380927099714e-02
5.529809622738018904e-02
7.836057858261077924e-02
2.433709442711116944e-03
8.417237543131964039e-02
3.212476121065640372e-02
1.189049123524346108e-01
6.541603689476874206e-02
1.329165866095643467e-01
3.828351541193884128e-02
8.301308787838335146e-02
4.458443689065957893e-02
5.109991524946808084e-02
-7.075754825115181113e-03
8.501219773488481735e-02
5.675358916755620514e-02
4.114241380891225930e-02
9.053097084550025542e-02
4.816676245821057550e-02
7.034264367802590956e-02
7.979286390711042010e-02
6.604255324651903125e-02
5.912995155750162130e-02
1.016172789378125968e-02
4.237558584669402079e-02
6.016094310583725013e-02
5.998891252404710273e-02
2.958685683906183556e-02
5.926966132354068162e-02
9.255243338831642408e-02
1.734368441551924558e-02
1.907746988472414085e-02
6.651262884183467561e-02
1.066526296443497113e-01
7.854454277189258649e-02
6.276322136396376983e-02
8.607359535655961791e-02
1.232160491635072297e-01
6.254428727132896326e-02
3.099671542515081840e-02
9.929612615976951551e-02
9.641350650921762244e-02
5.463094921719689745e-02
1.045484646449751504e-01
1.335600655130880776e-01
1.322905701720314409e-01
1.328915169322459622e-01
1.166045539091838668e-01
1.526264347458695658e-01
1.130623861686675530e-01
1.806283284816495027e-01
1.746100883408959470e-01
1.332750401328323120e-01
1.423903841246085822e-01
1.795758290028003912e-01
1.545040554096187291e-01
1.576703509192530772e-01
1.750187631020296286e-01
1.658823671205041650e-01
2.051461769897147125e-01
2.039876315634694404e-01
2.019005218498468313e-01
1.808654486044072307e-01
1.818001387594456730e-01
2.062068015436036295e-01
2.207666001047134952e-01
1.795430412006839560e-01
2.381069393045610605e-01
1.476559846712983959e-01
1.951034081681797538e-01
1.755746733787063307e-01
1.729760668290913905e-01
2.049939859043777846e-01
1.511625737203508291e-01
1.773221495934919345e-01
2.048425549825034497e-01
2.832900902921571817e-01
2.209511027549893591e-01
1.693252258704456836e-01
1.889950759594645757e-01
2.079968857309987817e-01
2.826545828108837921e-01
2.665001036463440776e-01
2.271584348008613141e-01
3.210519698351693707e-01
3.527234623825292736e-01
3.745646405675200907e-01
3.739892558033569014e-01
3.826977468848586916e-01
4.141968194749421350e-01
4.956113832834624922e-01
5.528953553981132973e-01
5.847337024579966069e-01
6.501572795961837459e-01
7.804597070466888775e-01
7.767740179920843424e-01
8.948246331754763361e-01
9.212999095238019187e-01
1.070236179951918665e+00
1.070811690622981649e+00
1.171062243808195902e+00
1.219825844877481691e+00
1.254112345723898070e+00
1.297186019570050419e+00
1.303909483553021165e+00
1.297972736753638889e+00
1.361436248253658388e+00
1.256912950142951901e+00
1.264648030890406671e+00
1.249395613891916890e+00
1.198901077564972439e+00
1.153934287274215986e+00
1.103184695655210490e+00
9.994350120803439097e-01
9.396264661990122447e-01
8.574035130533209648e-01
8.201439080679444604e-01
7.425116323614852076e-01
7.010211933837442455e-01
6.130840462578512895e-01
5.475799350593579806e-01
5.371057216684234081e-01
3.492787611074243959e-01
4.229658530873045552e-01
3.542022491899892156e-01
3.236918409802294061e-01
2.937257163944618221e-01
2.816734142506207572e-01
2.708696777088710483e-01
2.380704622124257264e-01
1.804625924166006201e-01
2.035953381102933168e-01
2.067650535310010806e-01
2.187004537371816104e-01
2.296409876297956509e-01
2.491388859418212087e-01
2.161740142352879812e-01
2.129593070355826345e-01
1.617233333475663615e-01
2.263217711582441172e-01
2.273828096821888800e-01
2.180686478327641398e-01
2.026923083092949940e-01
2.482452434326187507e-01
2.384644348898455057e-01
2.369604546128303568e-01
2.502387232493802349e-01
2.147993690304107750e-01
1.836983890697802546e-01
2.922116491410307049e-01
2.593717203741081612e-01
3.527252853726399184e-01
2.567654377923924702e-01
2.992404735504143876e-01
2.863910887215374013e-01
2.048560223000254754e-01
2.998548813300321858e-01
2.198867581881087663e-01
2.698019083843367083e-01
3.176561170243265009e-01
2.690015675920260918e-01
3.155421470770417014e-01
2.947830947238037069e-01
2.741476361058908795e-01
3.293619471958046940e-01
2.998409686009096964e-01
3.085473590656697129e-01
2.965992387303159616e-01
3.135965756767174484e-01
3.239954093928426593e-01
3.333979806633241005e-01
2.758465295726969524e-01
3.438514521545367186e-01
2.854774469355126909e-01
2.156334886237247228e-01
2.935966891345533902e-01
2.958885060962037072e-01
2.787100589799760275e-01
2.764372158261866330e-01
2.846679106875824039e-01
2.900384422726695055e-01
3.057875064530350961e-01
2.920847235750602677e-01
2.332672485890074920e-01
2.326285121632709896e-01
2.034364850734061425e-01
2.542175895862558432e-01
2.414913917671222543e-01
2.741880025028455292e-01
2.545594970457473738e-01
2.421279952957325621e-01
2.488436642451301306e-01
2.114425905340718004e-01
2.162381794814765557e-01
2.007164472659497823e-01
2.356799023854743991e-01
2.233751532049770283e-01
2.092364680406345323e-01
1.418565302152300367e-01
1.969028612582950366e-01
1.456323723864303421e-01
1.256740998373525597e-01
2.247181895898475168e-01
2.100206246601467597e-01
1.404806499909284911e-01
1.119816190469277162e-01
1.445739935592029179e-01
1.366631931526653965e-01
1.464149857333147398e-01
1.177477064850640243e-01
1.377011482937077758e-01
1.072509880576363039e-01
1.694013200983871537e-01
1.249420655182638534e-01
1.887858110545257428e-01
1.463045081778882595e-01
1.472651058025530313e-01
7.785165547356355520e-02
9.730113038586023222e-02
1.027554236890410866e-01
1.191711383352286047e-01
1.085523904653107330e-01
9.912019973310193244e-02
9.860099472951773525e-02
3.532939628621219880e-02
8.540546716208609335e-02
8.897910627119560989e-02
5.139646334577961662e-02
1.253115671472547488e-01
5.860861180630047573e-02
7.021568501689159914e-02
6.923848192911248589e-02
9.076223536124217173e-02
3.581793787673465818e-02
5.531277578225642089e-02
2.822150886568000963e-02
3.856193094333404403e-02
1.014869878188833785e-01
8.010953263068228136e-02
1.918774255965172842e-02
4.969671438501888777e-02
7.834662017342382268e-02
5.291080222363726826e-02
5.417946581187628452e-02
5.631890635508235432e-02
1.122922175273479706e-01
4.643573807409945992e-02
8.498217701398520785e-02
1.160667807568362547e-01
1.773829044104700825e-02
8.986005700638857729e-02
1.349457724532018288e-01
6.370447721462957347e-02
5.877262958285546512e-02
2.271031155872593743e-02
1.172396641242647447e-01
6.099521124897345353e-02
8.124213244064926176e-03
5.469041728970685384e-02
6.433256947293805594e-02
4.441486578437422311e-02
7.884402500936793512e-02
7.495748951348743527e-02
4.314131435288767746e-02
6.682654840239923844e-02
9.252120110514118478e-02
8.810718356253238737e-02
9.085336069414168270e-02
1.262068459924619579e-01
5.306482204344040859e-02
1.307804999626236975e-01
9.770742653875286177e-02
5.345142487431420175e-02
1.038563630472216087e-01
1.129600219742341594e-01
1.255183637493341442e-01
1.766166815477108465e-01
1.550772550268362804e-01
5.689959792416465767e-02
1.113260376689938352e-01
1.574446883009192333e-01
2.009673673516851333e-01
1.874726595970939713e-01
1.087110957328702165e-01
1.221732484347831660e-01
1.251270895231810232e-01
1.011417316344799533e-01
1.973400656398203168e-01
1.679736462376515971e-01
1.762572533575698652e-01
1.350894558958540825e-01
1.468024901588406150e-01
2.025957434202659835e-01
1.407018522427594953e-01
1.884423227846648841e-01
1.854641507943040890e-01
1.630255735465982458e-01
1.790111181279447905e-01
1.934800385324620398e-01
1.578031708469953831e-01
2.045848780917216558e-01
2.299458745215280375e-01
1.876782887572938097e-01
1.880011892497118753e-01
2.336855238806802570e-01
1.937769625759544756e-01
2.002601424025790278e-01
2.209148402682284962e-01
2.298006281232547743e-01
1.835684245918063340e-01
1.856613921228052466e-01
2.374083398392410893e-01
2.400304294403789451e-01
2.469770883647245951e-01
2.499836000761587185e-01
2.537576838666750767e-01
2.583585555773829645e-01
2.515892629610043119e-01
2.883932950305810317e-01
2.750995434612206747e-01
3.621842367621781467e-01
4.250076207408058360e-01
4.744228457205766358e-01
4.861611137382554348e-01
5.417330338054259231e-01
6.548423620156195168e-01
7.080389603560900413e-01
7.837868279327683263e-01
8.751583797239574913e-01
8.414212471585140740e-01
9.400313819556438411e-01
9.499016798554865693e-01
1.095724821343922351e+00
1.101905811674417368e+00
1.189930381387833469e+00
1.253339467306520350e+00
1.220019939511851836e+00
1.307958375115758187e+00
1.236887390797198227e+00
1.349239472707403964e+00
1.257889082278644377e+00
1.271630225422150096e+00
1.172418281793493833e+00
1.179229348033028479e+00
1.135563540399048721e+00
1.053182779751516529e+00
1.000796016596211757e+00
9.546694346167630130e-01
8.690491228749959163e-01
8.234355335927185937e-01
7.248675730295583985e-01
5.985654467458662031e-01
6.079712412989118908e-01
5.044134713251755553e-01
4.727302423829646272e-01
4.434493428520229763e-01
3.646640875396426340e-01
3.303894992484222026e-01
2.813529115966989513e-01
2.703545144774561204e-01
2.170784714458428855e-01
2.529857771688767132e-01
1.969308342802208178e-01
1.771729815342714676e-01
2.185208752739938864e-01
2.224252673781910994e-01
2.103522412332509139e-01
2.031164245419463943e-01
1.462336473243932289e-01
2.528911151597104112e-01
2.190297857578479834e-01
1.757650060959402571e-01
2.062578400265081824e-01
2.363707939827552340e-01
2.056376966536027362e-01
1.855352834761431757e-01
2.026732887184167775e-01
2.622463683680857915e-01
1.722847313075282771e-01
2.085614461054068891e-01
2.484967807854857602e-01
1.562783049928944124e-01
2.529728358943490463e-01
2.405809841073529853e-01
2.231205839212431763e-01
2.173844986689921210e-01
2.941566957169596264e-01
2.649923498753254392e-01
2.742453687478427771e-01
2.826876835905961505e-01
2.335361423466091046e-01
3.001393872953708741e-01
2.341812385426070287e-01
3.055334882974609645e-01
2.614844279750167533e-01
2.962569979837851308e-01
2.436163517283195246e-01
2.698618585565368266e-01
2.401293474655583626e-01
2.805409297639910315e-01
2.518025228291388973e-01
2.747613108126542580e-01
2.910085517220219464e-01
2.343086771939554835e-01
3.166257770231074575e-01
2.189097449401724294e-01
2.221015652134476492e-01
2.571262301915794302e-01
2.826522980581958611e-01
2.777727480700580287e-01
1.981892680455944189e-01
2.126090642444000423e-01
2.748454208157268264e-01
2.713719360808879433e-01
2.330147609648859919e-01
2.510979675557506452e-01
2.805875920831638615e-01
2.322562361709745726e-01
2.026379608158900836e-01
1.633557902610141277e-01
2.139434241886987165e-01
2.346887074468778089e-01
1.965630660072287816e-01
1.497722984160984594e-01
1.827507559632552681e-01
1.975933721903905260e-01
2.083638605076450767e-01
2.031372202060311993e-01
1.995996742680696268e-01
1.197286479824241079e-01
1.609698609482788645e-01
1.561463518017423557e-01
2.271752691377355582e-01
1.940992739736328576e-01
1.191793881743404282e-01
2.034278795578322030e-01
1.044202701334771555e-01
2.015026396029701017e-01
1.225585001429319032e-01
1.648241721348945032e-01
1.221019618318156252e-01
1.237577039247399202e-01
4.889126718834491125e-02
6.506231450417367113e-02
1.101227298294942120e-01
8.679132815128193235e-02
4.092657860347932719e-02
1.020992870796372659e-01
7.247444626840299220e-02
6.498125915400983221e-02
5.475240365641458745e-02
7.681139249720750350e-02
6.860843214092154918e-02
2.411872071349182092e-02
4.311935178790287509e-02
3.055098576969822802e-02
6.227761519093590048e-02
2.720405293597396093e-02
3.129114820622760224e-02
4.248020873750855964e-02
-2.255889357729963171e-02
1.116708698806353345e-01
-1.067725656728695568e-03
3.121862435955398765e-02
5.225373769546866332e-02
1.877703920397813878e-02
7.950791706553524130e-02
2.777373972996517726e-02
6.433241409744153150e-02
1.325994076802773647e-02
1.712555009232776676e-02
2.438722049847166437e-02
-2.727990644017595778e-02
3.384806879775060368e-02
-3.901163479254849548e-02
4.436983157961285618e-02
2.392585133632406380e-02
-1.841777058481329499e-02
1.460454417934054124e-02
-2.840435326665819230e-02
1.077812500039457277e-02
5.286716068802661816e-03
3.357722803001489398e-02
2.677505409630247940e-02
-3.773170775565762303e-02
5.432028110049370168e-02
8.467478386009280600e-03
1.899564062275466494e-02
4.133305752386759457e-02
-4.250135102972341095e-03
5.429790279884928912e-03
2.486509903312852932e-04
-1.221760826897177153e-02
4.537099037640645108e-04
1.615741967460591205e-02
4.897181996995303432e-02
4.957405559527215677e-02
1.719072996763659766e-04
-1.872494639853948192e-02
-2.974912834139902679e-02
9.813845958880844378e-03
6.658147972134549619e-02
1.453730899478113126e-02
4.805931753579816001e-02
8.632956085460131990e-02
6.471905284495745037e-02
6.035219332914909529e-02
2.489814017443542360e-02
7.484678135814729072e-02
6.429602166777181882e-02
2.132797926494868490e-02
7.706213270284811845e-02
6.917116062789394060e-02
2.854443894362650516e-02
9.502419663479128031e-02
3.648556259874581598e-02
8.692174579725339689e-02
9.604315466450653871e-02
1.221718854389660380e-01
1.185508473460361312e-01
8.875650748765889775e-02
1.311176080693575996e-01
1.122649389251596241e-01
1.365403811119893507e-01
1.348839127951054762e-01
1.632833205945330990e-01
1.262996647619979429e-01
8.072329488460776303e-02
1.563372328073288076e-01
1.643013754289596728e-01
1.553280699033579293e-01
8.284713728242643072e-02
1.148341714963862226e-01
8.969283655300824831e-02
1.809730584625101613e-01
1.390009492488122333e-01
1.405935501762054785e-01
1.728704963716936327e-01
1.780209644708903305e-01
1.473653523293650403e-01
1.021428480128691724e-01
1.310700585631586756e-01
1.714347236963291166e-01
1.436741178096242466e-01
1.561762958200480778e-01
1.550363648811638462e-01
1.953168223657761604e-01
1.589236579364553814e-01
2.480186284839605848e-01
1.750871533715354644e-01
2.259872609884223393e-01
2.351823032359738330e-01
2.688255967889852660e-01
2.686893882272614609e-01
3.433938873335466435e-01
4.237131714177349018e-01
4.298006160792268160e-01
5.111242359294949633e-01
5.875260296243907110e-01
5.989821125304108929e-01
6.731241038883994943e-01
7.960475860261124748e-01
8.594054767432409703e-01
9.077477766661090630e-01
1.069486788230383123e+00
1.053082403221903274e+00
1.109410630826449085e+00
1.143760721527124380e+00
1.164440544163827473e+00
1.241063263527043548e+00
1.251915966831449900e+00
1.308028972892852915e+00
1.201533107178023752e+00
1.253317949466216330e+00
1.202461380620770903e+00
1.205322094887060436e+00
1.131324934773161095e+00
1.066089517741985127e+00
9.948019743125482428e-01
9.599189823043484671e-01
8.590999365018449074e-01
7.742819661501576523e-01
7.342149966280324680e-01
6.396370093843173343e-01
5.348988758213275574e-01
4.733622612531958040e-01
4.135978590027945545e-01
3.936762719960372192e-01
3.645821600511486849e-01
2.536079807767199767e-01
2.689660141417144490e-01
1.776967071267688547e-01
2.632429581303762922e-01
2.213094052266924294e-01
1.284536108687517053e-01
2.240228930305986077e-01
1.697299886677216540e-01
1.260550844242856461e-01
1.119526071211502383e-01
1.385986856524349109e-01
1.381853207375098591e-01
1.410251228477023000e-01
9.242589822306752911e-02
1.214353860507501048e-01
1.405631966438165015e-01
1.674246272566979887e-01
1.157498991573958080e-01
1.652568570074660070e-01
1.622624340451283009e-01
1.376105747169832638e-01
1.852096660808271178e-01
1.243581492897448404e-01
1.563071430420216179e-01
1.662699613345071104e-01
1.146425596551149950e-01
1.803505209150964572e-01
2.121089198750334692e-01
1.682865347108465359e-01
2.174253042681033588e-01
2.093858578377288948e-01
1.909827102498976581e-01
2.111692965237845221e-01
1.859013238794677281e-01
2.563758573050685108e-01
1.682227152859635533e-01
2.123001069087258330e-01
2.256970098756489740e-01
2.070960148373742205e-01
2.128388802576668126e-01
2.046503220372974385e-01
1.870984935466136478e-01
2.049031755980336988e-01
2.446483797730072129e-01
1.424577112949457214e-01
1.928883871599608724e-01
2.138838243062740896e-01
1.692557467851735775e-01
2.140767607296754638e-01
2.170950121905938224e-01
2.092924360295004282e-01
2.006105312028806098e-01
2.503383884537350723e-01
2.214604265423097962e-01
2.270305069661267272e-01
1.594760829984509798e-01
1.502810956265850095e-01
1.786218897277605522e-01
1.949080138505836779e-01
2.097504986485904110e-01
1.429851403253489528e-01
1.703618310269598701e-01
2.190485073374676406e-01
1.615605383533160744e-01
1.292041048700614536e-01
1.730901382064682359e-01
1.005717528406850497e-01
1.072796487851574165e-01
1.303437584130176796e-01
1.211486123464563802e-01
1.306989197666493241e-01
1.620436343464520257e-01
9.524427047701794491e-02
6.353985394885884597e-02
1.087603788770652308e-01
1.381037347739626497e-01
1.054923649723995549e-01
9.730375255597176198e-02
8.659889948956260575e-02
8.149787015145268376e-02
1.059780168529723954e-01
5.762879521071470612e-02
2.708792320719352609e-02
6.594270979202281058e-02
2.201721406026675709e-02
4.297407099518930906e-02
-1.122233646070172619e-02
-9.893507589915175038e-03
8.521217006365988667e-02
7.153089819375242631e-02
6.011486599754388427e-02
6.287872397359223209e-02
2.246670600695522407e-02
-1.098864617348251776e-02
2.080230259926003911e-02
3.881210083943674449e-02
2.098748284853647894e-02
-3.834584486506573131e-03
4.766913615333751020e-02
7.875825971726435615e-02
3.152189403516116040e-03
-1.510208013681534067e-02
2.707737104383773491e-02
-1.065833390094524796e-02
-1.811787672701255930e-02
-7.914421760970624664e-03
1.454831717204463359e-02
-2.068486697766317578e-02
-3.562403554956909690e-02
-5.027228168170525674e-02
-5.501603734893092956e-02
7.223070787619814692e-03
-1.376744810924526025e-02
-9.087627390159452867e-02
-9.600591683656109487e-03
-4.029895649489256132e-02
-8.646927869454389126e-03
-7.814029055779508903e-02
-1.290551121312395744e-02
3.945239546003607295e-02
1.038580829387195786e-02
-5.567138964363356479e-02
-3.909031673857510381e-02
-2.536290822726001981e-03
-1.697473056712636014e-02
-1.137966170280020617e-02
-8.129558678399037563e-02
-1.658153029562112191e-02
-9.374819218942335997e-02
-7.255663957998109703e-02
-3.605338658121164802e-02
-5.223803004458175969e-02
-2.292915373606812385e-02
-4.693399435181030976e-02
-2.549592321735460326e-02
-8.802166398117879098e-03
1.593234278184417485e-02
-3.202706039471533289e-02
1.288646184059295818e-02
1.785664531934127996e-02
-2.858826466324652232e-02
-4.262716865159005275e-02
-7.784786351577679953e-02
-1.250840018678331389e-02
-3.671917690316395949e-02
1.528280545366884902e-02
-2.544951435439909981e-03
-4.802378984571873538e-02
1.485525190901650083e-03
-3.615568808751658259e-02
-2.758362297757260828e-02
2.034101761312835654e-03
3.795262617705390945e-02
3.321939661564537322e-02
6.835016323051906761e-02
3.617740796944556025e-02
3.013516726448044886e-02
3.680902065707407356e-02
3.570668361856856043e-02
7.133122541312621190e-02
4.917582535743931366e-02
4.403069842559217961e-02
5.618622380359603735e-02
8.838917727527424717e-02
3.745892953657954660e-02
3.805143877564868410e-02
9.717662538374632897e-02
9.076821797068712616e-02
1.033215613473127681e-01
5.252047596348039665e-02
1.057873096448455341e-01
6.024284918128869348e-02
1.113171024440258450e-01
9.464854268020880812e-02
4.188369598319175574e-02
4.564016907684793206e-02
1.372357677093800632e-01
1.102994503005489124e-01
1.191047938670755368e-01
1.132581277641424161e-01
1.074634881412431520e-01
1.119667685257545731e-01
1.293143734143875900e-01
1.189070043043835012e-01
9.469757518412982855e-02
1.188555109297055323e-01
1.490018318470100189e-01
1.474786136049163199e-01
1.348797901582782233e-01
1.373055019721239334e-01
1.350644603726637583e-01
1.402983263187659591e-01
1.800864193337533836e-01
1.813515086197756143e-01
1.635294319223747905e-01
2.018763357044627282e-01
2.453866856902250648e-01
3.230146454033144821e-01
3.296327183302945052e-01
4.037398871230564734e-01
4.930788608778721160e-01
5.118502355728622444e-01
5.390443341156361257e-01
6.144077215815094695e-01
7.054224735605743035e-01
8.262329878964320695e-01
8.832514931572518213e-01
9.342835897953155611e-01
9.781097202519655198e-01
1.023107271049081834e+00
1.113225585270951168e+00
1.131562610035402816e+00
1.177346126622317524e+00
1.112423042937069395e+00
1.233922846499058368e+00
1.189600330212478685e+00
1.227588317955528030e+00
1.207155835318702852e+00
1.176767274021397247e+00
1.118131825472102436e+00
1.019345095478264795e+00
1.009202502222488862e+00
9.462636732858336064e-01
8.484808114846809080e-01
7.893243177696989132e-01
7.108463413983560075e-01
6.960755838847798582e-01
5.474124362968180169e-01
5.199749947245512205e-01
4.538779470269945771e-01
3.845313295706487278e-01
3.170918137038287177e-01
3.638021533441762045e-01
2.653314405716887814e-01
1.995525565274280377e-01
2.136778936688830677e-01
1.546492728938247130e-01
1.484162533739493972e-01
1.381046274312926758e-01
7.704603435060017325e-02
1.272788458453557592e-01
1.037771058031666943e-01
1.265987939650408123e-01
1.060983957246175446e-01
1.438984885066203478e-01
7.534444567680560756e-02
7.059114071742224328e-02
1.548778652978151649e-01
8.561540771122058691e-02
1.033452529876136422e-01
1.261804895889316047e-01
1.021632168566561916e-01
1.383366061224242660e-01
1.492079902454447327e-01
1.186277504144774286e-01
2.014246337540728238e-01
1.276029458284309581e-01
1.483756516225387678e-01
1.595576103530035039e-01
2.246302744032861731e-01
1.313907849293695917e-01
1.984377190208911068e-01
1.515805624267258234e-01
1.898353929219046554e-01
1.333806306026470712e-01
1.518094448882603698e-01
2.328420213688810747e-01
1.429352311604462911e-01
1.958762753178752147e-01
1.499154147130898340e-01
1.663639140162422037e-01
2.129410669367562126e-01
1.896454809928748986e-01
1.139390967132907773e-01
2.018439713147924530e-01
2.265004163708104756e-01
1.987902912107501474e-01
2.359186657558509648e-01
2.372185275638528379e-01
2.511494831199326816e-01
2.155908166312404950e-01
1.548832244518469070e-01
1.545838775452937908e-01
2.073233960728819991e-01
1.905164541865529970e-01
2.610149731747751223e-01
1.329734202659814679e-01
1.967295010199650307e-01
2.030679645562411262e-01
1.988222815633744200e-01
1.775302567027856604e-01
2.420268311042259313e-01
1.840161156784103913e-01
1.688156430880342340e-01
1.588744109892744061e-01
1.335707533618264997e-01
1.658604481347097925e-01
1.804372818473621298e-01
1.738452205724514421e-01
1.710716085254919694e-01
1.237310980388979104e-01
1.130721554236294862e-01
1.643223664561028474e-01
1.533500240887155086e-01
1.269172225577020752e-01
1.030383746102710996e-01
9.555508237045998166e-02
1.071718319814466830e-01
1.771696383774250816e-01
8.265564803779487657e-02
1.446484503113255327e-01
7.189788282029702104e-02
1.343569370569782651e-01
9.862838873886381474e-02
7.712309503152187107e-02
5.514213325692233353e-02
5.993563257446242465e-02
7.725170818261700711e-02
3.644700943753850786e-02
5.162978779782870925e-02
7.037447152667428152e-02
4.438858180449418989e-02
8.098848948699016725e-02
5.696168119364287269e-02
3.221756380705406014e-02
2.272517064986542823e-02
9.244419656282344688e-03
8.713552586584159820e-02
3.514071506729755934e-02
2.799579362509282271e-02
-1.877492083034603548e-02
8.547479468568194849e-03
4.915651524791972427e-02
5.353165345057211977e-03
-1.707459322582065286e-02
1.811435091717499002e-02
1.974681564123347000e-02
-2.347956882946864235e-02
-5.860277049578992842e-02
1.356362915971178612e-02
2.375238389659174026e-02
-7.167647893124291791e-02
1.928189295865907066e-02
-2.980758555080009753e-03
-6.644487087631992944e-03
-4.450871747250384480e-02
-1.465134133475024317e-02
-2.055527860505807283e-02
-2.609142745317719059e-03
-1.408584178162047146e-02
-2.930877332454799589e-02
-7.553087852940933156e-03
5.319992309575508754e-02
-7.410833641385744519e-02
-7.859583720244876781e-02
-2.930907564953951286e-02
-1.614962013693938339e-02
1.081748066236232902e-02
-6.871825338661571858e-02
-5.601943463010255336e-02
-1.791652588892321887e-02
1.416368119829480160e-02
-7.769057946828267919e-03
-2.444211456750208442e-02
-1.687821473555750976e-02
1.850296725767725664e-02
-4.446696172929558155e-02
-3.657202567225671663e-02
-7.096460170619126040e-02
3.994558382760889786e-02
-3.583359804196190046e-02
-4.453460570865614560e-02
-3.583049562966630214e-02
2.466427579679800891e-02
-7.492013335798727858e-03
-2.959032255925690691e-03
2.126901225435599146e-02
1.548301051074198881e-02
3.993042644087681226e-02
-3.778829752508292006e-02
7.710088047892039997e-02
2.582480987963436947e-02
4.549202410788194539e-02
-9.383578517028083599e-03
5.474272430632305675e-02
4.350116708643789187e-02
3.489387710434138645e-02
5.039412513771759916e-02
1.134933651812207733e-01
4.876678078947839501e-02
4.535333652829920403e-02
2.875191884074185938e-02
4.671398736972205007e-02
7.849484690352884209e-02
5.591581380628438125e-02
5.641442724911464868e-02
7.153758941630780632e-02
1.198187799170541690e-01
8.951179884832938249e-02
9.953632098835937803e-02
8.259873592383613905e-02
7.086467357765517672e-02
1.383586372113287111e-01
1.049210550572842182e-01
1.225826536709092029e-01
1.251939279659332049e-01
9.511582218670062983e-02
1.790643389705706690e-01
1.643602917546757858e-01
9.577619457976935258e-02
3.497910837840417786e-02
1.049360098949536357e-01
1.543896906500922261e-01
9.737009953092613801e-02
1.641277393755377623e-01
5.261316660559250957e-02
4.579725696966520376e-02
1.409529610226296636e-01
1.192013065881344369e-01
1.050652214623385705e-01
5.276232338539396660e-02
1.268658819486664646e-01
1.756650066286929712e-01
1.825425695054617437e-01
1.427388945013434718e-01
2.340255089083129458e-01
2.814743694588165979e-01
2.147397897647716491e-01
3.294728726982797395e-01
2.975323449469496340e-01
3.356350890811324872e-01
3.818865167274378969e-01
4.536761773561689415e-01
4.750188871579208993e-01
5.806115707305939955e-01
5.859965054108364768e-01
6.775363044178684957e-01
7.408953026952587173e-01
8.180713407428835682e-01
9.027360165730835551e-01
9.631842423662352326e-01
1.038256038167411521e+00
1.135817798400376111e+00
1.092785250983860701e+00
1.186896432396058687e+00
1.240189506375925621e+00
1.228415893490895305e+00
1.211766120075439490e+00
1.267586128497050213e+00
1.216486757668723939e+00
1.185472179454331254e+00
1.219934605732755584e+00
1.094456396486917615e+00
1.050588003015259675e+00
1.051618018137951527e+00
9.478052006515415018e-01
8.597868976627547344e-01
7.651746118540386776e-01
7.442266815418022707e-01
6.801533116395701573e-01
6.092317733124454904e-01
5.196214658820714760e-01
4.673952544978060564e-01
4.285984066057706432e-01
3.507453992649255947e-01
3.304473917222013335e-01
2.937764752336229912e-01
2.445487610657564037e-01
2.693137471959785589e-01
1.658744246006758349e-01
1.072078368894561623e-01
1.788117460114229951e-01
1.436272545580204174e-01
8.831853478217618902e-02
1.544864134569785552e-01
1.690661781417436560e-01
1.286721386346762475e-01
1.625232944610904007e-01
1.437154589390558235e-01
1.803348996999986631e-01
1.454767114561507924e-01
1.519182079419275078e-01
1.871633403137420437e-01
1.220097763862811879e-01
1.315191852086854130e-01
2.051000141496708840e-01
1.604036355682712522e-01
2.035349966700669699e-01
1.494943556202442403e-01
2.108564494471933948e-01
1.737410871523959177e-01
2.244540992820460990e-01
1.425210253814753469e-01
2.232905515270139363e-01
2.141606980547453576e-01
2.295600415357175184e-01
2.580739769635140846e-01
2.693041491311910507e-01
1.922437148208381019e-01
2.358073664989032703e-01
2.452424158322189240e-01
2.255315790846978419e-01
2.725351313343891690e-01
2.564634078236830428e-01
2.710441820552889625e-01
2.026454866183631520e-01
3.184612046923858131e-01
2.905259734234730828e-01
1.957758534083162694e-01
2.796632685065729707e-01
2.090119830563799685e-01
2.198188616892965686e-01
2.430632080466220146e-01
2.586511200606472771e-01
2.631030691751699568e-01
2.168244324225509223e-01
2.770224313110207781e-01
2.652262234490453396e-01
2.740002704757576457e-01
2.268025641273601900e-01
2.613501877666796758e-01
2.148285210720347616e-01
2.149853649594000715e-01
1.986378964925514801e-01
2.295589190517172418e-01
2.026595289849851822e-01
2.292365317231534472e-01
2.631447045796890261e-01
2.197637685311481237e-01
2.317032170006143865e-01
2.126382869358259542e-01
1.874199399210511874e-01
1.598944909906006295e-01
2.128648208541817077e-01
1.817143173504438269e-01
2.022307406514628203e-01
1.852250241819645427e-01
1.906530569611245007e-01
1.482749333780483958e-01
1.729901769985761062e-01
1.578660254556379927e-01
1.708444970502063509e-01
1.550529439674155352e-01
1.731595509052831217e-01
1.421046828002168194e-01
1.456482174557445497e-01
1.530558258498936619e-01
1.283333028759885419e-01
1.665205105321546919e-01
1.565682122807891818e-01
4.565339960260749591e-02
5.232967261576350337e-02
1.137274868867499122e-01
1.254851171123610998e-01
8.820924418951742174e-02
1.276590484194702890e-01
5.086117063469931115e-02
5.859209232433194164e-02
1.245046500616625307e-01
8.537078855681427825e-02
9.560961039329518574e-02
1.324950603582460973e-01
8.830689524504994892e-02
6.135706094511284014e-02
1.032301952202294426e-01
4.102709559788215998e-02
7.214354017015395248e-02
5.852275754465766783e-02
3.454623344312925809e-02
6.153160391827112996e-02
6.946070477602947491e-02
6.326773097345263219e-02
1.257327122654137985e-01
1.362400970525656958e-02
5.368283957421233349e-02
3.883271364032320205e-02
2.265561260457031600e-02
4.119306394401966998e-02
3.451551851255804659e-02
3.897160183093325431e-02
4.692458172096548863e-03
6.459917220949605576e-02
3.516928393173742590e-02
-9.900274273677137082e-03
-3.488988152539172771e-02
2.153489794098712926e-02
9.531733739416478612e-02
-4.135738076451352108e-04
2.951994231666904556e-02
5.358239046005351669e-02
-1.390615389754017509e-02
3.814255479196163034e-02
-1.214373781167013208e-02
5.541846492475879793e-02
1.123311338972896901e-02
5.288208560522474067e-02
1.517812729412400079e-02
5.363825213959855231e-02
4.671669169730857663e-02
2.984628063931960007e-02
3.597447327113596077e-02
8.678649615602324063e-02
-9.793872694180423555e-03
5.087028900037189605e-02
6.094914928471786841e-02
5.184294954667707095e-02
4.655506435686349725e-02
9.660582798598359167e-02
5.304203857331456218e-02
9.084253488678729893e-02
1.135211587735248662e-01
4.669022784316921582e-02
8.696562445175744227e-02
6.983960302209797633e-02
1.049478355324462431e-01
1.187529236555737860e-01
4.595486353489947051e-02
1.011587122291516261e-01
8.017865137988561264e-02
1.002063275557025929e-01
6.188670362961221083e-02
1.483317390391070967e-01
9.661644283185932824e-02
1.551014794641247807e-01
1.863164024482215075e-01
1.125612460053556779e-01
1.670347614907185529e-01
1.877388655438727294e-01
4.774811079879822534e-02
1.752938307639723137e-01
1.504412013490006306e-01
1.486325480990514925e-01
1.291832057416264778e-01
1.761067481869589557e-01
1.801813148078072746e-01
1.957786637962709297e-01
1.689659434890654066e-01
1.340202621871568744e-01
1.958448912490499960e-01
2.228879669781643758e-01
1.531155391860807291e-01
1.771520544303450406e-01
1.883411311620320772e-01
1.777766618098807483e-01
2.139700030348144211e-01
1.922543249517299213e-01
1.945667543462357985e-01
1.270620771388092651e-01
1.894950271951801879e-01
2.074900476351651535e-01
1.549727966684248393e-01
2.378180187592000006e-01
1.857919207902360703e-01
1.994326709773868445e-01
2.361594181148624072e-01
2.303393435641230003e-01
1.905234750991590120e-01
2.002582625185098109e-01
3.003348556497328348e-01
2.370042722667958790e-01
2.835365893750100841e-01
2.668690874447907646e-01
3.857684421994648227e-01
4.050725885959783890e-01
4.366093836236812908e-01
5.341311288909674770e-01
5.636785301068278908e-01
6.274711099863170549e-01
7.255120590374801726e-01
7.317402090762830102e-01
7.878605221537428038e-01
9.348879413015103168e-01
9.519473294969964527e-01
1.024126690597830125e+00
1.108417364696486107e+00
1.185756464687634848e+00
1.222922337325705877e+00
1.278365445741204809e+00
1.233364108975680384e+00
1.288216438724652413e+00
1.314538554972547679e+00
1.306985540784520783e+00
1.333115259700611510e+00
1.268825465972744482e+00
1.205505033706132823e+00
1.221551000373090723e+00
1.172002760427348411e+00
1.058085691691204699e+00
9.825343172655972568e-01
9.539554655783867299e-01
8.775178091831912219e-01
7.598987696732080188e-01
7.101316140782253372e-01
6.831706294300129434e-01
5.608389614254735145e-01
5.116084250445068760e-01
4.427750661440685853e-01
3.573642413350751057e-01
3.878676213719794430e-01
3.098321865706951117e-01
3.112750967708013405e-01
3.208008441821914580e-01
2.490744152772624287e-01
2.406646666811999569e-01
2.120280386545893292e-01
2.424092304017817501e-01
2.153788105148018717e-01
2.014116485595600081e-01
2.370664299962725874e-01
1.601348452746768347e-01
2.320036103045051701e-01
2.278956409939120187e-01
2.279978880168333499e-01
2.454191590772395459e-01
1.964738973949448630e-01
1.636269463768103005e-01
2.242091990881244778e-01
2.479822245418558391e-01
2.052762103600044574e-01
2.129390173275693687e-01
2.070944274476661517e-01
2.294372965883833826e-01
2.215880999304253307e-01
2.495038235841748886e-01
2.457991810286361822e-01
2.667685637527077436e-01
2.421798945389150026e-01
2.828267716912557517e-01
2.827939629028228818e-01
2.588468685165434269e-01
2.742551231408346668e-01
2.912013565009335947e-01
2.646920245687222617e-01
3.061275036195286181e-01
2.368321899909500428e-01
3.355828236229280725e-01
2.722117796745663898e-01
3.146149453670363250e-01
3.190619327014659889e-01
2.658948173795265268e-01
3.240839632497740652e-01
3.068872354196032770e-01
2.850255576522097711e-01
2.850567418661817398e-01
3.040178429620242762e-01
2.753779269126376272e-01
3.407977263126551470e-01
2.691840313329671996e-01
3.173663472618791781e-01
2.970713878600724778e-01
2.926118287620045333e-01
3.028772678420726394e-01
2.833354012681214562e-01
2.579325747484989551e-01
3.211069045647895193e-01
2.511316103053565230e-01
2.584846401547369887e-01
2.798389261310076925e-01
3.366846175656604823e-01
3.039356340347171281e-01
1.899985065613149227e-01
2.275263988966794992e-01
2.871023346645905638e-01
2.276395262786272689e-01
2.405927281653397753e-01
2.033455606771776003e-01
2.565303146713658333e-01
2.073331595302337071e-01
2.248916198925605403e-01
2.261495568928799105e-01
2.909883764803777861e-01
1.774850833771932368e-01
1.843408428448419789e-01
2.202400061730730718e-01
1.947089803561890542e-01
2.330976265535420755e-01
1.750752179354118920e-01
1.318552444471630669e-01
1.147853973162476782e-01
1.454422247612402463e-01
1.448720566951403055e-01
1.153249756262458015e-01
1.823106240431922598e-01
1.660945222115834952e-01
1.395637997370448857e-01
1.640558376993943579e-01
1.607962396147034623e-01
1.421671037035755203e-01
1.434158207787506467e-01
1.093725377526228032e-01
1.279874890026089507e-01
1.428228853556416933e-01
5.317112890464559954e-02
1.193073963113764069e-01
7.857581128819114691e-02
9.124441098796778893e-02
5.162825487804190150e-02
1.569763583149474673e-01
1.314417936431230560e-01
7.100045474715629967e-02
1.475661063682933982e-01
9.118793988798358507e-02
8.040435851756723429e-02
6.887464346083732591e-02
1.434784540842859168e-01
1.128598068983013847e-01
7.569610591276555722e-02
1.592609065567731491e-02
1.150280639742380789e-01
9.508606937247693347e-02
1.001604825484896377e-01
1.520449855251642113e-01
1.131349836187207913e-02
5.260296161623509437e-02
9.583469114186901616e-02
5.466218753089063798e-02
1.295762276707124183e-01
4.349921072007854883e-02
7.934199298418403989e-02
1.007691201711347906e-01
2.602954667905585384e-02
5.651900883137036397e-02
6.207921333199978298e-02
5.576703044761394806e-02
9.331348381740472986e-02
6.107051280018457873e-02
5.417819256929269633e-02
3.472447087559888540e-02
5.749792633106735190e-02
7.089771423333357525e-02
7.781533096902742974e-02
1.564845312881093381e-02
6.656268759365187304e-02
3.874207835632759167e-02
2.096217073511747950e-02
4.964515685200705103e-02
-5.241404600876559822e-02
2.122603017257195662e-02
8.280898367022426765e-02
4.554798995820193847e-02
1.353721927829354132e-01
9.264409016410037057e-02
6.694569694352242584e-02
1.821402094869049165e-02
1.868273046519021777e-02
9.038703676244941310e-02
5.064069055238438338e-02
-4.647116130327873240e-03
3.117145285304707969e-02
6.360568153750890963e-02
4.104300628054313727e-02
-2.801639900746992484e-03
6.291277329996450285e-02
