1.408145689971884718e+00
1.347791251127280487e+00
1.426774458071770058e+00
1.336533964367641492e+00
1.276217551132634576e+00
1.206600794671818022e+00
1.199012704806554641e+00
1.058888350702473113e+00
1.041147183959938438e+00
9.934153488741978011e-01
8.720163311197337563e-01
8.708671649272342608e-01
7.869959795981293915e-01
6.483053347420596468e-01
6.019141038574773450e-01
5.725327280680743147e-01
4.535052042253577831e-01
3.951747610581987091e-01
3.469890491698647272e-01
3.221505515967492683e-01
2.501727504101811106e-01
3.218450424498908169e-01
2.576087946958565134e-01
2.341437964937851390e-01
2.444778069746490479e-01
2.063698785335343899e-01
2.015057317897739897e-01
1.955163141494906109e-01
1.903110100118862724e-01
1.928248630252766271e-01
1.611765061484771444e-01
2.064967318150661979e-01
1.776781105307042030e-01
2.157172959154442515e-01
2.268328889377241864e-01
1.936501590555185504e-01
2.269088825294866829e-01
2.579324929074047201e-01
2.073607975626198807e-01
2.236844708631269274e-01
2.125935745930223608e-01
2.672734975870121321e-01
2.942714906179482171e-01
1.996587046086859829e-01
2.855981808570151048e-01
2.850605402335120164e-01
2.575216325777286430e-01
2.738908639095717357e-01
2.405139541286551719e-01
2.676682882393659479e-01
2.641128315635367652e-01
2.554624877896946589e-01
3.213569295512993529e-01
2.712652976643767921e-01
2.989726034315782766e-01
2.925334752969834251e-01
3.189367497140169760e-01
2.826769396634358222e-01
2.127707990716130593e-01
2.929766166575072939e-01
3.026151548182898221e-01
2.620035460385465864e-01
3.040542357917933036e-01
3.000274170607035717e-01
3.199222948187767090e-01
2.810341405779180901e-01
3.114366262791264384e-01
3.368708875752747245e-01
2.647759059844861929e-01
2.568517462996242617e-01
2.378166427660237947e-01
2.852364542391691571e-01
2.046873369967842637e-01
3.238552974170554322e-01
2.656215644727440983e-01
3.448907975409638560e-01
2.762851659756471179e-01
2.909548765462112163e-01
2.437328843155672498e-01
2.655395350052243697e-01
2.884690088141030340e-01
2.652122717611065661e-01
1.963642301842127846e-01
2.066777119367470550e-01
2.714798897843432313e-01
2.324724384311275538e-01
2.050606113227556870e-01
1.701440145887974931e-01
1.934566125192690167e-01
1.598941817323595305e-01
1.694062986058136600e-01
2.577227138930443529e-01
2.112728237813927823e-01
2.093098153936354122e-01
1.923665382421863579e-01
1.495120017143591329e-01
1.765658658925486901e-01
1.861916456534502551e-01
1.623487197145764283e-01
1.484949085529083668e-01
2.017804681627945740e-01
1.389410454873392098e-01
1.482034643397074358e-01
9.226823774578379878e-02
1.623492414481262636e-01
1.278166923613212602e-01
6.890578763446245092e-02
1.620853302167947763e-01
1.282751932143041951e-01
1.035003391726081745e-01
1.032891166008925721e-01
9.622888809132344734e-02
7.141630786881864035e-02
9.879266503006924049e-02
5.370562537528206920e-02
1.374413252338748392e-01
1.060214926340853903e-01
1.152446127445400925e-01
3.152148053860753807e-02
4.761409214813139973e-02
4.294759877380697338e-02
1.198685593116371184e-01
6.010583568496411649e-02
1.542917372069102511e-02
2.751351725354420769e-02
7.262556236362455175e-02
1.024789971788563070e-01
5.747830257042615965e-02
1.049599635662532282e-01
4.964571084375997423e-02
1.102481319757068617e-01
1.093411976670431857e-01
5.091992983996599526e-03
7.983322349172373988e-02
7.362110400878144056e-02
3.821182429244657230e-02
3.507132322097603061e-02
4.962220777252751569e-02
4.118082677765595723e-03
3.228219717446166592e-02
1.085806767905874437e-01
4.135661177273409345e-02
5.821441369873162075e-02
9.812000500201967235e-02
-1.851102786700662556e-02
4.392428372655821089e-02
3.765234626212613650e-02
6.674900639939143621e-02
5.623589428716464778e-02
-5.745605532997598297e-03
1.535253001756354402e-02
3.967545029756978925e-02
4.940465715941463887e-03
8.940957509176752915e-02
5.612950184958893918e-02
7.912216665899170220e-02
3.278089087750046815e-02
7.600805270077998221e-02
4.957559346979550918e-02
1.222152528395884993e-02
-6.808275192425914529e-03
7.015348248307048951e-02
-4.157920201318356795e-03
4.966515317082317860e-02
1.165367045937902163e-01
6.493981005120917638e-02
6.786804157451396813e-02
6.700380504312422603e-02
4.960425764632744872e-02
9.985898147446627127e-02
3.976935720695377874e-02
2.491750242412957284e-02
7.356885067672980227e-02
7.179351692723862088e-02
1.267821163890947012e-01
9.986655947578222670e-02
1.054397787795384039e-01
1.585340374174192823e-01
1.257459778896143077e-01
9.331001449138784376e-02
1.124140451292490045e-01
1.607183137652825888e-01
1.292438677519308909e-01
1.553366841094555029e-01
1.258453278007368725e-01
1.391068056401896513e-01
1.942348689637061754e-01
1.631145394142315963e-01
1.585039200712520802e-01
2.425046630229179823e-01
1.671207024398060070e-01
1.753586601031489334e-01
1.341991526212428232e-01
1.781262089237268809e-01
1.834179153986092436e-01
1.558939080970876134e-01
1.490261718544996783e-01
1.677079225248966354e-01
9.632516153144415894e-02
1.958332589413437075e-01
1.816474132668609298e-01
1.927582688389593846e-01
1.903593811615290066e-01
1.879555137274837862e-01
2.000692737793877130e-01
1.431178970050736576e-01
1.914319462237335234e-01
1.560711008788963072e-01
2.084458389360208386e-01
2.024490789886750908e-01
1.917813180638288095e-01
1.908513098618671300e-01
1.938829718387716228e-01
2.010169925302669469e-01
2.369294416664546876e-01
3.092157370027085461e-01
3.310806740734591469e-01
3.785636267306081160e-01
4.294281239305141051e-01
4.833614051370188625e-01
5.622409951468170242e-01
5.793393440823991769e-01
6.822382136186775359e-01
6.774803260577211272e-01
7.806318673523883200e-01
8.316997318432076680e-01
9.563805313138009634e-01
1.010598222435554971e+00
1.083789728450171852e+00
1.145551883353872924e+00
1.175399613440847091e+00
1.219676759944463562e+00
1.272227799978269625e+00
1.331594959821611912e+00
1.314510375443761037e+00
1.359143880034030749e+00
1.321877988253653990e+00
1.286105761980326667e+00
1.349229608447334749e+00
1.251445767673691423e+00
1.177378237426795149e+00
1.133223112373632491e+00
1.086934937477620711e+00
1.022338430987275837e+00
9.938318565264230298e-01
8.796390653253118863e-01
8.032946338716586698e-01
7.026421895030168230e-01
6.733233238249053398e-01
5.182345995195080102e-01
4.372393665365321702e-01
4.606668436890860030e-01
4.616775222373060150e-01
3.710357448845583161e-01
3.469105656144164662e-01
3.260734476028029905e-01
2.375893832181747989e-01
2.463268625368234266e-01
2.637217789091533260e-01
1.731564644646295947e-01
1.778992797440308860e-01
1.568064168443908113e-01
1.459428505172800095e-01
2.177594110795507965e-01
1.523182436162285880e-01
1.791137699605839795e-01
1.541830833274479562e-01
2.027461139891022501e-01
1.488732030701853393e-01
1.856593296899440582e-01
1.239262523253482629e-01
1.354699743932616940e-01
1.710733434990459878e-01
1.961775625641375975e-01
2.408431966729722706e-01
1.789935062774369590e-01
1.788099486079222089e-01
1.845530360596431552e-01
2.087499222481053740e-01
1.720524729465398861e-01
2.553106312891790797e-01
2.059489381348209303e-01
2.511330160334315775e-01
2.018199187166819231e-01
2.130836340825329744e-01
2.456089404276786126e-01
2.438007984691189234e-01
2.300482741372260886e-01
1.823537444688896614e-01
2.700726393715015550e-01
2.352525782231522922e-01
2.865336838717724710e-01
2.631080748663656710e-01
2.315027011410536462e-01
2.359204708082314750e-01
2.139980434534687337e-01
2.187944549009778195e-01
2.902519404901643951e-01
2.561939321256871405e-01
2.409417042417867083e-01
3.128993513431571616e-01
2.650263909028046649e-01
2.477383897996357220e-01
2.074883937232719910e-01
2.642813988353251986e-01
2.936051731694880318e-01
2.044568805453458038e-01
2.261350449098364634e-01
2.062771995555608417e-01
2.174207578544797848e-01
1.979905688014881593e-01
1.582259536060147964e-01
2.062252091297715750e-01
2.132283350286446333e-01
1.982660935630749799e-01
2.204155053577616097e-01
2.279604825450134153e-01
1.842390607789152479e-01
2.280236177368496764e-01
2.621767037204491557e-01
1.970387770479625211e-01
1.241886235113011244e-01
1.870340044755829934e-01
1.658676392834468050e-01
1.239210476196494631e-01
1.726116481589018981e-01
1.542196794801020676e-01
1.147489627790649197e-01
1.274510755426815634e-01
1.175918558850729129e-01
1.397398872782825985e-01
1.745417079761988899e-01
1.060270701568801766e-01
1.486653786843160907e-01
9.672064961180384945e-02
8.695392828848663713e-02
5.267759410318870877e-02
9.643482380950010868e-02
2.887483490419900586e-02
1.149752667025971536e-01
1.568183590324629395e-01
1.227395266529387741e-01
9.241320405093564339e-02
1.114953114718451044e-01
4.574865412317329072e-02
7.099166052531245830e-02
6.225231951988438595e-02
8.735655335271274441e-03
6.703835329816539013e-02
3.140567285122364272e-02
-9.699981105796486036e-03
8.646438838097493529e-02
6.571229066429276622e-02
5.016001449152376890e-02
2.976343131710049508e-02
1.939968741788786200e-02
-1.884107702487488462e-02
1.412030988700440151e-02
5.004162443478349376e-02
5.780661956312663913e-03
7.163698127141286676e-03
4.382375435303471900e-02
1.019197389486790201e-02
3.669281545111880566e-02
-2.878464720573395419e-02
5.857579471086880873e-02
-6.865132978880817902e-03
1.149818039650962395e-02
-2.945007559703635702e-02
-1.667310920364191082e-02
-4.051316486864954547e-02
-1.521829776428923475e-02
-3.307452779989161762e-02
-7.972999344462064486e-03
-4.889226295190715610e-02
-1.680492022788116976e-02
-3.075367549252253779e-02
-2.527344246057300348e-04
1.591436812664166409e-02
1.748919716931980617e-02
1.396514438787957793e-02
-7.784193179320444966e-02
-1.921959746407967892e-02
-6.452007330804128415e-02
-3.269881447460266932e-02
-9.643328454604256639e-04
-3.723527638113975635e-02
2.054469727914876725e-02
-4.609926220412365050e-02
-4.795344827597362858e-02
-4.746929071654043542e-02
-3.831568589369897110e-03
2.289063138384417329e-02
1.044544436546990251e-02
-5.059405312412963707e-02
-4.272810402445918754e-02
2.879034881085887343e-03
8.321373886064076242e-02
3.027729378673122904e-02
6.862915594173048250e-02
3.939006518669360690e-02
-1.873592342296894267e-02
7.113716788847787575e-02
3.830647036771057945e-02
-3.116222116344171192e-02
7.160226873739446163e-02
-7.207833163838956586e-03
5.577944976833329460e-02
5.927834327104186674e-02
7.853020008064454105e-02
7.788633503299124961e-02
1.375313185262124205e-01
2.830378465203042468e-02
5.324754436703563187e-02
7.601954831009660740e-02
7.743086470781079811e-02
9.881915632476503952e-02
9.030635973488265744e-02
5.482579088005220397e-02
8.795781063398110111e-02
7.581900736890778703e-02
1.010485359410350920e-01
1.150870340000411662e-01
8.390727225847358084e-02
1.082541517250984742e-01
1.263254921543625897e-01
1.255753450791818049e-01
2.137495460077990794e-01
1.217126453725662361e-01
8.904313367025082360e-02
1.280933827594557817e-01
1.395012427065907279e-01
1.377140387666072330e-01
1.191422943839022114e-01
1.145706695791215146e-01
1.088327214942640120e-01
1.167627283154005768e-01
9.822313609385958932e-02
1.154228763978451533e-01
8.820213629370823871e-02
1.300530183708715759e-01
1.315722870306125780e-01
8.673196334141976271e-02
1.365963732669976394e-01
1.043480082474091408e-01
1.533075767799294553e-01
1.244708664307733192e-01
1.794675053482146510e-01
1.966654399838535794e-01
2.133664777293627079e-01
2.676686746084016577e-01
2.546176586288291799e-01
2.849190886762016373e-01
2.841321569550875892e-01
4.140636499635489964e-01
4.382153941557265786e-01
5.128982896069154140e-01
6.171623801453171021e-01
6.291650649974831477e-01
7.228533938858794361e-01
8.367249620051402381e-01
8.652651667253363765e-01
9.564075869239050398e-01
1.003721605981186427e+00
1.053763653512428178e+00
1.093367998555469400e+00
1.188194190323020649e+00
1.193361160090829820e+00
1.281247160448345079e+00
1.291014272989226441e+00
1.275168729083116848e+00
1.304784702471628810e+00
1.271775257442642193e+00
1.248496814087242113e+00
1.233123416716481513e+00
1.135982574865330941e+00
1.110134223570882428e+00
9.830435054565824782e-01
9.442463572025929786e-01
8.576624949779839691e-01
8.594338494768312131e-01
7.838485598352776806e-01
6.728043271943708881e-01
6.142736603621411495e-01
5.728878229369888109e-01
4.363901668009101953e-01
4.093396025867181987e-01
3.987863208569873974e-01
3.357935533427617303e-01
2.333916332963966167e-01
2.857944855055718492e-01
1.235855530869057195e-01
2.324439446318138369e-01
1.691863236644448876e-01
1.450459159023735345e-01
1.157980339934581021e-01
1.343591764819794254e-01
1.621315954201692777e-01
8.326018548272656750e-02
1.429948540233307863e-01
6.687189819552466497e-02
1.081439934309992301e-01
1.387129102084986021e-01
9.526836562990843860e-02
1.022080561594975456e-01
1.264929622840336998e-01
1.087033298763809552e-01
1.348152096146098822e-01
8.761499536905104080e-02
1.043053130369818171e-01
1.271819313611979585e-01
1.184260305848464506e-01
1.561957288151280820e-01
1.076868266632669824e-01
1.984390145864172172e-01
2.002444224743800960e-01
1.267083913163108699e-01
1.645692123523763983e-01
1.623005016900078146e-01
2.248442784731896626e-01
2.169439824393946670e-01
2.031760006848368771e-01
1.942642339313530309e-01
1.913232940227329038e-01
2.201636105725143511e-01
2.333592330383870705e-01
1.879914766786432989e-01
2.330138094453238495e-01
1.592214060173589296e-01
2.228905349078102727e-01
1.481043560738577458e-01
2.292792085611062292e-01
2.089172491562567846e-01
2.158399807309142326e-01
2.161258113103691758e-01
1.912389707951072382e-01
1.564374892281177321e-01
1.594628861955143528e-01
2.145885342530338691e-01
1.407485801449087637e-01
1.303932473362041933e-01
1.634998324531383440e-01
1.725778681863546771e-01
1.731088976513207589e-01
2.059375578377604099e-01
1.814179147854365903e-01
1.914850592637933335e-01
1.571026958290602793e-01
1.567228673409312711e-01
1.344809335775926651e-01
1.930989496595069410e-01
1.216087672691483212e-01
1.327953785122133190e-01
1.605022624377575313e-01
1.058441581004622434e-01
1.580806423634661395e-01
1.149267636303532569e-01
8.436655126142914018e-02
8.704647356911848766e-02
1.256562625828912816e-01
1.022186968367195525e-01
1.230966175540052221e-01
1.395324263496839079e-01
1.029992376588720615e-01
8.325397708456899748e-02
6.405450548442551129e-02
1.507858527319732023e-01
1.195332435296680151e-01
3.944060938159552054e-02
2.265412566598500044e-02
5.544432804786614266e-02
7.248913773178841669e-02
-2.474785869527020010e-03
8.312968150763562492e-02
4.673414425792688648e-02
1.604664290939195048e-03
5.234751059491475622e-02
1.848402453312181226e-02
2.243527134921171479e-02
7.211993894166504604e-03
-5.717553882180301250e-03
-1.279558692635666961e-02
5.910572435200533992e-02
-2.199727639985558231e-02
-1.106396268217096912e-03
3.143774082753143795e-02
-3.308062929852466361e-03
-1.596233942094092695e-03
9.190041161558931693e-02
-2.899818415758608631e-02
-2.934834407075062601e-02
-1.649000595452560641e-02
-6.405282797521384686e-02
3.419904653552768847e-03
-6.016131001676724988e-02
-2.770174455347343065e-02
-1.354667504587175192e-02
-2.239208214457876281e-02
-1.074405234947719834e-01
-2.088455705188150408e-02
-7.357172162433270324e-02
-6.674315555433282809e-02
3.428350288242899141e-02
-5.026051555205898053e-02
-3.491729273156578273e-02
-7.255806948794928102e-02
-7.488675336373606939e-02
-6.583700553165465486e-02
-4.328954738637010025e-02
-6.181336117516098017e-02
-1.108219848519225587e-02
3.560268186956080938e-02
6.422633953297687825e-03
-2.623155488623132511e-02
-7.764197437563855053e-02
-5.385984987473037972e-02
2.717915610904055035e-02
-6.360687630447288410e-02
-3.365478964268356354e-02
-7.298195939819100697e-02
3.880130583016616619e-04
-5.235278407254329719e-02
-3.125519687641864497e-02
-4.969997309031028154e-02
-1.433943114809171221e-02
-2.967087117132902879e-02
-6.374126015455096328e-03
-1.977716882914214158e-02
-7.324699442296747631e-02
7.263814477374917755e-03
-9.425832751881239868e-03
-1.048285166138321345e-02
-4.551776575468259589e-02
1.023776070688472983e-02
-3.977099234462815047e-03
-1.847108387146716157e-02
9.274730967873366649e-03
5.575056751803902921e-02
-3.945765819152765447e-02
-1.097136044020279727e-02
-2.232656292952635985e-02
-1.784328708373991018e-02
2.126540006884142936e-02
6.392204133086931694e-02
4.629388155350383505e-02
3.094927795066126225e-02
6.134671551858829341e-02
5.772294861577811909e-02
7.796424829968692793e-02
5.333700659589656057e-02
5.964588809835877359e-02
3.204745903529793161e-02
1.033898076390051129e-01
4.265947772034150987e-03
1.053452686472366451e-01
4.697193569957062304e-02
1.110047784047321073e-01
1.023090485830313728e-01
6.346032603522100413e-02
8.575004020150508999e-02
1.528580445257591292e-01
8.927284928918599594e-02
1.324857077512859305e-01
8.155782700544783603e-02
8.938624521790389243e-02
8.152000600857675638e-02
1.305151338417536999e-01
1.432311587722485124e-01
4.314309443364405805e-02
8.370282455435806845e-02
5.997793150429144016e-02
6.871835180123314624e-02
1.348335421747768326e-01
1.512302097142128599e-01
1.003958064141458328e-01
9.616976136197927238e-02
6.793119931261062949e-02
1.285349323894419693e-01
1.001253503868857475e-01
1.147249378206938175e-01
1.131034783543748562e-01
1.583906288278405239e-01
1.789086348241600566e-01
1.687470077010839453e-01
1.785911676920209357e-01
2.293343563128801554e-01
2.508129017175807496e-01
2.420798790391359145e-01
3.189979355538695716e-01
3.162240118992124538e-01
4.524942057669845141e-01
5.306611069190834140e-01
6.040367348726131125e-01
6.463716852026757387e-01
7.147522472379475023e-01
8.084699606554116569e-01
8.728683160778692995e-01
9.044531690537076507e-01
8.910441708043033149e-01
1.045973229176613506e+00
1.108783173964537072e+00
1.209793333572186214e+00
1.228594533543275524e+00
1.248256751962889100e+00
1.318256974863340814e+00
1.293997996187034261e+00
1.267604971681226989e+00
1.230682265742318426e+00
1.231333976397288588e+00
1.171729610850914760e+00
1.151093925630517045e+00
1.096994479585632343e+00
1.076892693620160379e+00
9.978177675603716601e-01
8.922694275258642449e-01
8.291442714230440325e-01
6.854186401643869164e-01
7.038080040535038551e-01
5.951917747775881118e-01
5.414323250889581107e-01
4.585850003734364688e-01
4.030247443146229291e-01
3.088215982257844772e-01
3.683153053915215192e-01
2.553492798365222249e-01
1.894237545416211643e-01
2.217941305363919091e-01
1.653025725612058128e-01
1.409271064731132395e-01
1.575321410383444531e-01
8.928840429313300575e-02
1.099092077880659268e-01
8.094142142160327957e-02
1.356072448869190816e-01
1.189367896359504184e-01
1.405461031176356845e-01
1.613578367532029489e-01
1.390790308585313773e-01
1.341309108833045050e-01
1.105417730842549462e-01
1.331710872364628151e-01
1.443840632320870510e-01
1.290685306369411811e-01
1.695509919861347137e-01
1.736582180744150050e-01
1.327526681621494786e-01
1.696759708215848372e-01
2.332240625262458344e-01
1.485370386933008713e-01
1.657653692490221320e-01
1.879235370784611003e-01
1.688159191521804159e-01
1.735869809657888951e-01
2.182683866774827175e-01
1.945311238915471697e-01
1.842606290722300921e-01
2.326144708698713870e-01
1.993666596203141905e-01
2.275435445282409930e-01
1.900944373130609710e-01
2.259594936808158594e-01
1.813489210249081829e-01
2.474781956681373907e-01
2.830858273000321224e-01
2.194014633816057103e-01
2.077123044579057831e-01
1.731737378713607556e-01
2.370046690053198846e-01
1.505972162626562361e-01
2.332831205978682376e-01
2.321247935070796520e-01
2.492378992063227494e-01
2.187663001674750585e-01
1.420497524394408739e-01
1.942748107693334503e-01
1.878926024249276405e-01
2.059885414057769926e-01
2.167235129061383381e-01
1.943507814882544094e-01
2.015896975357170939e-01
1.718076631130794063e-01
1.727264643612921036e-01
1.622215738028417453e-01
2.452145661553747358e-01
1.958678158845297557e-01
2.152878415732976947e-01
1.498521871914963721e-01
1.107176132065846863e-01
1.728671712103231062e-01
1.606339677817561762e-01
1.745497495960489087e-01
1.053805201688339799e-01
1.816376502156817618e-01
1.365927913922553305e-01
1.250245490841824791e-01
1.038661499406548783e-01
1.482857256692117209e-01
1.622866068103870352e-01
1.188426084269529476e-01
1.385172098943669161e-01
1.304944251929634480e-01
1.638144240866813151e-01
1.280835034487441682e-01
5.059992531120473952e-02
1.033463085607899123e-01
8.585203948656228157e-02
6.004515411287138227e-02
9.755802725480922089e-02
6.581250281889899911e-02
1.170364362759430399e-01
1.038375501484516961e-01
2.057120403069822440e-02
8.123870109581239618e-02
3.688467788506771816e-02
-1.895570248766833416e-02
3.189845295859916607e-02
4.416342220687773101e-02
1.581055349712628261e-02
9.665498803087473056e-03
3.825762336389901958e-03
5.247651692070517959e-02
2.640930911496124772e-03
6.634834307325004898e-03
-7.377365161177519559e-04
3.703434872707429826e-02
-2.395452380972602768e-02
2.928346211250266659e-02
4.424342670906263042e-02
2.809041788230849657e-02
-2.144990239408537530e-03
-1.433127832095949794e-02
1.339980370784731034e-02
5.227620386309622669e-02
8.698736527360795973e-03
6.594555737751046226e-03
-3.731269465023675375e-02
-2.634440910649592585e-02
2.246953590882911841e-02
-5.456834318140136447e-03
2.223649396178258714e-02
-1.302449026082088887e-02
-3.165870187999514362e-02
-3.126793191171872710e-02
-4.836466513140225826e-02
2.981607333018710879e-02
-2.592379967563785206e-02
-4.418583386694827780e-02
3.881635599221420346e-02
-7.729019069696806132e-02
1.930658944480899072e-02
3.647559722076732652e-02
-4.581154160588893354e-02
-8.498604572139713959e-03
-6.035543649265668470e-02
-4.431080474080242859e-02
-1.372184096332471764e-04
-4.657072019348487690e-02
-1.603735858688605867e-02
4.129666942446883621e-02
4.133935855370881804e-03
1.494932892249195566e-02
3.767561393242400275e-02
3.339963675942908550e-02
2.246709301585494284e-02
-3.818131903257266507e-03
1.831834834399054257e-02
-3.836387490275972728e-04
1.911361890910843325e-02
8.365316562285229907e-03
1.303802118059330280e-02
3.772713552310515833e-02
3.780667559429707128e-03
5.654627617175823906e-02
-2.730128696587565129e-02
4.467465503774525892e-02
6.238726746801898093e-02
6.815827321332218469e-02
-1.276691223263246369e-02
1.036813732796656728e-01
3.918581879607497404e-02
7.286961414582411589e-02
4.669156205176593771e-02
5.524448994123200979e-02
6.901856858232624514e-02
1.059082080843194718e-01
7.577417498530382434e-02
7.900808664127056957e-02
9.215331062191760292e-02
1.086574148276637786e-01
9.117966042923116021e-02
1.456117314583915134e-01
1.068518285109921889e-01
1.384573969308993402e-01
1.218523774353695299e-01
1.562332879429708665e-01
1.341519451474357527e-01
1.205821254598683501e-01
1.465931428815181181e-01
1.398678710206019971e-01
1.197527740179702704e-01
1.621577713221480366e-01
1.668596214541818445e-01
1.808790452846195940e-01
1.843821556667714079e-01
1.736847403385382571e-01
1.612678861606816894e-01
1.236775170714986827e-01
1.420336572377697837e-01
1.467499112835317643e-01
1.342310034968828836e-01
2.101438663545759367e-01
1.632562413899797116e-01
2.096143612383453703e-01
1.697271342879553557e-01
1.500838983414947980e-01
2.148144782460653657e-01
2.238301918244245126e-01
2.035310821910657209e-01
2.467810362695434800e-01
2.768682327903624896e-01
2.842581313084990291e-01
2.271063158605770016e-01
3.750113718176988353e-01
4.076687474215874851e-01
4.601214357111615416e-01
4.481813658799366773e-01
5.358971370117594502e-01
6.172870398924952262e-01
6.575142283687175349e-01
7.177187800567159659e-01
8.227843802207337465e-01
9.057763699000003221e-01
9.790518154694594077e-01
1.048273076126847503e+00
1.086235725529695495e+00
1.163544052407363694e+00
1.204965022069205194e+00
1.314876912759510130e+00
1.359614194228718764e+00
1.388023984439342273e+00
1.294697495514453012e+00
1.351731335416194391e+00
1.329608430008817566e+00
1.286947180075843633e+00
1.242386502997396169e+00
1.145802969162345919e+00
1.189428287890004210e+00
1.091407719682349065e+00
9.965442422657203592e-01
9.328527377112546537e-01
9.064770885750088603e-01
8.231623107348486901e-01
6.826547541412943954e-01
6.783871401094422326e-01
5.349421726112124631e-01
5.347613938718666082e-01
4.825493545533365292e-01
4.022794561867802376e-01
3.649229919029811642e-01
3.814172683364894789e-01
2.790367775006893925e-01
2.425221638232839538e-01
2.326150511227524365e-01
1.845685980944175575e-01
2.129119858287144562e-01
2.701470934618204200e-01
2.104271529725825207e-01
1.925260559254415860e-01
1.665193889008909078e-01
1.624618087455262649e-01
1.901246831003080839e-01
2.039990109794444784e-01
2.297365725828980909e-01
1.669029546215183013e-01
1.877880841692806391e-01
2.272027286851411587e-01
1.994712292706787293e-01
1.850711056279607802e-01
1.886835763611718897e-01
1.703923770189471609e-01
1.900284581900424929e-01
2.445932916752828201e-01
2.519006682357229354e-01
2.381424150337556056e-01
1.637819484550577520e-01
2.551958548829315054e-01
2.362413584755153062e-01
2.201876582800927906e-01
2.364229997435303987e-01
2.190818743657430845e-01
2.720272937072202857e-01
2.898140945454462103e-01
2.154863480332971926e-01
2.358134488852443034e-01
2.149672290773300409e-01
2.560015880952408729e-01
2.614671587072981418e-01
2.333607442945416777e-01
3.159398020319260647e-01
2.632891461569223934e-01
2.506830545469493909e-01
3.049955597732540435e-01
3.115741131537934083e-01
2.733589630052636887e-01
2.678627371051024442e-01
2.492293277646311089e-01
2.613182630729127820e-01
2.812958956249926312e-01
2.858617852957835437e-01
2.582827293748879982e-01
2.649312164803636072e-01
2.698629079504576422e-01
2.342699116327625342e-01
3.153987676085232561e-01
2.567368884677813101e-01
2.633983556540369086e-01
2.705938400102164687e-01
2.410527545046344811e-01
2.406780078953673074e-01
1.898560438448677890e-01
2.174015156200636012e-01
1.993021185663623185e-01
2.283220769594796196e-01
2.544775446149085685e-01
1.638517485669568341e-01
2.315390681300659448e-01
2.564619983366556166e-01
2.471592395944865184e-01
2.156909244989924090e-01
2.124953036188137467e-01
2.319236305755431882e-01
1.743463288531143240e-01
2.311727254230209749e-01
2.152991824242279084e-01
2.094523285911025767e-01
2.067511790558617668e-01
1.638017360431694713e-01
1.384855333619813278e-01
2.160552076047865255e-01
1.780948021387005475e-01
1.871881807814323173e-01
1.203269627928960223e-01
1.219969283930314174e-01
1.074993162303037597e-01
1.178834987338016060e-01
1.457199382956269051e-01
1.466094031885882554e-01
1.244880965187089433e-01
1.078124785017744863e-01
7.234008324645481436e-02
8.909213360932949355e-02
7.113166211186257304e-02
1.109306995730134082e-01
1.177736408350073261e-01
6.097420847630924401e-02
1.230818397725127467e-01
1.067504562447227356e-01
6.770384335651064012e-02
9.317815822762190447e-02
1.291178549175049928e-01
7.041597313307117190e-02
9.507490944553032008e-02
1.075191971456979367e-01
1.976027598936776902e-02
1.225054975595345486e-01
6.853692215004737742e-03
6.374346716064217822e-02
1.306323976194642411e-01
3.802707717255035536e-02
6.254072208835720348e-02
2.115904652072473496e-02
2.820325018703988620e-02
1.118014749206387437e-01
5.163179566264225473e-02
7.748215505426003791e-02
2.397701076483142041e-02
9.182754621818815799e-02
4.816506339528345976e-02
4.882161222547779650e-02
7.203316147976780714e-02
6.774584823890113239e-02
8.605190706681109525e-02
5.427715951367930586e-02
2.098527511709793666e-02
4.240767639174948533e-02
3.785985737405701823e-02
6.423958420892991739e-02
1.306044669126488200e-01
6.086249821488861483e-02
7.881594070678923925e-02
8.698830439737892384e-02
5.803551474799385768e-02
6.518862463951288766e-02
1.667856611186860349e-03
6.957842397660882194e-02
6.250049314996684868e-02
2.974322208285016048e-02
8.710500799864949462e-02
8.067123791258987153e-02
5.782610654794954896e-02
4.117486115341609243e-02
1.299528070290887349e-01
5.591448579582004863e-02
4.757650042981902139e-02
1.153573074795247178e-01
9.455146562277554068e-02
7.010094608547073891e-02
1.129269724898003535e-01
1.055957327603218726e-01
8.895504998736875057e-02
1.277480740491861999e-01
7.074557134795281255e-02
1.140947355058809232e-01
8.883468373801448048e-02
9.439889717406264869e-02
1.585050280642972542e-01
5.237364226400647443e-02
8.739374117557005550e-02
2.122150410258826503e-01
1.635919581493021357e-01
1.065867316274491661e-01
1.402459205975784828e-01
1.420481178665918554e-01
1.881881094034460189e-01
2.012732367507302500e-01
2.048397197854898433e-01
1.960349325071981397e-01
1.441698669789432952e-01
1.719066554973753547e-01
2.436771777426327557e-01
1.952973155904753622e-01
1.777868665212908317e-01
1.974081465834923999e-01
1.674757867845737547e-01
2.226167449984012003e-01
2.023134104056969196e-01
1.839019389468181387e-01
2.145556279539086453e-01
2.505297291115000657e-01
1.984548269146000909e-01
2.085669841864181695e-01
2.242673221044203524e-01
2.214936480611096881e-01
1.915369191587948383e-01
2.202331125351610353e-01
1.998835732822662470e-01
1.951959205778552864e-01
2.097837919336670853e-01
2.071593815965026564e-01
1.621258663847170434e-01
2.061264217391367282e-01
1.844228963574508495e-01
2.208918716069655230e-01
2.970278582806564760e-01
2.456557130473280004e-01
2.844203776536836648e-01
3.835725783511919618e-01
4.004389757046382670e-01
3.964861568615482557e-01
4.004580613876868034e-01
5.432550329651437693e-01
6.219840376182451669e-01
6.154896648039868134e-01
6.895921623906591247e-01
8.017872938227079693e-01
8.783997513235086707e-01
9.412487509529172680e-01
1.058317026312394660e+00
1.073804375409990852e+00
1.106545674714435989e+00
1.159388274468827085e+00
1.227290417303752879e+00
1.261091653834901516e+00
1.375443415296229821e+00
1.386555955498604664e+00
1.408184548654245916e+00
1.355247461128867625e+00
1.364541487961382193e+00
1.315433548106355488e+00
1.315462629620729462e+00
1.315513681886445019e+00
1.206894815021257727e+00
1.141681145439139566e+00
1.074487931927635032e+00
1.033641930402503739e+00
9.686125680285614381e-01
8.378404134420993632e-01
7.871783270592022097e-01
7.012368600898334359e-01
6.076154110074233339e-01
5.587672285582430121e-01
5.195964710796580066e-01
4.753527252167228934e-01
4.973124641391439837e-01
3.796719566106770971e-01
3.504805817249986299e-01
3.075998850954242969e-01
2.798506353815496950e-01
2.604649781845801426e-01
2.032627108284476292e-01
1.796798594428411222e-01
2.138837264148035489e-01
1.514881377537516394e-01
1.876156394729692201e-01
1.842966998837480830e-01
1.823393427733154826e-01
1.921907170347929017e-01
2.073621093961429684e-01
2.145553192867645786e-01
1.393485868705291730e-01
2.606782299963854577e-01
2.024286499651536397e-01
2.269952678393433732e-01
2.418422834688657153e-01
2.316216032412396209e-01
1.911642639138455002e-01
2.699646740179917903e-01
2.361550825984525537e-01
2.381304946746265472e-01
2.874261685507111808e-01
2.721024605874044489e-01
2.716302196061620156e-01
3.154179302573927313e-01
2.896725564304763467e-01
2.869864137784522984e-01
2.806102063624462684e-01
3.190599196729572151e-01
3.066917180333095239e-01
3.246541841525358851e-01
3.091270326287080539e-01
2.919265400186659143e-01
2.864676154500603866e-01
2.894091147980379919e-01
2.881274792730073031e-01
2.816595588549562490e-01
2.445569350129862540e-01
3.539269463916200342e-01
2.959580404551482857e-01
3.019190191807605839e-01
3.171897314197164031e-01
3.364115475156603807e-01
2.764412849275629802e-01
2.509255904254095171e-01
2.118866619277350316e-01
2.856351651021518667e-01
3.411869197522945374e-01
2.618567687896831142e-01
3.116537602971389820e-01
3.230345899299434942e-01
2.965785053975151242e-01
3.309913574886440557e-01
2.713649218118261430e-01
2.507277609881616298e-01
3.095560579969498516e-01
2.393902718925422501e-01
2.141174274062535854e-01
2.856297043153682713e-01
2.277374917602948412e-01
2.334719857922667730e-01
2.054751135771205883e-01
2.519159317539556020e-01
1.777208652448830639e-01
2.738359470413990748e-01
2.311252312305004109e-01
2.619230862199335430e-01
1.821519366092040904e-01
2.178370090367921785e-01
2.728630849901355071e-01
2.065588438607125210e-01
2.761903170381111439e-01
1.709226262212113767e-01
1.740947583019692158e-01
1.610932365226364626e-01
1.895999010763978754e-01
2.201789047817477862e-01
1.786923646020665002e-01
1.271685116460470333e-01
1.640100686696584487e-01
2.375094369516756176e-01
1.336633777960808123e-01
1.429264237444349273e-01
1.200675041719457686e-01
1.059445089396942596e-01
1.441336334491566951e-01
1.223380998716241397e-01
1.183086707423890716e-01
1.445309582061556908e-01
9.921142317978517977e-02
8.698782273300095791e-02
8.338321128399503457e-02
9.593966320630678557e-02
8.162754093641741426e-02
1.329362497352226946e-01
1.423602009194146201e-01
1.177417299996365574e-01
8.925213318081690050e-02
1.061256822543678452e-01
1.172229928853683323e-01
1.647901018894153691e-01
4.305322044673319526e-02
6.237751877026290193e-02
8.628051647473808372e-02
5.327120403044678654e-02
9.648800103073484902e-02
1.043218481308026135e-01
1.012121081859963523e-01
1.204847660262516745e-01
9.720991531280059883e-02
1.025312345103667339e-01
1.492084147898826707e-01
7.552472379303908079e-02
8.864642963520601160e-02
5.185805703967709401e-02
7.182716232263047784e-02
2.701959997387105850e-02
8.570338988855702445e-02
7.367271277182274591e-02
8.662750844858191357e-02
2.479166268778023111e-02
2.270646514743079533e-02
3.641683056540306190e-02
5.428675859077387172e-02
7.490709390737521067e-02
6.096258934760463710e-02
7.776370646691319055e-02
2.024973077834396618e-02
3.555490558786057048e-02
8.849320436472343787e-02
6.080131284029834104e-02
1.184333631850873342e-01
4.107442330442453993e-02
1.856300427175732251e-02
8.796885407415994118e-02
3.991143076698466102e-02
7.740968113870171086e-02
9.392317862602930778e-02
5.195754939606099521e-02
1.113746155115300923e-01
6.337583266521225334e-02
7.691836980727051465e-02
3.268806842338518870e-02
6.496516055725883032e-02
8.900854437302466171e-02
1.193827978115531707e-01
2.468189969836038361e-02
1.137675143059281302e-01
7.716717432879725835e-02
1.249845149937745675e-01
1.937970290460425127e-02
6.274789937988811683e-02
1.429435535054256745e-01
1.034018324815904610e-01
8.848454543812880879e-02
1.301991034130089153e-01
1.714092756856686883e-01
1.658976458514827834e-01
1.542093449859821275e-01
1.518156529723646564e-01
1.780937685932056369e-01
1.519955144553623294e-01
1.727521998863127684e-01
1.487350259667156727e-01
1.462978253581018184e-01
1.591675056545313049e-01
2.042287721923259358e-01
1.934413806775551747e-01
1.769626286277402039e-01
1.873315202106083932e-01
1.981301494550801179e-01
1.785841646290761142e-01
2.152280495956714057e-01
2.399106124655522865e-01
2.306663731270081896e-01
1.835717376235652953e-01
1.752306762500786541e-01
1.519084391239575726e-01
2.322675997647611901e-01
2.082584320351344165e-01
2.032171861898805221e-01
2.169972550018532953e-01
1.585417293926586202e-01
1.894044298836557727e-01
2.172128020808227200e-01
1.984918758389772053e-01
1.718026954784206972e-01
2.026111904494645177e-01
2.408579038601506850e-01
1.991239411871837950e-01
2.586715431328672210e-01
2.345834232364316374e-01
2.649165269816062818e-01
3.459532804291302055e-01
3.902739927380299845e-01
3.936552777057672481e-01
4.663316912201561637e-01
4.611111251287049462e-01
5.770392787760670883e-01
6.286622892417219610e-01
6.922482236289945190e-01
7.661972138404208321e-01
8.060615217898504659e-01
9.592323802494805429e-01
9.631973394503715591e-01
1.076712743586640153e+00
1.102317230811560744e+00
1.195638279939909454e+00
1.239643322701024841e+00
1.293061663246114490e+00
1.329024873539056628e+00
1.334888453068359349e+00
1.348149172409342844e+00
1.305451760710635067e+00
1.349121463130785292e+00
1.274511338407449124e+00
1.309426264088597414e+00
1.217306729887398964e+00
1.135869507008081314e+00
1.141926476406566859e+00
1.087595195232783363e+00
9.923635213781558662e-01
9.049052259231332718e-01
8.691473389142576611e-01
7.281045350843401431e-01
6.714328669983296027e-01
6.053542824123481214e-01
5.519221162003358216e-01
4.921974902596430446e-01
4.229095296923607306e-01
4.190918165908789628e-01
3.017979636710119151e-01
2.977722396775487335e-01
2.554714724059050646e-01
2.155666711781159262e-01
2.154208133672067538e-01
1.626472310884809480e-01
1.610928247447408757e-01
1.572732148617406178e-01
1.937440704987388740e-01
1.432499533633652677e-01
1.682169959961559713e-01
1.849566469956974990e-01
1.595127679698958301e-01
1.801605324240070638e-01
2.156257853923493617e-01
1.668092100429404701e-01
1.933020758471158396e-01
2.000416839513652345e-01
2.753233497669402841e-01
1.080006148231518470e-01
1.607792248265301760e-01
2.521216152406315913e-01
1.753350876039198591e-01
1.888843963266728654e-01
1.935288973369627130e-01
1.822066030364741518e-01
2.914278337586231893e-01
2.484410299461584926e-01
2.104093303585507502e-01
1.967072518125075054e-01
2.788004758692920193e-01
2.361256867827171146e-01
2.628769686325973520e-01
2.467586264046033595e-01
2.761051577603602092e-01
2.444585753084685953e-01
2.842636432202566010e-01
2.796417082226821393e-01
2.258892403552391626e-01
2.597771157384133889e-01
2.681436714543874444e-01
3.445921019992521095e-01
2.394631458780449862e-01
2.651510061809241314e-01
2.163271885428275643e-01
2.513220809792582888e-01
2.947387514916162132e-01
2.778379562420488225e-01
2.705272211651290060e-01
3.111680492981738211e-01
2.314545027391624044e-01
2.118180243628202397e-01
1.860218565936644086e-01
2.551780088928343737e-01
2.804033594566172072e-01
2.014527936759257787e-01
2.556391320605888584e-01
2.401443508799982474e-01
2.156835219235969658e-01
2.124456939759387375e-01
2.663628427952929312e-01
2.137928833860316402e-01
2.036923867134960153e-01
2.575668218719789349e-01
2.311801953937477894e-01
1.679897086952066854e-01
1.737261754009639392e-01
1.939107393278577673e-01
1.995131499157753729e-01
1.666104999644451023e-01
1.580949071598036770e-01
1.810120174556381356e-01
2.055251288601646353e-01
1.558646022400400066e-01
1.519229952710303422e-01
1.431051260887354348e-01
1.789946094093406992e-01
1.504415929678811492e-01
1.505846855775185289e-01
1.655447129356672764e-01
1.255491736500395639e-01
1.310796165577865768e-01
7.900415202468466513e-02
1.463428736561520616e-01
1.140912890650145339e-01
1.387994771238647007e-01
7.343603032319341584e-02
9.883000384178246278e-02
6.517375323137181153e-02
3.063258151299351820e-02
7.142804809974655222e-02
7.457178897559493813e-02
6.017177386793523541e-02
9.181041056518074450e-02
5.130089969525877119e-02
3.829698195580968217e-02
6.670240413253757106e-02
8.324570405779206650e-02
7.380945685605355688e-02
1.420113825455969654e-02
3.389046228432384539e-02
4.576900282964550121e-02
5.239775481418242065e-02
9.142911198253870012e-03
4.536038589110349961e-02
6.110493934051685477e-02
3.779203871350587246e-02
2.112840562155551480e-02
3.004307317169990776e-02
1.118361009118771197e-02
4.303411372276335495e-02
4.600602826930082212e-02
2.348226913747332098e-02
2.323191700851766350e-02
-4.453918553781043704e-02
1.589836912968095074e-03
4.958530185432723919e-02
-6.735276607292161113e-03
2.522367492422585965e-03
4.536814226190895132e-03
6.341399814512385658e-05
2.831951461672978232e-02
1.370027541345405359e-02
7.323558901868977913e-04
-2.705978200960596283e-02
-2.788763997161609887e-03
2.861943872954133411e-02
5.200342610870087312e-02
-2.342930784606404859e-02
-4.477550119019844260e-02
3.594028624511736575e-03
2.856943076421661343e-02
4.800357639895389689e-02
-5.802524357438323607e-04
5.494882297894659873e-04
6.874366700837968025e-02
-2.788711741863927202e-02
-1.802968115697565349e-02
3.622610574133929007e-02
-2.496620207658535942e-03
6.382122798083381121e-02
3.394636201874381976e-02
-4.041836537495426679e-02
-1.626117590929755663e-02
3.168230466092755715e-02
5.262210422812255151e-02
1.484711797530097535e-02
9.054568341064170300e-02
6.676439270264183934e-02
2.742510700098853282e-02
3.984491837117851154e-02
7.965556072410182042e-02
4.258821118861676192e-02
6.535926318905195542e-02
2.507249246559766290e-02
3.618215990577844376e-02
7.249162174303733219e-02
8.432918175703565944e-02
9.184737781439764048e-02
8.850428067746202165e-02
9.384943907545130817e-03
1.114317925704000900e-01
5.243217196772784888e-02
2.901548329767966727e-02
1.186409439862345927e-01
9.278617278962969506e-02
8.721076550973558272e-02
4.797071458796979548e-02
1.493064121518725973e-01
1.269327432721686355e-01
1.077478260881592764e-01
7.537957899605562950e-02
8.915159600820342367e-02
1.162107504313860118e-01
8.959615224445167947e-02
1.782218870814979428e-01
1.330115416660335725e-01
1.801645544211311067e-01
9.701502877641467182e-02
1.499893681878637086e-01
1.334724682958070285e-01
1.398717940995589104e-01
1.294835390860292756e-01
7.665371961584063754e-02
1.530482186494233343e-01
1.430580857315149612e-01
1.140426539431287772e-01
1.736568620180176659e-01
1.308856589503037959e-01
1.366665565174386421e-01
1.809474853985361675e-01
1.475634579749728614e-01
2.225593658499048499e-01
1.845663668789183365e-01
1.210242659804999094e-01
2.352596886488235728e-01
1.795558055816044163e-01
2.562599202684827659e-01
2.620885381917461010e-01
3.191719994289479168e-01
3.642897937622080473e-01
4.264320694233325049e-01
5.227517951233890958e-01
5.492244035878280917e-01
6.405249421250212016e-01
7.210895286859847486e-01
7.118321169983943264e-01
8.271868540417431914e-01
8.925557408604041232e-01
1.006406258014894473e+00
1.039744083233881344e+00
1.115017392203427438e+00
1.181549382069488674e+00
1.217875137244309292e+00
1.243372082936902823e+00
1.270667399016091492e+00
1.303850680775868742e+00
1.262318878927211729e+00
1.288462376302303758e+00
1.295287959080236861e+00
1.205901378828826864e+00
1.113573183320230475e+00
1.155488706779647323e+00
1.078956053352765787e+00
9.936953823722017853e-01
9.353496421995384225e-01
8.357396824463094731e-01
7.495885895462318649e-01
7.750678609999427371e-01
6.331788590965875541e-01
5.550009849305289622e-01
5.031364089037048126e-01
4.807957763112951088e-01
3.572949676627528159e-01
3.506307557976129363e-01
2.728116884611626047e-01
2.275395023081963619e-01
2.520021496280074880e-01
2.011081920893030006e-01
1.829064570387163302e-01
1.820926313307433542e-01
1.579564840205176512e-01
1.249013198476765507e-01
1.085660782213438980e-01
9.813577750382385112e-02
8.867584051547974799e-02
8.886929667767436147e-02
2.035679932792112123e-01
1.424196691493728184e-01
8.592977196772319526e-02
9.671111145066023373e-02
1.588425874783140901e-01
9.220227894203450458e-02
1.541828620600859401e-01
1.246147703026404541e-01
1.371176844499505665e-01
1.886967110157059535e-01
1.376859183115852203e-01
1.813536893094767621e-01
1.210015664383911338e-01
1.156918356759908395e-01
1.529211514869457111e-01
1.409617670776359133e-01
2.120458634564597322e-01
1.420076229056749240e-01
2.171162037295635838e-01
1.675792236721791451e-01
2.282991315597276138e-01
2.114917426271832879e-01
2.484121152270628297e-01
2.534402314723571137e-01
1.622933625389732515e-01
2.122608147686108337e-01
2.074661757459301537e-01
1.665224018913196713e-01
2.160224957856958783e-01
1.984028033402587543e-01
1.910895313997279799e-01
1.837551713732450409e-01
2.443028539877353800e-01
2.027351581986841789e-01
2.187206103694180059e-01
1.823527276460651936e-01
1.541193655105175531e-01
2.185237981034104382e-01
1.719894890104093355e-01
2.229177799180023234e-01
1.633779556062767702e-01
1.916959649520493247e-01
2.601930281325869343e-01
1.508383241952448439e-01
2.282638773144939903e-01
1.872487415396013044e-01
1.763962597823415246e-01
1.679062139145683086e-01
2.518556101011966142e-01
2.339668751660886614e-01
1.376519714117520610e-01
1.587329394455425091e-01
1.436502062955693493e-01
2.046642972531427240e-01
6.601529224050005362e-02
1.292903480430165342e-01
1.435685538998457966e-01
1.433171447169037660e-01
2.129598308641017235e-01
9.391369948749930807e-02
1.616750637096235899e-01
1.345637143783134371e-01
1.087928689292807782e-01
1.048990500922799829e-01
1.120123729220310338e-01
1.613840886682287312e-01
8.917792783530603673e-02
8.767737354638324709e-02
7.509871073188892354e-02
9.204658584052907710e-02
5.291066413347467884e-02
5.016068103700567493e-02
8.160285771350792028e-02
3.939823224730742285e-02
1.233503782945346849e-01
4.743738508773467921e-02
3.548403617394315507e-02
-4.975845674503390215e-03
4.993508302712987290e-02
2.115422884165969047e-02
1.351429338807982883e-03
1.289370506062398336e-03
4.502326628789740659e-02
-3.892380996686721495e-02
4.859480456707807733e-02
8.205774690973520469e-03
3.683558516091427204e-02
-1.995451716394138625e-02
1.582104742535667130e-02
5.279434692068693535e-03
-4.298945178581733972e-02
6.429039509015654907e-02
-6.320667844398111801e-02
2.164076137945817463e-02
-1.967829724139710107e-02
1.506048234803589181e-04
-4.038499065759711820e-02
-2.768966130781112811e-03
-6.682332184471673209e-02
-7.086359777868907195e-02
-1.235856537557000756e-02
-5.767098666209803659e-02
-3.673253196081410071e-02
-9.097647778572272304e-02
-7.562879755832442596e-02
-6.447979360740718757e-02
-3.572288057917420712e-03
-3.512353128713370520e-02
-6.442069092508551087e-02
-6.882298458226443483e-02
-1.510803519420788471e-02
-1.599854754923846906e-02
-7.748070554537213328e-02
5.110978733231358317e-02
-9.512219046950387558e-02
-5.244707948539852060e-02
-2.828417789183520353e-02
2.405060911907995480e-02
-2.098860214091546189e-02
-3.498298838686070972e-02
-8.841201348432761731e-02
-6.172039294765209461e-02
-5.949658233371334093e-02
-1.839565162617356336e-02
-8.419618467622214109e-02
-3.182950486877163254e-02
-4.352793902581701679e-02
-6.038112349923879796e-03
-1.126116067438513724e-02
-3.389934001158536464e-02
-2.059359103527722348e-02
-6.108773914290432927e-03
1.797361600343876098e-03
-6.439905573432117003e-03
-1.631447568772520507e-02
-4.519394986977546408e-02
-2.637506376743149403e-02
4.859036061822177149e-02
9.742275435705813336e-03
3.024791919432382598e-02
3.508363553508937055e-02
5.034733914563818691e-02
5.530769986339972855e-03
2.629225546558881799e-02
1.007711488288074164e-01
-1.486664751890854480e-02
7.660744681322678717e-02
6.590496318161861988e-02
4.651018359572279409e-02
3.137245185563306005e-02
5.903159584203154786e-02
4.410350982351797511e-02
8.035491962910024100e-02
2.787250692216845099e-02
4.502134628309274744e-02
4.570055194062520865e-02
6.236634864744545342e-02
1.078438020917983908e-01
3.882342764527979551e-02
1.151013255115985456e-01
1.202753415982368568e-01
6.007962455136844904e-02
4.704390272753955493e-02
1.357337013889038657e-01
9.675804048521623180e-02
1.070673861768556001e-01
1.228819655710701453e-01
5.447236125913747923e-02
7.594420477615204668e-02
8.258625952803047565e-02
9.292372284986902264e-02
6.644403283924382730e-02
7.548919793911329501e-02
1.310929211189214294e-01
1.133630168831871593e-01
1.116672707851694146e-01
1.017660247012988350e-01
1.327126192981866182e-01
1.201668896317351631e-01
1.342018644126964644e-01
1.420717675076513808e-01
1.235195581585294966e-01
1.661279940577314873e-01
1.705948911672940937e-01
2.048737368576740991e-01
2.801329186081127354e-01
2.540029848945754565e-01
3.250984742668213689e-01
3.336452799342101150e-01
4.081223242890695269e-01
4.746719316577361902e-01
4.716292796365962881e-01
6.185804212372167932e-01
7.040961922501003389e-01
7.789087998502386423e-01
8.104641213824127499e-01
8.835373627696998522e-01
9.467801110744471504e-01
1.041889365284206725e+00
1.103682455994004386e+00
1.128625270040867212e+00
1.159204636126355048e+00
1.254267732157184456e+00
1.292003456095431879e+00
1.247815094047026063e+00
1.258483518334141626e+00
1.290133925339399745e+00
1.264411740153486896e+00
1.191379372980918783e+00
1.191719292319453949e+00
1.114403617881725816e+00
1.071872415195521011e+00
9.875165270809730389e-01
9.264626632193327938e-01
8.498076305579632672e-01
7.309828255674709618e-01
6.772374505484741736e-01
6.126621289427008898e-01
5.952618060235889130e-01
4.818017293984238059e-01
4.336246685236397891e-01
4.277228970105939054e-01
3.685489768816806455e-01
2.712046883184083268e-01
2.799662991474760054e-01
1.872138890280475587e-01
2.009606712339297163e-01
1.041708442098291526e-01
1.887969499062143175e-01
8.334376733224757583e-02
1.475193081882833490e-01
6.057280511056776368e-02
1.276077816388003494e-01
1.301748010927903654e-01
1.907785794746824637e-01
1.430893565838639581e-01
1.107994035778432640e-01
1.058860460471028053e-01
1.324325310542681378e-01
1.745127019433634352e-01
1.376919951653960417e-01
1.279989446802198838e-01
1.698534017633504534e-01
1.397333870683281909e-01
1.191907440849094280e-01
1.468536762928002726e-01
1.865850633094756628e-01
1.937241545947091526e-01
1.613220044853957147e-01
1.804999138054745322e-01
1.839504835936789928e-01
1.804563749270594319e-01
1.548258724600602709e-01
1.652735429520749699e-01
1.891842032065778889e-01
2.441691549270972594e-01
1.626374673059726161e-01
1.824795477000592803e-01
2.415104768985819050e-01
1.611200324538442918e-01
1.976829513055243792e-01
1.837560043131956644e-01
1.940846381954844102e-01
1.463823905220528743e-01
2.100684199463456192e-01
1.725684496689729175e-01
2.075659431048604564e-01
2.048309097583560501e-01
2.274798434257305768e-01
2.011313644974641879e-01
2.576855962106610054e-01
2.219893361972061774e-01
2.298961494922250326e-01
2.117498726755285554e-01
2.069820958717333292e-01
1.841158044173986374e-01
2.545506428012693223e-01
1.732878526921911022e-01
1.422273661761350727e-01
2.214638730293996272e-01
1.968842359813003651e-01
1.521935473536016048e-01
1.455481483111627505e-01
2.165196057916460304e-01
2.226416187008584679e-01
1.998020741159032831e-01
1.931840796873139643e-01
1.371441738856333803e-01
1.679748383349085605e-01
1.429871562910784710e-01
1.490338889312987913e-01
1.777760247132258997e-01
1.484928419197047988e-01
1.631430040277779547e-01
1.241165884519606355e-01
1.262453350417430120e-01
1.435361989222529999e-01
1.055439370827809670e-01
1.389124705030677087e-01
1.100192933518889665e-01
5.968525123475488386e-02
1.241517121821268665e-01
8.740066300957409495e-02
1.165050241867373326e-01
8.227429096516900020e-02
7.804574743210115906e-02
1.006748653567338669e-01
6.258686977063004919e-02
8.334533838653378213e-02
3.297069309859887443e-02
6.795725851229143799e-02
7.915567923201952127e-02
3.307198277748048254e-02
-2.390237035864765935e-03
2.456868802610753799e-02
1.693285763615933609e-02
7.456341741111677246e-02
6.007434209971342781e-02
-6.326274047739947198e-03
2.279300727038349045e-02
3.265607183983165740e-03
-2.458710496620276215e-02
-1.130718040094977686e-02
1.753349457981057125e-03
2.049591043093648007e-02
-1.202458115674116118e-02
1.384087229506578837e-02
-3.014819198230797581e-02
-3.186300645059540748e-02
-9.510316641754404388e-03
-1.909109831641876004e-02
-7.148641240430193833e-02
3.972146796509466726e-02
3.296342352276986076e-03
3.814774418490179952e-03
-4.357012409948297221e-02
1.558126329661497361e-02
-6.232251201472917973e-02
-6.379409957747018967e-02
1.260486807090191452e-03
-3.016126097055703975e-02
-4.522223763652443579e-02
1.741325509475102895e-03
-5.251272934363143685e-02
-2.303572696722406762e-02
-3.971391056676652764e-02
-1.658781838305556366e-02
1.996586297973933916e-02
-7.580708434063164469e-02
-5.893043108492964505e-02
-1.136353255713346347e-02
-6.111182396420188068e-02
3.923362013723355468e-03
3.383011345862801944e-03
1.639296509576752131e-02
-1.019048329116066867e-02
-4.594164739772134409e-02
-1.493318107803605702e-02
2.321074876548680221e-02
-5.502783407861885911e-02
-8.644615930134533222e-02
-4.666576971105337174e-03
3.309650975012151664e-02
-4.021468296809639631e-03
1.440331842758922273e-02
-1.269259516007391862e-02
5.525371430716557314e-03
1.714648558984987331e-02
-1.426707354772508221e-02
2.762788248247746020e-02
5.151087582272894511e-02
5.390262201082873794e-02
5.275785280076858430e-02
2.174517265599509863e-02
2.777121665790083932e-02
1.617936826725235866e-02
6.302217540640207838e-02
6.915579853399660137e-02
2.581655978898573373e-02
2.569453895898059573e-02
8.259360380013180958e-03
7.436031605727493055e-02
8.048162382613967269e-02
4.075524793637548548e-02
1.112577075034015955e-01
5.520688581970079056e-03
8.252809035933891812e-02
1.273134324853650301e-01
3.168861025269939513e-02
6.276040758858497659e-02
9.920292284967921481e-02
7.435745827887364767e-02
6.859541708914422553e-02
7.935991948120396655e-02
1.587194982595278303e-01
1.182377424422869083e-01
1.025789737157135062e-01
1.610707426646768858e-01
1.529474678124109477e-01
1.573632096483574827e-01
1.192838702003269913e-01
1.008771711639904756e-01
1.566372603464250002e-01
1.674808040353348293e-01
8.984946001817599448e-02
1.542245019866149980e-01
1.734086972615548339e-01
8.154937748721050039e-02
1.415709451358624915e-01
1.071398726114397015e-01
1.397330362607962229e-01
1.561145328916703490e-01
1.456892591809729465e-01
1.330855313632945403e-01
1.518130595180748332e-01
1.971412558738913912e-01
1.254826775544661543e-01
1.979282063397378444e-01
2.394317280572289819e-01
2.381400353253337598e-01
2.075727092693198106e-01
3.029706137170553593e-01
3.132217591485356167e-01
3.529740116373878966e-01
4.713400395633210449e-01
4.959557515331876054e-01
5.336914915793604663e-01
6.225883222277994733e-01
6.929915676383632261e-01
7.758462844318696483e-01
8.090374184515084499e-01
9.127191517562305290e-01
9.631372269913103246e-01
1.082406151755628709e+00
1.136464131746651951e+00
1.157816211128436468e+00
1.272650107294303057e+00
1.274744844017409173e+00
1.280914915979831425e+00
1.297251783261067271e+00
1.323933732417196696e+00
1.299990543943175592e+00
1.305652535517150437e+00
1.289955871084695671e+00
1.184277511665323024e+00
1.164594096338313012e+00
1.118817001140838041e+00
1.079637578000868681e+00
1.002418390424351546e+00
9.399322764512594297e-01
8.057898578174138571e-01
7.386140820662790984e-01
6.038947887540152548e-01
6.445308728603308390e-01
5.477160242370883170e-01
5.032064602203859538e-01
4.034775714399401192e-01
3.226121702074615238e-01
3.965198524988403639e-01
3.261084809720256605e-01
2.710421891315881182e-01
2.029321400252471208e-01
2.135748162059963595e-01
1.829374889069980137e-01
1.915634579245815428e-01
1.339004272832130249e-01
1.336128387071273405e-01
1.311139314529885247e-01
1.510468648898553867e-01
1.563570938203075744e-01
1.381065327845542035e-01
1.215080309861544944e-01
1.731441703550186950e-01
1.447288503281241867e-01
1.349016196469291495e-01
1.616943878555045511e-01
1.235884695622090496e-01
1.958971250519217500e-01
2.148658730205357248e-01
1.576215734154379766e-01
1.967303934114244257e-01
1.577532575029357287e-01
1.752299988060352365e-01
2.635203018631823157e-01
2.052788331411870559e-01
2.594694181899233065e-01
1.934559850410763060e-01
1.843080530373512327e-01
2.115012238407745770e-01
1.976027989206522451e-01
1.930839147304128367e-01
1.885093456996766170e-01
2.367386016009327965e-01
2.116106636904779570e-01
2.145517392394507838e-01
2.152134654572476213e-01
2.796934404872196134e-01
2.091381206145879190e-01
2.428930583718639791e-01
2.226093220542665618e-01
2.436839918233802138e-01
2.335037036856992265e-01
1.547078028159085961e-01
2.431658052762935840e-01
2.970404305620552576e-01
2.703882783539675594e-01
2.978381798769321742e-01
2.436591637753638961e-01
2.794587862629230313e-01
2.267083469095430570e-01
2.290392838621556626e-01
2.045799284472407664e-01
2.165373520562882126e-01
2.313244444710461645e-01
2.060237038111272234e-01
2.272520614932115324e-01
2.303955404101181992e-01
2.140535335126741434e-01
1.584542034574822900e-01
2.627733248320550663e-01
2.083505178911934652e-01
2.361527787126731504e-01
2.232076711581264250e-01
2.232598181819738237e-01
2.195761272559122457e-01
2.229362743595528218e-01
1.909904851506573631e-01
2.047317995966075610e-01
1.490114040466823386e-01
1.855018708491951163e-01
2.419802955865344163e-01
1.637417727414485769e-01
9.726967285386145523e-02
1.496553379625233937e-01
1.087270579126637660e-01
1.282311678140046485e-01
1.473604162502886727e-01
1.532058336319652436e-01
1.392719587411362092e-01
2.134093630104194061e-01
1.440636646842421154e-01
1.058130942709587796e-01
1.026479364018455104e-01
1.170213854015238614e-01
1.245779846646816597e-01
5.443755898227591039e-02
9.184998350103255882e-02
9.855206906690396063e-02
8.330068844747932910e-02
1.119660138862922788e-01
7.681560469692209903e-02
1.382921039699772092e-01
1.322420109934651922e-01
5.511225657711805309e-02
8.414611980673726566e-02
1.163644502106747913e-01
1.045564355886346580e-01
3.053680063813359047e-02
3.904823551237208284e-02
9.708846844503048190e-02
6.254892161646480320e-02
8.657700354413108701e-02
5.393704489398083723e-02
7.333939547462535458e-02
4.380109401006432313e-02
5.871392562362055811e-02
4.582704201264868604e-02
9.552870501337448750e-02
3.912994482898963372e-02
1.529116598234985663e-02
-9.456608389584758578e-03
5.189396171004831415e-02
1.289368906290541683e-03
6.330470665042428613e-02
5.494843387839450088e-02
1.667420190592502904e-02
-8.224023982747723921e-03
9.088881646313057283e-02
4.532105502632075705e-02
2.515664231552984173e-02
-1.954612753966038577e-02
4.250852641546326582e-02
1.650998564689674236e-02
1.650155618343845249e-02
1.212396529493755572e-02
-3.557693541428433998e-03
1.283375442290097049e-02
-4.547978660818144392e-02
8.063993730633009505e-02
6.543116917871259763e-02
5.822608422803873113e-02
6.576745978716916352e-02
2.891492712623263545e-02
-1.555055196528723135e-02
6.671549169757805264e-02
8.387579258675448290e-04
7.545959154808826175e-02
4.917194422191294850e-02
1.862285377393961550e-02
8.406692038877436324e-02
9.612463016190270215e-02
6.994925734565116127e-02
1.349094070756942099e-01
4.817340944987726775e-02
1.129994706078181338e-01
9.585439456042425810e-02
9.705777907223248069e-02
7.551415219491365571e-02
3.215304530497475194e-02
8.139511442052210777e-02
8.916045928367487272e-02
1.359425030284678315e-01
9.206908285426138039e-02
8.901988327274457102e-02
8.519219769141753162e-02
8.824108155899630657e-02
1.247399156564819450e-01
1.077725991547447137e-01
1.338889584078413741e-01
9.462052809399770781e-02
1.283791757323267668e-01
1.335992184292942031e-01
1.130461728452409470e-01
1.628148564044318292e-01
1.618921533392331247e-01
1.963774409810921662e-01
9.905917821763406128e-02
1.598702955454291141e-01
1.443700003012903799e-01
2.220280664634507461e-01
1.519762687438857562e-01
1.500953940882638060e-01
1.598216280358838171e-01
1.832939220111977630e-01
2.099592430171711710e-01
2.055389697816487893e-01
1.496905187229033984e-01
2.016292230411759756e-01
1.909665671258820308e-01
1.543937409446324294e-01
2.033153951838338747e-01
1.877337181452143899e-01
1.493024802879325541e-01
2.231584945536453091e-01
1.802341275823151068e-01
2.117820947239979490e-01
1.536041390140367724e-01
2.434609352603899768e-01
1.999021035286077386e-01
2.123079219060953482e-01
2.047205153683468448e-01
2.400447435992000278e-01
2.195940890298793691e-01
2.674772151245548013e-01
2.622382892477888028e-01
3.388680553450578725e-01
3.720794765326448372e-01
4.063621691431974492e-01
4.121407956274091289e-01
4.799222024159071620e-01
5.308677589514460005e-01
6.536574072606440300e-01
6.938008057713443977e-01
7.112067314326732115e-01
8.029669125841526478e-01
8.810515796387443643e-01
9.396247321468753633e-01
1.036797189089090132e+00
1.102999725071780901e+00
1.174985446285932822e+00
1.269309549566251638e+00
1.266225686697958874e+00
1.321610946343603210e+00
1.346489936054922731e+00
1.331347280416284473e+00
1.426799499350095202e+00
1.335169773063690002e+00
1.337859791977143775e+00
1.334750625694795190e+00
1.309419378177417714e+00
1.208400702456347231e+00
1.183222331268518612e+00
1.064783548710500183e+00
1.011945235901117846e+00
9.488282641737117995e-01
8.167920414929633610e-01
8.073661896752921674e-01
7.864257222298702832e-01
6.857993041269503376e-01
5.894844017276237302e-01
5.256266766953947567e-01
4.867865738418669652e-01
4.562010639090618991e-01
3.670116026206268200e-01
3.103945960641820712e-01
3.132328653630371829e-01
2.584065641936414415e-01
2.776064662507122249e-01
2.398532398788756625e-01
1.804771683424389039e-01
2.179130617608228404e-01
2.326038268052318392e-01
1.946507571655197166e-01
2.175263966643448121e-01
1.915440798004409417e-01
2.251209667093815592e-01
2.114782305262284945e-01
2.264188086404406997e-01
1.882307692490470807e-01
2.317986681088579082e-01
2.750496893148864919e-01
2.250344703351964404e-01
2.171360223014162927e-01
2.001596582839306471e-01
2.047579648520543305e-01
2.371293914427625715e-01
2.323498806678351014e-01
2.690361511720231746e-01
2.553816849433390157e-01
2.781684242685400488e-01
2.758339175219688411e-01
2.425532706688082185e-01
3.201968442897040745e-01
2.855522412304049573e-01
2.500235117408950436e-01
2.456776789229462854e-01
2.740074016856391959e-01
2.733376191615536910e-01
2.799977531370848594e-01
2.860695165327299394e-01
3.036302461647215623e-01
2.926780605245853373e-01
2.492027457837930893e-01
3.097625014595408732e-01
2.923922161854132229e-01
2.725948400265671423e-01
3.488634681379966240e-01
2.820264426790027867e-01
2.986443629892697738e-01
2.795213051845688024e-01
3.210949528892489968e-01
3.090867513892034957e-01
2.962989465715430981e-01
2.770161449104509011e-01
2.510151534644898819e-01
3.158438629785257357e-01
3.900847008364480839e-01
2.994947294772149493e-01
3.556874943127586453e-01
2.852124642601597260e-01
3.292587523718454312e-01
2.813743011318414755e-01
2.513170966406212958e-01
2.889778153240707415e-01
2.546273389248837060e-01
2.592037649799721621e-01
2.203971785268932226e-01
2.573229347303279679e-01
2.458285432246397062e-01
2.391216406857553101e-01
2.236869480082432915e-01
2.127492576495906562e-01
1.847631910526135735e-01
2.243949378268056960e-01
2.252468789664306414e-01
2.690870245234743829e-01
1.935679968373225646e-01
1.849323015715701735e-01
1.728463322691591308e-01
2.042316166963679402e-01
2.464134042026592253e-01
1.846504805325732135e-01
1.910983077407085728e-01
2.029990935164287247e-01
1.745058673351434497e-01
1.726673572845726090e-01
1.280114143688771688e-01
1.317877941893779159e-01
1.482321860926040791e-01
1.315056842097153955e-01
1.256013039728869907e-01
1.066577665755371052e-01
1.286761972025096123e-01
1.638510982486421075e-01
1.428261302723083104e-01
7.255458918824927994e-02
1.568247270512310443e-01
1.125324725066385312e-01
1.066743205242868253e-01
1.544487532353570336e-01
9.825552709448051592e-02
1.217324431309436683e-01
8.311194209383956921e-02
7.526616107223760288e-02
1.036517175431247023e-01
9.382128428394170827e-02
1.133717330578841720e-01
4.917310719757902321e-02
5.125390917947746094e-02
6.474717531596367592e-02
6.809558976890371651e-02
5.452037332872189390e-02
8.408513573761317028e-02
1.815243072424669452e-02
2.838589106692003539e-02
7.398798956770265278e-02
4.834717850540615203e-02
1.349090763648134322e-02
4.076110985284124577e-02
6.575262623512986848e-02
5.310666250884949618e-02
8.431571690961486842e-02
5.957526924118068667e-02
1.060411580768495510e-01
4.813106687905316372e-02
4.758015608609989650e-02
7.055551426359388256e-02
4.789646142452454181e-02
6.102735359133967807e-02
2.501105781288492924e-02
7.561307535111862210e-02
8.167473785450250767e-02
1.062237986557150460e-01
5.735781378537838787e-02
