1.342677055912421480e+00
1.314805476580052757e+00
1.307993561916408920e+00
1.289662164046555981e+00
1.274443461634142905e+00
1.169983830247448564e+00
1.160303019678521785e+00
1.098863394375385161e+00
9.976176371921127162e-01
9.498901236196387599e-01
7.939918219109579622e-01
7.423494557097942703e-01
7.489547813635596407e-01
6.316896004815570898e-01
5.551559213759266198e-01
5.438789468063104371e-01
5.232345384465176830e-01
4.051897684328138460e-01
3.856698183405313785e-01
3.493575246623656927e-01
3.023506644518471065e-01
2.722560979807445158e-01
2.520766026696991680e-01
2.748732974072625734e-01
2.123454983827095521e-01
2.002033111616575711e-01
2.075599637103656969e-01
2.010640835011072158e-01
1.987714661072820244e-01
2.106589929126080896e-01
1.961425352506929176e-01
1.992480598063751662e-01
2.132353835141693188e-01
1.629433892596424682e-01
2.162613106325446677e-01
2.625480745110931324e-01
2.283187055366459328e-01
2.348703503177194118e-01
1.873534733772136973e-01
2.268273710255826192e-01
2.762443987567747006e-01
2.794060433608830385e-01
2.424460417882884355e-01
2.485484256631288746e-01
2.341298864804539637e-01
2.420767222566849175e-01
2.051946169512283424e-01
2.233514425300386075e-01
2.116900427029466125e-01
3.073744449504230980e-01
3.198370681968794593e-01
2.902554615579415742e-01
2.377261775984227388e-01
2.965883157024536421e-01
2.988900710353047385e-01
2.932263800265872411e-01
2.735191393105156910e-01
3.092646023527563237e-01
2.811633044110498636e-01
2.609409141125474951e-01
2.660875026595760362e-01
3.499672557233642900e-01
3.409387748812247598e-01
3.311866485272316751e-01
3.358753450165989918e-01
2.685862310203238068e-01
3.044735010207309522e-01
3.445819226808769509e-01
2.689373897281073789e-01
2.710539972745021342e-01
2.689187373116146973e-01
2.613480838937849438e-01
2.790601226787207678e-01
2.672083916063573983e-01
2.764541487486597560e-01
2.564200279371698921e-01
2.538580961409298009e-01
2.817666088006511860e-01
3.013071037644939887e-01
3.085486881958156569e-01
2.485736632870401419e-01
2.561347838865360438e-01
2.659079698326132779e-01
2.633806478894221703e-01
2.185690321012079551e-01
2.191841658991753039e-01
2.086755535471366552e-01
2.196752043613776628e-01
2.544922238428729555e-01
1.978381612075982010e-01
2.227562778464158566e-01
2.083766923121615211e-01
2.308358248038420157e-01
2.028163369797684745e-01
1.919586983993628870e-01
1.404639213874201986e-01
1.829077759758450661e-01
1.560395252515946185e-01
1.032660893529084578e-01
1.480838907927937986e-01
1.274722881999451052e-01
1.569557577347910904e-01
1.300747752005506075e-01
1.450687059020134839e-01
1.472418416405932295e-01
1.772455795164023240e-01
1.098785595834889522e-01
1.454060645000269936e-01
1.100415671817598778e-01
3.464593670619435517e-02
1.398141088160902157e-01
1.593470339455499429e-01
8.948780146914754596e-02
8.099589728143052891e-02
8.818474980560508936e-02
3.350463739177205608e-02
5.476525505526671361e-02
9.303452025703418116e-02
1.174281905213584165e-01
4.332583949168727216e-02
4.261307402223021151e-02
1.103307496737087057e-01
6.011360212046834572e-02
7.321809312387074498e-02
9.720021320223244665e-02
1.301901768576432805e-01
9.189544963035481406e-02
1.427617719365529073e-02
6.259846771376487151e-02
7.427616560738686813e-02
9.054792045580747906e-02
6.089725622494200630e-02
6.366128980134358462e-02
2.012289778888662686e-02
8.416799110294508057e-02
7.195581273307874448e-02
7.634259943687421446e-02
5.980978184758323907e-02
6.041636721978993485e-06
6.924519014234231662e-02
6.062257814322336014e-02
2.153689599586395761e-02
6.573412686439741859e-02
5.382627575349455823e-02
6.062790099307514835e-02
1.310589808848993953e-01
2.645277438883255477e-02
3.412921896141652561e-02
4.248742946865266545e-02
2.938908681351976027e-02
9.126488053987941163e-02
6.655436384005604389e-02
7.269392552488013193e-03
4.253113878853830021e-02
1.026512523250208975e-01
7.654942192702485215e-02
1.299469777640190615e-01
8.999589053220750923e-02
1.141655641485905259e-01
7.002794729090451586e-02
4.757439693605941544e-02
7.863191754893943120e-02
1.248435596412652143e-01
1.382536194979594735e-01
1.211572050538608780e-01
1.304714808838848827e-01
9.485722382891212390e-02
9.973097008281571474e-02
1.672608032396951661e-01
1.387891035830914332e-01
1.768496192103696241e-01
1.758259463063694406e-01
1.630301799151747111e-01
1.471231037665023944e-01
1.691807598150113501e-01
1.786182218433342572e-01
1.528027990306386474e-01
1.253381981590802607e-01
1.298086549210037965e-01
1.687742878520925582e-01
1.676179479892971336e-01
2.141060618328706200e-01
1.678090621095268964e-01
1.501650529505699772e-01
1.280400377239798160e-01
2.006226807610123897e-01
2.295798608425269338e-01
1.641390451378066939e-01
1.731272212696136903e-01
1.648967775115124934e-01
1.351630703274517287e-01
1.580957218271498710e-01
1.640889702636358360e-01
1.894660962822815042e-01
1.663431286226168537e-01
1.075488273023088442e-01
1.879364257019807694e-01
2.283916446780620002e-01
2.230907858352130513e-01
2.211448172774213017e-01
2.681470973434534888e-01
2.785644523891646629e-01
2.577283509680502460e-01
2.811485876885176372e-01
3.426539923784751585e-01
4.708498944652577123e-01
4.422263404759528282e-01
5.194387670107996069e-01
6.150645241182978173e-01
6.802076135548499325e-01
6.766588138519583628e-01
7.855531043234144084e-01
8.778859052147680586e-01
9.686462983318028241e-01
1.002581653076992874e+00
1.082127313299277249e+00
1.130067419922580862e+00
1.155536793541120266e+00
1.266716359033149386e+00
1.230208001459490497e+00
1.214776810319964095e+00
1.291162313306360332e+00
1.269336858252905875e+00
1.318515934962629199e+00
1.299659018526520882e+00
1.227281931179409646e+00
1.258170943311052836e+00
1.168394002474770099e+00
1.066552032766093561e+00
1.016002396144277453e+00
9.379025769199013096e-01
8.583063358068035997e-01
7.765012960955516297e-01
6.844332349389051773e-01
6.427789320448646926e-01
5.853069559861100446e-01
5.716618100868213759e-01
4.531116756280846314e-01
3.795471079715679319e-01
3.998514163036733238e-01
3.108013577864448540e-01
2.963870690185878565e-01
2.518316359230955426e-01
2.749857870517374847e-01
2.074534912141312581e-01
2.258002366860040466e-01
1.609949941374594351e-01
2.141866828366114084e-01
1.161240062592364536e-01
1.483539825283247127e-01
1.591234653599979676e-01
1.642016831294086099e-01
1.431774005019267604e-01
1.981005553935448193e-01
8.795087891342674713e-02
1.761469514365374689e-01
1.874093907625283550e-01
2.150960612596647947e-01
1.549754316605436444e-01
2.796152200195327620e-01
1.508987572223857709e-01
1.887702895010214266e-01
1.876808491218995012e-01
1.659525320390457526e-01
1.775177070593415007e-01
1.711595427537831449e-01
2.459778195687866986e-01
2.196113893456804744e-01
2.000080780672130742e-01
1.672037438292618694e-01
2.006076585785566968e-01
2.241579415563988986e-01
1.934110541888852397e-01
2.504722549965746614e-01
2.595780337191594400e-01
2.977477418662695663e-01
2.539521130008458027e-01
2.668910865081050576e-01
2.128812984110322326e-01
2.393936453545255638e-01
2.679676800239783052e-01
1.676247634054131019e-01
2.575111316582872067e-01
2.367997682832701511e-01
2.291851357842737968e-01
2.659178695541074000e-01
2.639705806617680950e-01
2.648117211733427290e-01
2.944405315420948188e-01
2.276814546905924774e-01
2.571261723485859796e-01
1.915082679897980589e-01
2.734936852330560053e-01
2.659205013307736620e-01
2.224020076668132562e-01
2.548998749946206899e-01
2.714269913035412540e-01
2.466930483320415035e-01
2.126159784638105565e-01
2.193629256357708668e-01
2.362247632905518369e-01
2.045636646221206945e-01
1.498596175075941339e-01
1.449178005589448759e-01
2.169503227060653738e-01
1.418221692755092245e-01
2.264920496729486421e-01
1.860532943253783156e-01
1.519015380181027997e-01
1.784329547246183423e-01
1.621593514523673729e-01
1.118113485093447934e-01
1.767450130612792936e-01
2.044672834622382473e-01
1.281818841246445406e-01
9.050481971401631853e-02
1.242459957244756302e-01
1.364612533006205053e-01
9.917118924743228980e-02
1.029316066976152799e-01
1.007587014124030900e-01
1.421117881222486723e-01
1.255491322404362342e-01
6.433628789515545565e-02
9.237300554652701223e-02
1.021374805188654811e-01
8.553438235722636562e-02
2.995231354975914570e-02
4.094342288373478689e-03
5.020400598381901530e-02
1.129571969138991883e-01
6.848011693301141178e-02
6.390637223314712956e-02
4.091526957820881827e-02
-2.446615200807068791e-02
1.865500747143826465e-02
3.403971481377228436e-02
5.140050827946734263e-02
8.925168284888689019e-02
5.551898097169580271e-02
9.857743452774839210e-02
3.449642106170903999e-02
1.458184952846765421e-02
8.456928428366689010e-02
-2.769673889524724292e-02
2.467282684468135451e-02
7.800770318709171480e-02
1.601302309840548985e-02
3.349681919958852339e-02
2.966237782976658896e-02
-1.250496160825150319e-03
2.012198411549794702e-02
-2.895875657637651465e-02
-5.227109710035530987e-03
2.476910969623483463e-02
-4.538870133630029322e-03
2.637311695432893038e-02
1.791819081579615683e-02
-2.945838993545640827e-04
-4.384925870140508886e-02
-5.609725160272627242e-02
1.542401451913258045e-02
1.621710153093089413e-02
7.853233475686643983e-03
-2.080400404688543398e-02
-1.570499835912074135e-02
-3.958060411903947806e-03
-1.239673040897836670e-02
-2.886329345136513097e-03
-2.622369872084816950e-03
8.675602350938154544e-03
-4.353686233946578443e-02
3.166697947390982593e-02
5.080484049373648614e-02
6.593750448328425384e-03
3.738604533547024156e-02
3.388225374320517902e-02
5.627851779630525103e-02
-2.637656420261511730e-03
-1.990884774835618987e-02
8.139209794069481724e-03
8.378635521012829657e-02
6.608777661395025260e-02
2.878798051325178256e-02
5.041477912308350851e-02
2.731411405013364768e-02
4.219689242005215252e-02
6.800527652102483778e-02
6.140098374992083302e-02
7.180984211367384684e-02
9.514213232588639158e-02
1.480550615722640850e-01
7.206890991235240240e-02
1.434717386711170384e-01
1.124607851435194816e-01
1.251614394882898940e-01
1.206323626568322205e-01
8.848025662447488171e-02
9.812420896646049939e-02
1.266271619224654255e-01
1.501039634498821662e-01
1.340049821350269010e-01
1.288874377115338254e-01
1.326256414062289557e-01
8.175269433050809387e-02
1.299337751153963327e-01
1.541829309168309126e-01
9.541681351551989376e-02
1.593520862807386584e-01
1.361194124360594060e-01
6.595671245882527012e-02
1.229144952803272184e-01
9.345497065789602764e-02
1.765562775196687084e-01
1.022975074514147764e-01
1.554907486135295169e-01
1.665799210736985669e-01
1.031156402785162324e-01
1.153433253219743881e-01
1.749334447546815052e-01
1.490562539236651718e-01
1.909794301673781725e-01
2.269837719435695844e-01
2.140407005068418189e-01
2.977644478112416171e-01
3.051900836514323534e-01
3.238714523382832944e-01
4.213332589173477971e-01
4.255540007618537901e-01
4.701577376280369203e-01
5.422843276471476237e-01
6.564675167041522652e-01
6.899530243210668656e-01
7.504801397731776236e-01
8.468672529788634495e-01
8.909425101359904620e-01
1.007938444387935339e+00
1.014872931639609455e+00
1.089177722856963459e+00
1.131866563966073214e+00
1.199477842773449598e+00
1.167322457683310333e+00
1.225541526306489937e+00
1.251813123347718326e+00
1.196038228665473824e+00
1.238173046205050642e+00
1.240600912969418657e+00
1.179126884692516253e+00
1.186666945382609528e+00
1.098143375971730507e+00
9.828621260334259313e-01
9.428358528069986644e-01
8.948102756759512832e-01
8.068004034950329029e-01
7.321126115685919755e-01
6.863613259361860397e-01
6.127069976783612315e-01
4.708055707833631587e-01
4.914089302000216319e-01
4.355087286220926668e-01
3.349788074313668762e-01
3.133284293766122053e-01
2.629630663457914186e-01
2.566320584959118634e-01
2.499039920115678493e-01
1.998677585782989430e-01
1.870604163911884499e-01
1.760268346616508384e-01
8.803928369245322960e-02
1.049571467437515199e-01
7.685233762674487101e-02
1.374616943020846860e-01
9.648810864458430558e-02
9.906012703790853524e-02
1.424037552140752505e-01
1.424625075951273523e-01
1.125359205059048850e-01
1.285407607518442019e-01
1.020903041262848088e-01
1.438999049285309417e-01
1.466154019470007341e-01
1.349009501431659153e-01
1.320934416356457364e-01
1.391427581404379721e-01
9.086761232438114733e-02
9.872177005244148207e-02
1.581966636871268428e-01
1.868487793687463316e-01
1.531313938775588912e-01
1.203761132414612745e-01
1.866653573145448941e-01
2.310070144848775930e-01
2.057271201486261247e-01
2.223623146457478217e-01
1.735375132722938862e-01
1.965482552868876853e-01
2.081530066245464716e-01
1.875440156465789654e-01
1.907166277741161597e-01
1.578054890901270102e-01
1.842820075804046664e-01
1.949890689723429438e-01
1.988585043470928182e-01
2.408036553731508489e-01
1.583937483689013825e-01
2.133576695852084093e-01
1.801756559369225574e-01
1.809306518784436768e-01
1.427387419879495578e-01
2.168423340307275016e-01
2.441529389219123103e-01
1.972601069042663746e-01
2.088409852657323040e-01
1.979293748775306783e-01
2.006358327000620501e-01
1.893766821065997752e-01
2.007124651808973870e-01
1.854594287088930926e-01
1.900325050338527444e-01
1.668607827133003207e-01
1.829317328484497407e-01
1.793139128044685116e-01
1.756419910763159786e-01
1.395077891742107501e-01
1.537983539936451649e-01
1.831891490947992751e-01
1.435722946953982282e-01
1.428433281310924063e-01
1.496395719534584223e-01
1.393933713470933977e-01
1.956769542172189513e-01
1.623387092211751037e-01
1.083248472764682668e-01
1.322865806474510797e-01
7.540303812390454496e-02
1.323596760111042103e-01
1.167974631921725459e-01
1.419963019983830621e-01
1.501348960167481206e-01
6.282868057367599346e-02
1.157058064325298674e-01
1.190852294709640324e-01
7.809277074942469477e-02
4.584367531511812643e-03
5.369574228692364226e-02
1.882031424704185690e-02
3.348191108516898606e-02
4.347711608101198499e-02
1.490862740258054597e-02
3.896488121450154135e-02
6.275142833247189522e-02
6.048969421517020467e-02
4.505887670875567685e-02
9.828701758566005253e-02
-4.528525023364112639e-02
-1.078792295156406900e-02
1.450051291215041782e-02
-1.479378309610922954e-02
-1.052521921748822420e-02
6.074647625054204608e-02
3.337471879986400602e-02
5.774661406422250398e-03
-4.053873250800412581e-02
2.206993672854745681e-02
-5.279439970178080588e-03
-1.075420047693360914e-02
2.483247747746952089e-02
-3.220377791278893065e-02
-6.822033068402302836e-03
-4.179250377092102314e-02
-2.641864051283554504e-02
-6.178898125766704719e-02
-1.060241897368041641e-02
-6.864643334112878470e-02
-1.739793286167230085e-02
1.166760822929249070e-02
2.879674750657423843e-03
-6.283363384067389146e-02
-3.342571569560690015e-02
-4.603955939125015107e-02
4.484955680181326731e-03
-4.331544871788876871e-03
-3.321774638600236140e-02
-1.079348487768181930e-01
-8.686344813905343132e-02
-9.840221183923324177e-02
-6.522869688004849509e-02
-3.815483345942033422e-03
1.906772396316472329e-02
-4.685435622288909585e-02
-1.392371591695033828e-02
-5.217273845396872695e-02
-1.161068069911102424e-02
-2.168351757119545489e-02
-6.160557472896782683e-02
2.551269860017929547e-02
-2.613577749275691406e-02
1.006735032071834346e-02
9.820275248134321955e-04
3.878996574583856022e-02
-3.999723996661784520e-03
-5.672685536609001905e-02
1.874125599711353590e-02
5.838190267922314936e-02
-2.105622506310107778e-02
3.719330563893186864e-02
3.021503346375137983e-02
3.111632611138867577e-02
2.286336017500220641e-02
1.097284597194241595e-01
9.935028254636027456e-02
4.945715306781341136e-02
-1.674511211140212313e-02
1.129788712668712281e-01
1.032881719085416983e-01
1.291894505331056264e-01
9.230855466598263115e-02
1.026807313824953105e-01
9.649084856465375837e-02
1.104991342488599454e-01
1.210488320429573689e-01
1.003291334885975938e-01
8.514732010201397916e-02
1.026514668764113292e-01
1.160066061135490989e-01
1.514547032875026844e-01
9.343631061427248863e-02
9.772346268212374343e-02
1.094611506396629963e-01
1.139318738089997174e-01
1.072129152537304730e-01
9.974677874553880552e-02
1.005208648169827051e-01
1.032426942285755989e-01
1.148218084101524927e-01
9.638780654881272392e-02
1.399066184090433651e-01
6.261261408444709908e-02
1.537778939541661616e-01
1.410106316528054182e-01
1.551848132090847820e-01
7.626544711858414261e-02
1.458444607345217303e-01
1.615345860204940587e-01
2.319735044742653463e-01
1.880014570341045077e-01
2.401754520089651734e-01
2.951475974464292662e-01
3.292411850310752452e-01
4.270548741736542864e-01
4.244955099601402937e-01
5.161567002923768133e-01
5.188988169684107810e-01
6.378557310963820504e-01
6.023028253219921968e-01
7.724702017174384094e-01
8.149959893419469470e-01
8.720666214941193983e-01
9.408088634189504251e-01
1.034778921774176519e+00
1.081525837271132939e+00
1.144757752705189757e+00
1.193151569474564244e+00
1.189048346132094203e+00
1.245658828511535310e+00
1.233798875510356385e+00
1.243340958187246548e+00
1.167771689615092257e+00
1.241178341353209147e+00
1.156071059723467798e+00
1.148380756837306338e+00
1.016791593129144911e+00
9.869678559206757074e-01
9.013806407210513960e-01
8.286217879196039471e-01
7.530457107084334023e-01
7.600120896098102596e-01
6.516969368574089261e-01
5.544046498584160876e-01
4.999073172391020892e-01
4.386146475299240177e-01
4.000656767291614346e-01
2.781800180297449576e-01
3.178343768561949778e-01
2.562456741187739695e-01
2.140710150060415040e-01
2.222566161081896141e-01
1.981590178094201349e-01
1.429746323903401672e-01
1.285832658318877275e-01
1.224523756660013951e-01
1.395159383341023906e-01
1.002183287957747193e-01
1.151861852256610003e-01
5.196024239657470040e-02
8.733261269529588033e-02
9.181245726273684626e-02
5.287891416087438928e-02
5.076679139900825560e-02
1.195571966433514599e-01
1.688451149722061118e-01
1.282264674113529068e-01
1.175832848444163248e-01
1.097711530357881465e-01
1.063481727166844248e-01
1.529600289142126202e-01
1.011439049458762174e-01
1.899327924584136573e-01
1.471614985253996699e-01
2.115742162110898217e-01
1.432225526458232312e-01
2.138236079408705748e-01
1.597378651094168434e-01
2.002056215299939379e-01
1.832675971253291125e-01
1.793049844633729795e-01
1.895164134444353443e-01
1.488553431219831746e-01
2.218712071803899399e-01
1.981090545741142350e-01
1.832819565236566972e-01
2.260263135505680698e-01
2.245989596254278631e-01
2.380090949667553468e-01
2.175653553036379639e-01
2.235470673549796172e-01
1.720646342252595273e-01
2.016464840042209994e-01
2.033025355040048721e-01
2.026095421576845357e-01
2.409004170808572431e-01
1.721950539910346023e-01
2.406921382103230922e-01
2.081259592482433141e-01
2.189510016661979364e-01
1.948982564519719241e-01
1.702381452928850014e-01
2.230496000922719269e-01
1.895432294724420652e-01
1.674354730611480602e-01
2.208988270289078404e-01
1.800886467064816143e-01
2.100294703995990164e-01
2.479534326636035346e-01
2.085083824432915067e-01
1.951150295849551908e-01
1.757200786600298381e-01
1.974597325115881041e-01
2.285892580859597012e-01
1.395056033562575570e-01
1.561731150768136400e-01
1.434253987329930646e-01
1.313519316924885161e-01
1.293302269437678620e-01
9.189961879715097259e-02
1.336114775631952745e-01
8.096590521471494495e-02
6.262132242976840846e-02
1.484697236031436440e-01
1.251105042562605796e-01
1.502444446731886762e-01
1.340962418777193466e-01
1.162290083224604142e-01
7.377861207067085147e-02
8.861711612830261431e-02
1.173972145795284389e-01
6.497467978577500802e-02
4.569128633594903011e-02
3.090659825902255381e-02
9.439429986062196354e-03
8.247227261991471603e-02
6.029336250951052717e-02
1.173372657134165026e-01
6.423102256969459578e-02
3.630624628994363889e-02
7.984700788991196119e-03
2.147108232329368593e-02
3.318617056852360414e-02
7.623805439313158239e-02
2.278467568421087622e-02
-2.521051124342250926e-02
3.966004524138310589e-02
-6.318664436175083776e-02
1.659616290005601347e-02
6.775310511715548767e-02
6.644318340874572071e-02
-3.079079981620913564e-02
-2.164399734156375460e-03
9.938043128879185673e-03
4.270455038650745189e-03
1.537093661880262196e-03
1.289826178218715994e-02
1.414325558254698675e-02
1.404373728599469379e-02
-7.362738846063244386e-03
1.331473324428897667e-02
1.957913854402457132e-03
-4.760932246449701977e-02
-3.871464991137503475e-02
-2.724791366434596920e-02
2.617023148560743140e-02
2.998405339253874466e-02
-2.893042777704559268e-02
1.074269877708233095e-02
-4.537143505938300014e-02
-3.879065116404073477e-02
8.303616307555390652e-03
5.079398106871768626e-02
4.070287612189821963e-03
-7.101828873681451104e-03
1.175361313169199715e-02
-1.514221628849684448e-02
6.817191291250482288e-04
4.644689413166107339e-02
-8.901328936403076625e-03
3.217387557504099160e-02
1.032550859757939976e-02
2.745809600728717909e-02
6.432389869981841590e-02
1.733073425820102001e-02
6.394345737093178050e-02
5.195007809594767711e-03
6.217188031991444097e-02
5.531360528135356724e-02
1.705975874664990982e-02
7.995521985754153182e-02
5.985321737050254554e-02
7.383068973046198746e-02
7.332342792384713426e-02
8.300049178490415125e-02
6.667927110648208533e-02
5.177812178973545398e-02
3.680463791229895976e-02
5.449590243818296098e-02
6.491649563520389410e-02
7.362925342183919419e-02
7.136101416919601870e-02
3.816183235259090756e-02
1.101342470927403755e-01
1.286666372474969955e-01
1.327404286630575747e-01
1.524892210877008825e-01
1.740703032833526009e-01
1.403844568209050292e-01
1.780454936048106451e-01
1.339520359839568298e-01
1.929324309595465969e-01
1.324805319088971367e-01
1.273733836345675163e-01
1.351418288696333847e-01
1.445556447076869477e-01
1.807951622324938667e-01
1.295305915826971133e-01
1.305519080986233815e-01
1.421367230335502385e-01
1.407437061555450175e-01
1.492671683747753553e-01
1.112506770640935977e-01
1.600947686980022933e-01
1.549721301418894581e-01
1.384842348032776782e-01
1.435244492002876460e-01
1.767856900538737064e-01
1.835407834654773085e-01
1.911254774957236724e-01
1.934455356419193528e-01
2.198187450556825795e-01
3.158665752983436659e-01
2.658178530077440205e-01
3.958447797478758523e-01
3.369185213612221341e-01
3.936066900325942419e-01
4.369530729404139668e-01
5.520849655066830675e-01
6.081109739319713325e-01
6.644215901029409954e-01
7.603212042629422518e-01
7.878409236471970445e-01
8.862271070778303672e-01
9.902705310714418063e-01
1.033420718472980004e+00
1.135754161128566642e+00
1.067953528021697851e+00
1.165617488058591444e+00
1.191179618045540511e+00
1.293239560330998739e+00
1.293852742273978507e+00
1.288275533936964479e+00
1.254942586648408520e+00
1.250239789484890895e+00
1.241246334091335335e+00
1.184866514681296445e+00
1.089335338312824808e+00
1.105772873417492086e+00
1.055852391520889944e+00
8.667210954467022832e-01
8.641911449702949222e-01
8.424596426077474165e-01
7.422457649003311175e-01
6.184237252387397854e-01
5.817555903969811038e-01
5.277514157482229296e-01
4.965323887977406425e-01
4.332370629827725361e-01
3.635661876561283590e-01
3.465624638089737641e-01
2.584133975188137033e-01
2.583219575583068917e-01
2.315688340198997774e-01
1.990562094340427302e-01
2.107876286785912989e-01
1.663723242953747128e-01
1.689980040635426228e-01
1.817243525385290881e-01
1.673190486748031836e-01
1.534863878805629855e-01
1.896444636236942760e-01
1.714002564690343677e-01
1.801355044893365454e-01
2.172539527843925788e-01
1.689476854435059405e-01
2.584611913299837971e-01
2.048625875746397096e-01
1.742356826432981398e-01
1.959299887730901746e-01
1.835485979749837682e-01
1.817380464272419227e-01
1.968191225890899287e-01
2.030188899452171070e-01
1.539312576746515171e-01
1.939935063076868305e-01
2.131381303742075350e-01
2.011857603460475430e-01
2.378022280221111784e-01
2.074465175410602769e-01
2.275467301649974627e-01
2.648618391050567844e-01
1.556368076141558532e-01
2.481307402425920183e-01
2.378757672765205722e-01
2.667865543923466087e-01
2.100798198276739304e-01
2.539435141017278297e-01
2.090970238987654162e-01
2.637106236102317314e-01
2.628477818565346236e-01
2.821072148942126989e-01
2.602292974681408855e-01
2.843748770642329227e-01
2.756536103338431687e-01
2.480235878443352582e-01
2.560800580498899248e-01
2.398391919136932116e-01
2.820118142356589641e-01
3.082757113400904081e-01
2.048495606229050470e-01
2.212463289929455512e-01
2.536098925055900732e-01
2.314530450028614295e-01
2.199973771473591744e-01
2.088203908651008189e-01
1.928235815357529082e-01
2.403240834712593865e-01
2.333624670588868300e-01
2.528472855670684805e-01
2.201659029303732751e-01
2.400885858596744638e-01
2.328953353137545590e-01
2.184778614704873112e-01
1.677548072903709275e-01
1.847847078591018100e-01
2.196691429099020265e-01
1.589892624714939751e-01
1.468484839996138935e-01
2.092493865529283237e-01
2.183505029451175972e-01
1.437685570735209029e-01
1.501465209133093226e-01
2.253438695665665736e-01
2.204312452038044712e-01
2.337811561731390209e-01
1.125155376284838332e-01
1.401421828226720456e-01
1.780930727969984861e-01
1.386193858488295461e-01
1.534918524196563216e-01
1.509980697664207172e-01
1.470128652285271897e-01
1.154090674076962697e-01
1.187175962597621370e-01
8.750322266294523199e-02
1.089347996297579946e-01
1.400554869062074215e-01
8.531373282426707449e-02
9.505673079243084911e-02
1.231971610615280321e-01
1.113618608138313842e-01
9.676841167394029108e-02
7.277843421485466480e-02
1.017959216344857115e-01
7.449144517605719995e-02
9.325641513851946895e-02
4.873059646014775426e-02
1.038113320764834022e-02
5.267381251443072759e-02
3.393071026047408956e-02
1.062828801916311239e-01
8.987689737420022362e-02
4.629539339440145312e-02
2.606883637108187504e-02
2.908053022475213384e-03
1.098095700658436591e-01
8.235688991450029750e-02
7.254932054478151204e-02
2.855173403491655451e-02
6.009936719686339440e-02
1.118627143412966596e-01
4.893331351568601384e-02
8.254259835288212110e-02
1.141639886050639097e-01
5.658145674721034440e-02
5.699968025050679982e-02
6.929500849417224995e-02
6.401118002237630999e-03
3.950154109762163412e-02
2.746030874315380163e-02
1.052187364824172661e-01
8.858358148020237244e-02
1.054004711180656917e-01
9.533088872878368869e-02
5.271689792575022515e-02
3.976000762621787615e-02
5.848508129367299690e-02
5.987990210886162679e-02
8.733968996079724545e-02
5.554879755638282568e-02
4.869217895670431562e-02
4.367850634229004242e-02
7.417327536603410265e-02
1.252795460995596577e-01
9.601128421969859494e-02
1.138583455834167035e-01
9.985304343077541778e-02
5.920742283699235997e-02
6.703426294016309739e-02
1.029854743847030130e-01
6.609816959829284411e-02
9.995150788169254730e-02
1.544028922157559824e-01
1.051050469668972226e-01
1.447397083284899522e-01
1.368066622430116897e-01
1.001132002399410803e-01
1.116420908415896862e-01
1.099471357348465878e-01
1.509690389492603924e-01
8.434209074282808527e-02
1.599824386483821304e-01
1.425532991681819073e-01
1.328268529855504698e-01
1.708406284675087761e-01
1.319424934085531853e-01
1.465379000456350500e-01
2.008820635852059111e-01
1.790056092036773627e-01
1.905338522623508668e-01
1.131460844645739428e-01
1.989131402872090504e-01
1.727291523265016004e-01
1.925545617637904883e-01
2.152752114186569643e-01
2.319723294020883397e-01
1.749288075233505213e-01
2.079337043514389860e-01
2.032060447357464938e-01
1.270543142328828257e-01
1.591429710563777578e-01
2.016750741277583137e-01
1.676130539266362518e-01
2.021295113080638639e-01
2.385999881170280668e-01
2.766691573459496012e-01
2.502168713569487557e-01
1.795721447311257324e-01
2.537955009609369483e-01
2.373444302740043144e-01
2.771508936773022791e-01
2.791255828784384718e-01
3.109071478865583771e-01
3.219081130061194340e-01
3.206055026001351504e-01
3.855336065341047891e-01
4.405142483283028265e-01
5.309309913472838316e-01
5.142863778672606134e-01
5.965052718378760499e-01
6.567847611247429329e-01
7.199935652396590724e-01
8.260614405420392270e-01
8.715209610959249176e-01
9.241451696022654483e-01
1.003206097432565391e+00
1.041192866867637346e+00
1.153334367367545354e+00
1.212681282074458577e+00
1.264849534178363433e+00
1.283755653559199628e+00
1.281139842759788650e+00
1.349244846328805592e+00
1.298758977223205324e+00
1.354884866976082014e+00
1.310885643292919234e+00
1.257438651477022162e+00
1.204122532467685414e+00
1.221233071789630920e+00
1.131143917056801840e+00
1.067173238937796587e+00
9.605375546467588288e-01
9.332332060247181538e-01
8.500804495092850743e-01
7.107088799433756154e-01
6.524333235138067844e-01
6.180353361165571435e-01
5.738635894144039629e-01
5.186836301166046770e-01
5.286019651673676822e-01
4.464871619625594423e-01
3.661798368469365572e-01
2.572132852319677920e-01
3.164822664838061184e-01
2.718256636359030476e-01
2.685357580781564946e-01
2.010861443010206751e-01
1.889094163913912494e-01
2.755113921259174092e-01
1.512448334507712766e-01
2.098890467583330033e-01
2.327775063745441131e-01
1.936385278964278533e-01
1.634349081133212311e-01
2.093552632410341230e-01
2.004580339684929324e-01
2.685144099423343311e-01
1.831298909904705285e-01
2.393662121453841163e-01
2.123992298416208790e-01
1.876849932751439298e-01
2.061099465877269388e-01
2.446091085412959165e-01
1.995074069693844321e-01
2.076608090158957309e-01
2.788309828491316589e-01
2.827536203508379531e-01
2.968768058921381625e-01
2.470743763271104065e-01
2.621416838268141314e-01
2.611159055105524152e-01
1.819999099511734608e-01
2.734550261318299258e-01
2.190546385848933519e-01
2.537253174170010506e-01
2.781076572357443766e-01
3.374788588894914731e-01
2.803634725378668646e-01
2.834436016444590312e-01
2.929628501036037891e-01
2.920558838272495628e-01
3.142837448230564323e-01
2.877034081542541588e-01
3.336556387412549229e-01
3.134814278014761979e-01
3.396421557113513678e-01
2.899005145868696065e-01
2.457948938223751822e-01
3.009347695054701566e-01
2.799275937440227624e-01
2.546981094460182837e-01
2.473656192377540475e-01
3.000966832639506698e-01
2.517075052525355461e-01
3.175318739572551840e-01
2.943025703426285777e-01
2.691343756780638641e-01
2.380601946758945098e-01
2.884240930680031512e-01
3.090040170171334810e-01
3.160332019143218263e-01
2.518578832002552614e-01
3.058104851678913327e-01
2.632022235192692516e-01
2.747605024073475621e-01
2.309136074370295444e-01
2.542298336310341300e-01
3.001968103705771052e-01
2.434597197096223797e-01
2.567105225139830749e-01
2.662317052667090844e-01
2.295380927839969221e-01
1.821374468964802318e-01
1.664771980702969001e-01
2.518268845071779949e-01
1.496304484083275932e-01
2.208066796097782336e-01
2.238947121360396197e-01
2.341438938399603154e-01
2.017079384165404998e-01
1.607349150529810977e-01
1.851816668418821699e-01
1.526773443737567126e-01
1.598447061346026377e-01
1.762383160526828918e-01
1.367770808721349429e-01
1.516856145611150952e-01
1.334109312949165738e-01
1.227831435492040546e-01
1.126684364967685953e-01
1.005179397642507744e-01
6.913532040804257206e-02
1.416520939419241842e-01
1.700893962832263628e-01
1.297098225502853475e-01
1.170727560208571494e-01
7.475366039347253189e-02
8.754399792352876575e-02
3.948732982627970595e-02
8.195992291402828811e-02
9.369806585582904357e-02
6.030322408288318198e-02
9.618526998354279267e-02
1.023161370675872983e-01
3.259700966057807459e-02
5.850878716166306448e-02
1.934733171334249158e-02
9.397479742549762205e-02
1.141103123949840648e-01
7.518083524157070929e-02
4.716383841906759966e-02
7.003029227865532891e-02
3.087712925556767088e-02
6.442647159400761991e-02
1.014085183957840752e-01
7.089248524569244370e-02
4.512009547018479977e-02
1.250640501252375525e-01
1.057101059953931971e-01
8.233605330824309010e-02
9.919193887773430918e-03
7.149288405339854213e-02
6.538464524265152900e-02
9.613845006601898224e-02
8.169152566122261927e-02
8.174097819130377029e-02
9.915986525334896662e-02
5.960655273939753640e-02
4.406918629984575564e-02
1.179911717326654619e-01
5.500068993093809588e-02
8.391843951966018733e-02
5.089567049738551174e-02
7.691919434056017357e-02
9.157672726470822422e-02
1.263524017164341928e-01
1.464224569064724868e-01
1.027000992350133035e-01
1.504903774848262987e-01
8.738032510296023236e-02
1.264825135519938304e-01
1.029950829968801773e-01
1.414645205404346795e-01
1.286445171281513922e-01
8.726730855038583590e-02
1.983495102016652190e-01
7.724737102857673343e-02
1.578075563779175461e-01
7.788266273648170035e-02
1.280042715083311577e-01
1.681455251684819963e-01
8.069931945806807505e-02
1.193249452627763441e-01
1.819113829440824892e-01
1.535086172607106059e-01
1.912511197029174992e-01
1.262165058036369414e-01
1.359865321121455084e-01
1.866746441619239194e-01
1.918167736423496417e-01
1.975706478750953177e-01
2.173441351709878289e-01
1.732925602836985490e-01
1.901489817411733396e-01
1.718597212173825495e-01
1.534969752328207426e-01
1.534933085449535772e-01
1.940337358372192511e-01
2.080399576881590273e-01
1.282333866806494027e-01
1.427095569844427647e-01
2.131186830901488638e-01
2.182519220022796080e-01
1.036852328129206635e-01
1.782258081006103112e-01
1.933892510267449238e-01
2.037899934275756442e-01
1.562248628246387105e-01
2.071135816439665933e-01
2.241677060415058764e-01
2.428851857562283056e-01
1.953815067793666649e-01
2.578005273568713118e-01
3.033580384363702143e-01
2.832678824386307692e-01
3.638133168136906681e-01
3.800702422507065692e-01
3.791609246518839460e-01
4.248190742066643710e-01
4.861252319889682871e-01
5.709471421211174125e-01
6.187716260970078652e-01
6.494791071388938963e-01
7.884073505015166683e-01
8.069194781552176954e-01
9.279154970173771888e-01
9.842549066727278584e-01
1.067115993347341751e+00
1.132844307772795212e+00
1.137476775944566754e+00
1.282897206558439196e+00
1.260761652208949313e+00
1.312228803416856104e+00
1.294402793776056271e+00
1.349244256433077327e+00
1.262741527611558778e+00
1.339820785613537790e+00
1.256322088720951857e+00
1.222699642856386992e+00
1.191826154167107354e+00
1.209102083944823436e+00
1.033984681932730743e+00
1.005604347167376345e+00
9.557742658376837674e-01
8.705375457428090602e-01
8.215711909049313588e-01
7.366748435080702206e-01
6.619678532001520566e-01
5.776043368314238702e-01
5.464523595552068791e-01
4.929815126417472215e-01
3.941378055039603812e-01
3.817451162490626548e-01
3.468254129208134251e-01
2.551097716217793354e-01
2.673305857399075336e-01
2.860601747853128707e-01
2.412651348797476281e-01
2.367468026818089488e-01
2.060750205764397547e-01
2.096522197604224202e-01
2.419742630716170406e-01
1.794127923530612345e-01
2.391017262728132309e-01
1.686701351748613464e-01
2.036233301054961031e-01
1.062165717882034566e-01
1.878950175415654844e-01
2.236476895251388874e-01
1.998134372095514699e-01
2.249872880525619068e-01
2.417487293867492393e-01
2.028345223257033147e-01
2.021385735469310441e-01
2.291288193994404920e-01
1.989741945798404188e-01
2.615806805383361078e-01
2.830489349158514245e-01
2.157440531157575614e-01
1.967088894106449881e-01
2.500649490805350039e-01
2.100808087797825796e-01
2.503778278552507008e-01
2.234317901470411205e-01
2.424247959326914503e-01
2.752088854025261933e-01
2.208853816085321331e-01
2.663043960316154868e-01
3.061077694961514828e-01
2.746523887353021220e-01
3.270315801832278657e-01
3.452592078276312537e-01
2.926187509741047799e-01
2.488013339776272426e-01
3.033357365720087406e-01
2.623927134088470670e-01
2.698754422352786508e-01
2.333924109595482965e-01
2.157655763725990217e-01
2.926802273916109254e-01
2.823902179157516401e-01
2.951103322630103665e-01
3.439556559406155012e-01
3.315400991452508439e-01
3.087417219384268607e-01
2.844650656257713961e-01
2.822885082447049720e-01
2.431336836577228655e-01
2.141959348210083769e-01
2.764879210075167904e-01
2.057077586185071527e-01
2.332914034094216438e-01
2.475621512293221249e-01
2.239681791974665326e-01
2.430298646063463186e-01
2.206591933108081327e-01
2.646091815456637075e-01
2.483953477543787980e-01
2.500806942897518814e-01
2.407076746651443666e-01
1.878783812059734437e-01
2.609772473889878097e-01
1.924615509947882608e-01
2.003380006394512580e-01
2.271044349647549643e-01
1.666432815857607774e-01
1.777568904751893886e-01
1.849739476529302928e-01
1.381812456457314209e-01
2.057232243065767741e-01
2.128125906916299992e-01
1.967878136105599141e-01
2.067320459241284714e-01
1.214285475006600945e-01
1.336089119805650427e-01
1.245233566898313049e-01
8.750598252118106657e-02
1.211932542837823867e-01
1.198988592894951605e-01
5.672402303451019173e-02
1.227735262581891029e-01
9.578372098829326942e-02
8.446172332846463293e-02
1.299243888425331006e-01
9.219627438338731662e-02
9.447602803723187392e-02
6.787679564105064678e-02
7.799725422900596894e-02
2.231959210261421148e-02
9.759110715709182204e-02
2.948618027073564643e-02
8.419488289922945345e-02
1.055347582493947611e-01
4.795094247349286631e-03
9.205663287062523792e-02
6.299053516822705756e-02
5.488847373655020290e-02
3.162216035751441723e-02
7.304828132599477941e-02
3.880654565861064997e-02
4.179501771368558660e-02
4.486711874883627521e-02
5.606810148499416502e-02
5.959853628976692630e-02
5.031981779433437885e-02
4.000699553447653600e-02
6.248341107653947180e-02
1.685661697540392218e-02
2.210916866470677422e-02
8.857453097009235221e-02
3.106475332227799299e-02
2.581940006510917429e-02
6.081546862364443917e-02
1.315632200758791101e-02
9.273315934526002446e-03
4.386595848239521755e-02
6.814688983949915291e-02
6.154547288122674820e-02
4.231179455355284919e-02
7.301141261721977305e-02
5.632713618869145816e-02
5.124150505188843074e-02
6.206010071795604183e-02
6.704824764920768940e-03
6.932938775801562870e-02
3.988539549881076063e-02
8.716319255113319509e-02
4.079497858716595732e-02
7.685957426624064059e-02
6.242872132407517594e-02
9.312184668417843036e-02
1.163464745297953240e-01
4.565971373293514768e-02
6.047104418059443681e-02
8.139523452679664484e-02
1.162505470008238229e-01
8.518487922869022455e-02
9.623955867998641722e-02
6.022083119522825267e-02
6.755000742263790603e-02
5.597961022084180227e-02
7.236055442741175237e-02
1.314199783229322016e-01
7.697633879043726257e-02
1.484234871376579612e-01
1.661052274635912984e-01
1.440549303490541999e-01
1.761054327763127147e-01
1.576631404801299430e-01
1.336213510863864529e-01
8.312864224490909559e-02
1.495788183507348879e-01
1.540623757420686024e-01
1.582887702817700748e-01
1.686703823059485519e-01
1.322415092026917038e-01
1.209616023889554803e-01
1.554176868613005025e-01
1.138991875890116856e-01
1.444650831664402724e-01
1.346381073211130597e-01
1.404043752850647753e-01
1.250219475314509054e-01
1.941885835513978142e-01
2.011397026444712854e-01
1.081349441402542771e-01
1.455310681668142703e-01
1.775301070966960604e-01
1.919239228502218619e-01
2.226519782081257393e-01
1.646487476009896589e-01
2.210072146921588376e-01
1.819991477023888415e-01
2.464160313419640203e-01
1.673257572977257246e-01
2.624424256329416782e-01
3.155847584047044019e-01
2.819589332790842229e-01
3.373171463995808250e-01
4.122439688506519540e-01
3.676215091915628341e-01
4.679373852864269212e-01
5.018993265441668017e-01
5.297852546142490793e-01
6.456604932734145708e-01
7.092943509878496533e-01
8.350130077410631291e-01
8.681380398113307528e-01
9.458866712559178547e-01
1.008006548988864326e+00
1.142210813202483966e+00
1.094733228985877993e+00
1.131141682472609045e+00
1.215407633180558555e+00
1.303920193239303194e+00
1.261562500271968146e+00
1.273361782747050253e+00
1.244104967273002460e+00
1.317327684897655171e+00
1.281135129815594631e+00
1.189103904468839401e+00
1.187071360436477763e+00
1.100098664594310938e+00
1.015150747593968505e+00
9.927075768840549763e-01
9.218810035066939967e-01
8.394880810971676599e-01
7.446898389700364884e-01
6.717675204527197019e-01
5.527211806440294195e-01
5.386742670051911652e-01
5.006691200574113765e-01
3.828339676921874157e-01
3.192569228183879115e-01
2.950170796930032258e-01
3.046586274095637314e-01
2.144024741198719830e-01
2.023084542368751293e-01
2.143432407134074902e-01
1.900889591866322670e-01
1.770233509004331962e-01
1.601241480141957774e-01
1.394525441810758881e-01
1.906683646332764659e-01
1.571877228878174881e-01
1.076128813061369982e-01
1.361222207614984914e-01
1.565422278591701577e-01
1.596111991335118219e-01
1.843238604018108961e-01
1.133176860122928620e-01
1.315872816043409665e-01
2.031018108060186622e-01
1.155778452341982565e-01
1.546994576086603013e-01
1.703830577738245644e-01
1.596593300402388560e-01
2.141360891430358626e-01
2.035691580191459904e-01
2.005468311182531382e-01
1.314223715203374776e-01
2.319478544863457503e-01
1.462589552021145156e-01
2.080990344368825185e-01
1.748299011464439501e-01
1.896372235307541287e-01
2.126981811665276390e-01
1.828197796831719513e-01
2.369412996588250164e-01
2.150222087079007027e-01
2.122840082104964221e-01
1.842823181746678918e-01
2.240746517429741125e-01
2.338157234227065673e-01
2.740721476754053310e-01
2.172438868861314432e-01
2.270572964470084498e-01
1.803312517468423359e-01
2.169776984551659293e-01
2.000586999721094550e-01
2.309360775263094578e-01
2.576527615088846090e-01
1.780894962615769406e-01
2.189290999474905464e-01
2.000205527812735640e-01
2.326313657361105125e-01
2.357505495533573914e-01
2.074858564720295506e-01
2.342503961289617020e-01
2.675199223874559218e-01
1.647012719803940539e-01
2.307490018042653857e-01
1.795992099235004247e-01
2.235098127487025743e-01
2.437605442450601900e-01
2.081131110985990074e-01
2.480151768516889454e-01
1.575822080629642741e-01
1.568342978426383039e-01
2.147991205488700150e-01
1.756152925191354630e-01
1.407097283080411820e-01
1.496818866407597093e-01
1.002917849240992781e-01
1.425388499239072237e-01
1.418276450722376347e-01
1.877739050447531088e-01
1.212217422957358320e-01
1.404796616786402053e-01
1.242727051023936324e-01
1.091752618533641112e-01
8.881105011731896259e-02
9.936152238459704245e-02
2.682495456625360111e-02
8.558091815960847115e-02
1.033445118625955783e-01
9.365192087635000606e-02
7.400653027586079347e-02
3.419828303351031551e-03
6.369979848727265470e-02
7.844944498999587013e-02
9.801287613170067692e-02
5.665265666339894951e-02
8.295440152457357608e-02
4.740503052872034606e-02
2.271983893109642480e-02
6.927230043487152267e-02
-1.272534441571202685e-02
8.261038269368228826e-02
2.658228447542584222e-02
9.096760833030938243e-02
-6.027123193038025351e-03
1.500527094784329107e-02
1.311754881391347105e-02
1.907701934038438102e-02
3.411868783968454583e-02
1.622108495514543863e-02
2.516844680716515820e-02
3.728029011954785837e-02
-9.266984069431476873e-03
-4.690817240829495138e-04
4.053829632412082884e-03
9.138897342122767609e-03
1.308173076040052007e-02
1.806599218796912237e-02
-1.164487764968532429e-02
-1.316403334133323458e-02
5.743093122561104824e-03
-4.542808511292505819e-02
-2.688531468415744641e-02
7.219198270131600703e-03
-4.934832840109416863e-02
1.187265725311975606e-02
-2.673248539375279453e-02
-4.539382600991194450e-02
-2.490448108901633512e-02
-7.468187161100539595e-02
1.324680862731692638e-02
-5.976854814278338701e-02
2.725043573382521928e-02
-8.156620538523295244e-03
-2.201050550954548879e-02
3.211235716418631841e-02
3.687123128356922797e-03
-4.653666383924785765e-02
-4.860238139767519838e-03
-2.727711644059761797e-02
1.153124086599544018e-02
-8.654677564802773504e-03
2.006695938671441970e-03
3.215170544553070525e-02
1.434223881904583137e-02
2.494647745370843356e-02
2.936434046559736888e-03
1.921440451583364406e-03
4.045010484951675617e-02
-7.527434233321091128e-03
6.091579855070292093e-03
4.088648946587053468e-02
4.036758052871639024e-03
7.829328423867061570e-02
5.577532089115634639e-02
3.541933243776117929e-02
8.895873505291540528e-02
5.101426372148537558e-02
1.224202743292562429e-01
7.278576535288588945e-02
3.620933659446198827e-02
6.683239497137591356e-02
7.797838841922498376e-02
5.976099260994789664e-02
6.590192827172600132e-02
8.269106106997821393e-02
1.062772399319217714e-01
1.425742305120269449e-01
6.281258137706680067e-02
8.052842732476379883e-02
6.347598889158173607e-02
1.300670380978996288e-01
1.447237669823162876e-01
9.485880555202357012e-02
8.573212867494293954e-02
8.962977273770414421e-02
1.106158728508726263e-01
1.481098278581615135e-01
1.119219017373089542e-01
1.351693781207602973e-01
1.452761482450489472e-01
8.022376335567582561e-02
1.629476785018468543e-01
1.133952795584708961e-01
1.360165570423893522e-01
1.412358315030563805e-01
1.030478647028643668e-01
1.610943704889819805e-01
1.987985714185550035e-01
2.172055941314999794e-01
2.234849276136750273e-01
2.448911749596139331e-01
2.494545300581965386e-01
3.341396950948034572e-01
3.661389140478123472e-01
4.085655657590456791e-01
4.535761700131437091e-01
5.775758330418766517e-01
5.708731669332876013e-01
6.717940802747245366e-01
7.056984229248530749e-01
7.918572318033682000e-01
8.786586454822555847e-01
9.125873817685555833e-01
9.575548662896439245e-01
1.045957374412638252e+00
1.076621970796267647e+00
1.094035904739522946e+00
1.168838611823072027e+00
1.206382441507640957e+00
1.218841027408217759e+00
1.281964045455768808e+00
1.291193179566874516e+00
1.209466255935935042e+00
1.163797083721587633e+00
1.178093728697821030e+00
1.101624472778741648e+00
1.033251848212619617e+00
1.004965544762954410e+00
8.811468639656636626e-01
7.850444148625155272e-01
8.417931507455905793e-01
6.156155900348201371e-01
6.426113000148171439e-01
5.567856234099014534e-01
4.921782390307112842e-01
4.235432653063757602e-01
4.061980162726874788e-01
2.987819139217302022e-01
2.978811377509002489e-01
2.538965561411389849e-01
2.357319916430774542e-01
1.845538118721950505e-01
1.371996934769585952e-01
1.221525212464099897e-01
1.228560256210211588e-01
1.547265113503834277e-01
1.437703085694706506e-01
9.034620494638637145e-02
8.657870075164283974e-02
4.209682386645564184e-02
1.183954135238693695e-01
7.612681359436997142e-02
1.255296887286603547e-01
1.760644886507075901e-01
1.019477570989936466e-01
1.411360280130709022e-01
1.067107915953684621e-01
9.841593170067522434e-02
1.723792290621510570e-01
1.173968530118995046e-01
1.148839341576910755e-01
1.031679530805430511e-01
1.320033125707293920e-01
1.800293879835172806e-01
1.330011012127493009e-01
2.170778964965918156e-01
1.416012442392622639e-01
1.617946993735121519e-01
1.356478758320093514e-01
2.378133430049987895e-01
1.987099244347410587e-01
1.612532817259497153e-01
1.957438924289258697e-01
1.977782022488048519e-01
1.813611089525650755e-01
1.529939549842788959e-01
2.054575916160856219e-01
1.716630170269722033e-01
1.706448157554358580e-01
2.653479628619986319e-01
1.512282110853373496e-01
2.347457040262559136e-01
1.476688664258010431e-01
2.157620614757057020e-01
2.113264193081622055e-01
1.573365118508162908e-01
1.846948633846864363e-01
1.939950555422731426e-01
2.038793122255433965e-01
2.467045980026830454e-01
1.517550855858657288e-01
1.773439896566511298e-01
2.351609090096007382e-01
2.140732837934839761e-01
1.987223670957377619e-01
1.881637721021934551e-01
1.166007044850338598e-01
1.664948156483054553e-01
1.225753568667714843e-01
1.589093518510151515e-01
1.749299915315640774e-01
1.564603593521082248e-01
1.773486530709588727e-01
1.688660376075829528e-01
1.409451649846280574e-01
1.873279266898492945e-01
1.563605292577737449e-01
1.458040067061761869e-01
1.455389478819431592e-01
1.445422575485081906e-01
1.357617823433484860e-01
1.068095409890393588e-01
9.887677059632100918e-02
1.140130397237710258e-01
8.999493580284398386e-02
6.615331182741905625e-02
7.053682191554452863e-02
1.010560921670458356e-01
7.273999271059954086e-02
3.473386455385434057e-02
9.229989425764506539e-02
1.007295010927660717e-01
4.065349095382143202e-02
5.827759708101504232e-02
4.165450838671862221e-02
4.003954138672356777e-02
7.999065757922255160e-02
6.605432046675706326e-03
2.717149086303506655e-02
2.025094551768149426e-02
5.425434602130848466e-02
4.839227269831480188e-02
6.052452053584179287e-02
3.509313389152713542e-02
-4.051627456589465548e-02
-1.082933237025032747e-02
-2.379437690172153674e-03
2.867499557026417789e-02
-4.726507562199085827e-02
-1.045327822396992234e-02
1.272605309407323637e-02
-1.067444528152339950e-02
-1.250700764808525961e-02
-3.497118387899969538e-02
-1.403878537209409666e-02
-2.422041218527385548e-02
3.576508574723361034e-02
-3.100858190732046910e-02
-2.349983759206899364e-02
-2.423753783149460231e-02
-6.319751754227338758e-02
-6.215605383654278226e-02
7.505433623172103053e-05
-1.028285271911442283e-02
-7.717163556287411075e-03
-3.492876238223287938e-02
-3.437039593612033206e-02
6.193948409088084750e-02
-5.197165319261325828e-02
9.107794584366939172e-03
-2.225739116794392750e-02
3.068462569118697580e-02
-7.436524179622615305e-03
7.376417108733199224e-03
-4.529404913976266961e-02
3.205884134162672455e-02
-7.412270039089091656e-02
-2.200898152209195685e-02
-2.055628096514268421e-02
-9.407711382362043961e-03
-2.290123813378749928e-02
-2.632859875056401538e-02
2.093083828770239685e-02
3.235748361030089948e-02
-8.453681952831890167e-02
3.370534737041551432e-02
3.025367450922452489e-02
7.163143397842944293e-02
5.375895893918229002e-02
2.955212908911659941e-02
4.950105574214615223e-02
2.853886963482794165e-02
3.840296521118548995e-02
3.422090262045360265e-02
7.593512533549051646e-02
5.995693711473245452e-02
2.879867127446258945e-02
4.014416885722508349e-02
5.897596593890503530e-02
7.553884100368490895e-02
9.902946249527451450e-02
8.798379061417974101e-02
6.562144969823828500e-02
5.914910633975255239e-02
9.993224484815944886e-02
8.606529864254711115e-02
1.014337308284226635e-01
8.303778744196024797e-02
8.798504303558854489e-02
1.374752519340111112e-01
9.469967664426300058e-02
9.339643906820527253e-02
1.513196823888481035e-01
1.435413112797878643e-01
1.221319130023515442e-01
1.138398113946181706e-01
1.184240895573492325e-01
1.037192511205810019e-01
1.502675334574850308e-01
9.154456831464287403e-02
1.092354720805561175e-01
1.512773570604102336e-01
1.191827086417653059e-01
2.325302914261623971e-02
1.199106382217597633e-01
1.461578068392777874e-01
1.386786966454694736e-01
1.024540159653386517e-01
1.657838637070427334e-01
1.507165693686615682e-01
1.849992475153690030e-01
1.944272643965812564e-01
2.145633676656681921e-01
3.130301714978284133e-01
3.100136869341603707e-01
3.674450874023889035e-01
4.096111476796542861e-01
4.612664171956235015e-01
5.248401144167191834e-01
5.408417085471324270e-01
6.598591768389552303e-01
7.559123513460105359e-01
8.193892111610486806e-01
8.953538719486507924e-01
9.685479274045266651e-01
1.016695517074941879e+00
1.064822044841742477e+00
1.128193536726590285e+00
1.111898722532442152e+00
1.202630918078835043e+00
1.210048852703364153e+00
1.270592776025407211e+00
1.219354730589805813e+00
1.180051980523879829e+00
1.227629262470643079e+00
1.155684530581123859e+00
1.114021555857105605e+00
1.143268772656654608e+00
1.050798082078777229e+00
9.520755263016346115e-01
9.035756512518647865e-01
8.494466167205326768e-01
7.602198735290528475e-01
6.806057817027457713e-01
6.188093431482456497e-01
5.671205606822927736e-01
4.378371015325529525e-01
4.192731514338665089e-01
3.827193874072130630e-01
3.213015719787357671e-01
3.176199972999156906e-01
2.557538674281671920e-01
1.685746465774556890e-01
1.771975322881393922e-01
1.934572394081042757e-01
1.655866185836223081e-01
1.436463212707415060e-01
1.461509821242693574e-01
1.082215341014072241e-01
1.399343175951666407e-01
1.879306452705559460e-01
1.142391426018347506e-01
1.775470303915544501e-01
1.342282613787120216e-01
2.037502601360356991e-01
1.598785057490861861e-01
7.489134518331543033e-02
1.545392216800068053e-01
1.155057288210944166e-01
2.018952703817004368e-01
1.572607683304976245e-01
1.364172352172134395e-01
1.305834059809108938e-01
1.334026666237579650e-01
1.434819264009063455e-01
1.454580891310786328e-01
2.411307880317576924e-01
2.145995451451453429e-01
2.316043681662857123e-01
2.234558287488883355e-01
2.121563145000693040e-01
2.306663309998176481e-01
2.466202422971907615e-01
2.262853772706842348e-01
2.728124794852986312e-01
2.147368467069592779e-01
2.673782346993887615e-01
2.422126335150950327e-01
2.487314396609253686e-01
1.499242575128005850e-01
2.228427771259160750e-01
2.478792899559990048e-01
2.465738027664438614e-01
2.632285875313053469e-01
1.843423781741671819e-01
1.768755637186404939e-01
2.140856645096588240e-01
2.449150806704479544e-01
1.865594155637410323e-01
1.517475336852415757e-01
2.538961727403453161e-01
2.118711318585340397e-01
2.153367589071916999e-01
2.483494077093242325e-01
2.246178584069797590e-01
1.893464701412923834e-01
2.323322406727837686e-01
2.431864255194431945e-01
1.861412605611852400e-01
2.072760128147721204e-01
2.211878288158474759e-01
1.779664629766845307e-01
1.138728945017554728e-01
1.936560409707156483e-01
1.798550489792029028e-01
1.363712004519211374e-01
1.539542315224067814e-01
1.535164267289189921e-01
1.305469704057382885e-01
1.472328752383313399e-01
2.115868861595821826e-01
1.755398062885413779e-01
1.973205630162694346e-01
1.660718940550020006e-01
1.341141983016284622e-01
1.326937382061481596e-01
1.318818264484408476e-01
1.621168702346978685e-01
1.142166455679655690e-01
1.055200619286030816e-01
9.861389207431861537e-02
1.105467538545265860e-01
1.189940984920798694e-01
1.461035465586485449e-01
5.922555921139778523e-02
8.855040510385005226e-02
8.347608543152834626e-02
6.453924388779355703e-02
7.238755936544878644e-02
7.010698815258895045e-02
5.892392558399556224e-02
9.598489861618669794e-02
4.768428003345635824e-02
6.864317625116096722e-02
4.171734388847788549e-02
6.825136073868122433e-02
3.608557563031433019e-02
6.556108712226876856e-02
5.509381629510846923e-02
-3.332952650126496524e-02
-2.619746932469059486e-02
-8.664071147376922050e-03
9.476983918990145722e-03
-5.624200361642021223e-03
6.361780226386914983e-02
-2.187509840939018749e-02
4.138782710335662390e-02
-6.158926730535994876e-03
-2.139273659189643711e-02
2.361221594938550314e-02
6.341694647541029628e-03
-4.116018875765410645e-04
-1.467386220489350773e-02
1.089018950031814432e-02
-1.312841231748809387e-02
2.762328160478164790e-02
4.731797824521877943e-02
4.727863965917887545e-02
1.248425378517412088e-02
1.950993469949056924e-02
-3.604960677326644880e-02
-2.230820324889939976e-02
3.729690953376103846e-02
5.269998563100394828e-02
2.333209581020932386e-02
2.597289899356732684e-02
5.408557376528996818e-02
2.789257969032924236e-02
2.019804193180078922e-02
6.985126582775580406e-02
6.505986489248039017e-02
5.073674204303210700e-02
-1.635358608115701148e-02
7.037485656169344128e-02
5.003172854471358427e-02
7.954923040737716181e-03
6.415422120010823293e-02
1.126222137585320832e-01
7.304841109626167284e-02
1.112147995983771842e-01
1.010068291624853232e-01
8.770830885106266350e-02
9.251473251944763998e-02
5.760858939517828070e-02
8.847036756373380384e-02
1.306295860172797252e-01
4.972011408621925671e-02
1.305102724200951636e-01
1.028057477263088215e-01
1.105773593125912030e-01
1.166681695413277625e-01
8.574060265051847152e-02
7.626595081062367831e-02
1.267107791172996933e-01
1.507954950146924433e-01
1.446206353237084186e-01
1.142746129285140688e-01
1.324618668060928983e-01
1.713731204681926690e-01
1.531227068872836050e-01
1.360121537754232501e-01
1.281131494104579549e-01
1.726288516902675096e-01
1.367078029392023164e-01
1.282826698476312310e-01
1.572878091082209329e-01
1.733469740689667082e-01
1.147702574182779683e-01
1.504299866302613031e-01
1.128120070273836012e-01
1.625863613888163250e-01
9.967740074583734955e-02
1.605554871111106452e-01
1.534979793710145313e-01
1.608986618132447755e-01
1.966024620756887109e-01
2.519915940515305985e-01
2.022913865151363955e-01
1.888476602941806526e-01
2.447822147290031336e-01
2.068866662519946442e-01
2.351367185895601175e-01
2.525898762646351936e-01
2.588584420759647009e-01
2.815536628140568598e-01
2.876805129000784556e-01
3.466435142968791183e-01
3.796327713996163755e-01
4.574153332649580905e-01
5.194831271483361101e-01
5.999247291225702217e-01
6.498856683260973988e-01
7.058629798515394516e-01
7.983543273939519569e-01
8.595154408113311328e-01
8.693193561301634231e-01
1.013234382885256135e+00
1.060695724978446330e+00
1.137737382901936600e+00
1.187329798620120336e+00
1.260669932881955724e+00
1.271976897459005995e+00
1.292761350831967304e+00
1.289604353752397792e+00
1.280625311715801518e+00
1.237517460426550642e+00
1.245803112172235938e+00
1.226999187887770626e+00
1.192394379793675574e+00
1.093715611711264080e+00
1.060670922942932748e+00
1.004590411992313248e+00
9.452474186574697512e-01
8.874726809239318337e-01
8.048326339073057500e-01
7.259315367987759782e-01
6.320034560338314567e-01
6.317135932792992126e-01
5.191120575316385821e-01
4.761552170646669024e-01
4.668168382436148622e-01
3.527418919706813982e-01
3.447638963472247631e-01
3.024801257506946062e-01
2.540876766445611112e-01
2.229896790963365460e-01
2.258099390727575928e-01
2.504307606070637071e-01
1.530231668753502527e-01
2.062170432275630128e-01
1.920385088310989086e-01
1.292483962321766822e-01
2.335128048482088547e-01
2.114823912761106262e-01
1.948527852416148398e-01
1.824384007352835291e-01
1.872100074402783254e-01
1.588258821656829967e-01
2.387416692299065835e-01
1.767557731428946455e-01
1.730267319419134808e-01
2.529911309821948895e-01
1.832207015672569772e-01
2.817512961610042499e-01
2.182565928655858800e-01
2.689031054616101701e-01
2.580512483860097350e-01
2.219741652400974985e-01
2.471170178963565667e-01
1.922604551649084170e-01
2.387739016248143220e-01
2.381038406394158924e-01
2.794161256990145836e-01
2.558670562504767876e-01
2.485073699260398616e-01
2.376642627825114040e-01
2.453697520183978353e-01
2.656172044572236435e-01
2.786248491286912876e-01
2.932235856502273808e-01
3.379058350670035016e-01
2.828280690631823080e-01
2.859699086131013424e-01
3.030768874635218491e-01
2.601252190472603254e-01
3.225666851548213421e-01
2.552130012013485438e-01
2.559037565921556956e-01
3.058057042105435941e-01
2.548261649928657002e-01
2.917992296928477169e-01
2.561990011979377591e-01
2.609932476226637932e-01
2.426638277223488183e-01
2.774599023011929955e-01
2.458458649986547395e-01
3.086379336849390254e-01
3.075743598258274814e-01
2.583564008832770487e-01
2.318278773355549049e-01
1.971442308219441553e-01
2.825667210605993240e-01
2.490375941882873034e-01
1.624234592686160661e-01
2.625143222162165113e-01
1.884064300031270123e-01
2.243559147058559744e-01
1.983791353342945207e-01
2.388554315839425679e-01
2.213200479562361378e-01
2.134449381597698925e-01
2.026330419953255579e-01
2.100774094024640548e-01
1.939316963750092881e-01
1.985795266552748128e-01
2.060566582179312878e-01
1.941877251772692325e-01
1.804023355300183040e-01
1.902729830621182061e-01
2.154430931835869811e-01
1.544688871721399681e-01
1.213558408686215839e-01
1.907059140233577088e-01
1.053449619877892679e-01
2.058487180456086696e-01
1.005386525820332888e-01
9.414267827185049398e-02
1.642800228434463661e-01
1.202534143561113378e-01
1.639151607167785574e-01
1.147284386643217524e-01
1.210528447007299946e-01
8.926099028339153085e-02
8.493773751157823737e-02
6.719721378905782472e-02
1.113424738920287538e-01
8.672145913354648017e-02
1.145308415228510346e-01
8.588414471133126726e-02
8.063660558347621188e-02
3.590695319010379916e-02
8.864899738340317747e-02
1.031807305678754255e-01
8.167276005847477760e-02
9.743604638155373143e-02
6.018532802873344939e-02
1.114575032992088377e-01
9.587309098319411749e-02
9.636651706544514806e-02
1.172649118907796717e-01
1.015804146824702964e-01
1.217117076205387477e-01
6.242931448405131256e-02
1.315064497992197642e-02
7.167993861504926012e-02
4.255812193323830345e-02
8.216160177467818349e-02
6.980907865922911237e-02
9.430406141298668110e-02
8.284480902592511464e-02
7.697819108407281952e-02
4.731656195728119879e-02
4.775615632386712162e-02
3.583985773218455184e-02
3.682877986595052555e-02
1.791317474815773761e-02
5.756006515790262901e-02
1.055852835189228373e-02
1.276691612772875017e-01
2.978888078897121497e-02
5.466857147568120190e-02
1.045501414909589255e-01
1.014948810938817170e-01
9.010603643170830845e-02
1.099380612291863679e-01
1.391247870865950920e-01
7.153651551817480359e-02
6.514098989562168429e-02
1.250311735622587350e-01
8.284480161492896455e-02
1.202416250610291171e-01
8.326128159569909370e-02
1.573305260373737968e-01
1.080802171665444789e-01
1.031445481439533934e-01
1.570355104237650401e-01
1.459402936351351932e-01
1.120099420840399429e-01
1.398689780506800484e-01
1.291215262358137994e-01
1.420531373539727082e-01
1.854301403563385353e-01
1.684796411387885773e-01
1.885743640256139220e-01
1.717541721605067573e-01
2.409145012076303882e-01
1.605676205890616548e-01
1.536452476149176571e-01
1.716818085684589101e-01
1.711374300105601431e-01
1.201189274818530994e-01
1.975830775034172759e-01
1.759394386851471648e-01
2.122650628487687541e-01
2.177962229782726411e-01
1.915645348525973624e-01
1.640167686171290218e-01
1.766489253175946295e-01
2.164082176032863236e-01
1.773943764481920593e-01
2.038484843950671699e-01
1.991386004811727672e-01
2.230492283308033730e-01
1.954138083070307008e-01
1.815791825194787434e-01
1.890262437578097421e-01
1.746429163620485947e-01
2.311994763876389913e-01
1.956970728568593887e-01
2.096489040830888939e-01
1.977784211526447400e-01
2.221725549657143362e-01
2.439472386349012811e-01
2.888347541442825017e-01
2.700087320347853703e-01
3.161743924964318664e-01
3.529340611786912496e-01
3.969434855387103944e-01
4.472413824870421495e-01
4.207147262180210845e-01
5.908611346340635340e-01
5.776009158740450511e-01
6.536148775476949835e-01
7.253480088822563676e-01
7.947950334732882816e-01
8.140406350010502834e-01
8.561692639622112688e-01
9.877902280425768788e-01
1.022700727360311479e+00
1.167006769674751920e+00
1.155543777360485747e+00
1.276575995305857081e+00
1.234018432956662803e+00
1.298710003867159291e+00
1.348013786565541050e+00
1.321092873400159018e+00
1.300761399072527746e+00
1.315092589948204660e+00
1.273039302742562384e+00
1.306254482663015581e+00
1.229163374651144114e+00
1.196850747357287803e+00
1.078124032855811265e+00
9.732218393016938141e-01
9.205602854165699789e-01
8.426750662791820945e-01
8.260594087298235300e-01
7.828476757692643950e-01
6.607329530422760833e-01
5.562012842295004367e-01
6.061572578386021926e-01
4.734993299558197255e-01
4.292374453086607033e-01
3.788295967635221251e-01
4.236435952336427002e-01
3.361095954893141835e-01
1.886607020655739764e-01
2.068038619531497591e-01
2.336736928581483186e-01
3.002388490526536335e-01
2.444580196845828612e-01
2.144920735447762017e-01
1.924037646558285353e-01
2.117870260011179839e-01
1.877484122068473205e-01
2.400186218175846820e-01
1.866654491949961969e-01
1.988753752829471311e-01
2.525918289572688380e-01
1.893426094444878305e-01
2.149277145956468849e-01
2.616319846042793884e-01
2.524954968205139760e-01
1.986253852771423800e-01
2.099404214887243825e-01
2.606787400518144615e-01
2.191003408493999161e-01
2.839283994089880081e-01
2.035149043705649641e-01
2.195745342324500748e-01
2.675318559055844814e-01
2.748894301662727635e-01
3.055506582310428820e-01
2.845546122548950341e-01
2.839505383309363085e-01
2.395053694916399745e-01
3.181441799420292593e-01
2.940455038055217463e-01
3.392594194547901565e-01
2.833705313813628668e-01
2.720898708017447376e-01
2.865449723118690395e-01
2.941644446894703391e-01
2.803625933430694550e-01
2.866783017576813863e-01
3.010302090987868606e-01
