1.447153953794687808e+00
1.497629675483071132e+00
1.487243329431019001e+00
1.453307311267382884e+00
1.476159893744525275e+00
1.329844532439431681e+00
1.295519241504845986e+00
1.204478714935590000e+00
1.114241504505075753e+00
1.014328767503107409e+00
9.497045912690172953e-01
9.356907140709865844e-01
8.232751326246843249e-01
6.738299453559922769e-01
6.642145981804572497e-01
6.322068127945894567e-01
5.385947034940303801e-01
4.843543875316256297e-01
4.390877407499316210e-01
3.724363194928044796e-01
3.855024573214693717e-01
3.118342964012358887e-01
2.994458594345141833e-01
2.679413684104849924e-01
1.754546684680075297e-01
2.509401580675980625e-01
2.463464305416094013e-01
2.233122665248152838e-01
1.881338647116648777e-01
1.424811414298106094e-01
2.193685359676889601e-01
2.072696973075438820e-01
1.503770518166742676e-01
2.077115740650261611e-01
2.038075540111980999e-01
2.069366379889634733e-01
1.995494583638220687e-01
2.196587853456877237e-01
2.097256523259320993e-01
2.294849704097544629e-01
2.653423827803752522e-01
2.035332222088663268e-01
2.491089810304234764e-01
2.721305885110808509e-01
2.795087434156817152e-01
2.634634445204993014e-01
3.300654009341100759e-01
2.487682036017481446e-01
2.913019541352041553e-01
2.499026008880041450e-01
2.887236009072926546e-01
2.581817347789912009e-01
2.783413442577081787e-01
2.611143913626334245e-01
3.267408712169627694e-01
3.447776835271546547e-01
3.118176892291725788e-01
2.772129240668784744e-01
3.235050907954736821e-01
2.515992976036017237e-01
3.031961700276515348e-01
3.219766330419556732e-01
3.016079212859658631e-01
3.189868939267917480e-01
2.682773845475107666e-01
2.578290149080368909e-01
2.726543587249047329e-01
2.610567235754602811e-01
3.384015741606814509e-01
3.080605727417578543e-01
3.231450320992548808e-01
3.321285095588872860e-01
2.716997272143314435e-01
3.003277775275189354e-01
2.750411151588463277e-01
2.892648497898874793e-01
3.115932368091546278e-01
2.284912990250959341e-01
2.837316362531219216e-01
3.108532804546338402e-01
3.140003293530509443e-01
2.466740295987237541e-01
2.198914721134172523e-01
2.322985769770627984e-01
2.177047840675361834e-01
2.385349113099574370e-01
2.150386754363853015e-01
2.907116825836462137e-01
1.487820176707372322e-01
2.334221750930166872e-01
2.458233634171816118e-01
2.159201326400899679e-01
1.637528543368549361e-01
1.918347650474619415e-01
2.078900450258845400e-01
1.835780935239062495e-01
1.343524371866472167e-01
1.538146513472029020e-01
1.737521172396466196e-01
1.416256148048726793e-01
1.212487639391818806e-01
1.269541115533047160e-01
1.673180550870439487e-01
1.377496836231479338e-01
1.670623777096482132e-01
1.178491580461726862e-01
1.450975468802110369e-01
8.530533776549113767e-02
9.998786807834832147e-02
1.176561670633376883e-01
1.334942470562194006e-01
1.409654280441202667e-01
7.566771341068637136e-02
9.103946409067334433e-02
8.111135501027186279e-02
8.600446281901880097e-02
1.090849261670468751e-01
1.055549646480401504e-01
4.915518726130597982e-02
6.509592687433490843e-02
7.608717293679873039e-02
3.078062300917523697e-02
5.329393703568649499e-02
9.973854016874127149e-02
9.707746094625935296e-02
9.280510303525024707e-02
6.046813514777305693e-02
5.584058613685237427e-02
3.345027051122131945e-02
6.192676685987072438e-02
1.069907759205146122e-02
3.648460314429626677e-02
5.717429029190267131e-02
6.958851787783705556e-02
6.875994774838994905e-02
9.500611990662849449e-02
5.294754505796809424e-02
5.790198125533354417e-02
5.693439106825605445e-02
1.829295363185600570e-02
1.258298450304271704e-02
-5.043933071734105211e-04
5.896751054016848015e-02
7.262721431454996490e-02
3.422440973846618828e-02
7.201445161714228882e-02
9.477164740086206629e-02
4.568467357082444530e-02
5.680595097762210222e-02
3.495464902400342855e-02
5.671037992686259188e-02
8.527454186297242500e-02
4.527770904822400744e-02
1.054247786515535301e-01
9.224864984456029871e-02
9.351320420519647347e-02
1.001351271059766623e-01
1.023045351106788292e-01
1.180773265653093790e-01
9.323294297983904244e-02
9.753070390788839972e-02
1.324369025302023217e-01
1.304782296831337174e-01
9.132625923043712068e-02
1.343978689760577105e-01
1.174837469258154798e-01
7.751127500716979701e-02
1.458659356004257945e-01
1.263935973646833355e-01
1.746273970566058487e-01
1.383855313667009534e-01
1.220403079358191034e-01
1.702840935623563812e-01
9.691468499289006278e-02
1.212216374843367167e-01
2.002125081623085667e-01
9.702190740206317887e-02
7.704056579038935648e-02
1.911274021790917155e-01
1.171276412781549481e-01
1.645229170979796707e-01
1.738421134894045927e-01
1.545993260266268210e-01
1.471740296447672236e-01
1.648724712724074781e-01
8.149146445581859077e-02
1.936297009237830380e-01
1.657421191069359256e-01
2.228365958661979174e-01
1.243828385688699467e-01
1.433066461686670068e-01
1.537061386863414203e-01
2.034065133325423935e-01
1.615597300059177233e-01
2.028067617455371341e-01
1.899790944024634387e-01
2.113336329026224147e-01
2.150959201243256014e-01
2.135439275183791119e-01
1.666937562462707245e-01
2.086470020068089126e-01
2.373085035700077949e-01
2.341782622269700520e-01
2.724480841024312094e-01
2.976418141294100428e-01
3.475720699660022617e-01
4.019304320856261215e-01
4.749162100222243943e-01
5.321363169562771667e-01
5.465363769368893898e-01
5.954001307399373610e-01
6.893639191263312149e-01
7.528300063667142661e-01
8.105953684215827515e-01
1.032388925288098225e+00
1.071208375654192357e+00
1.104910005613293444e+00
1.147936123784338625e+00
1.260976347603358860e+00
1.291468170066842447e+00
1.361493388538827620e+00
1.428748790715318018e+00
1.379689186095131914e+00
1.486529070921872808e+00
1.457669954369745557e+00
1.473082495978152995e+00
1.430231739795294388e+00
1.362039770903471059e+00
1.304515724737281168e+00
1.294297141877680302e+00
1.228929857622198085e+00
1.176686880634777221e+00
1.045862207998989879e+00
9.852375467524215891e-01
8.981215867621833437e-01
8.223184218333090545e-01
7.638467718706056786e-01
6.517898719442805078e-01
6.063155797126787983e-01
5.341526468108807046e-01
5.025648940969452694e-01
3.953555495241749540e-01
3.956306873439405791e-01
3.611623769072198620e-01
2.405088987927529454e-01
2.866174406846443423e-01
2.429992735548766603e-01
2.554617343848019084e-01
1.195614846134376852e-01
2.539268967053645021e-01
1.992529665909770209e-01
1.851826905497301334e-01
2.004853667322053223e-01
1.321224912841293120e-01
1.709137156033807559e-01
1.849295696677571155e-01
1.685007036772163957e-01
2.266732996404166589e-01
2.199038049880952805e-01
9.270311320684640477e-02
1.624090345741610875e-01
1.465857122607035490e-01
1.955572576041928745e-01
2.572505057588695410e-01
1.689308651864185884e-01
2.304077350127795853e-01
1.437163379998244728e-01
2.153810556796979248e-01
2.048200079718589806e-01
2.215278581275856584e-01
2.122071410924700197e-01
2.290793401410362584e-01
2.248921948311097818e-01
2.760581490032166796e-01
1.808468928951677268e-01
2.010509179002747393e-01
2.617494877061628533e-01
2.656167921637941909e-01
2.833382187529511209e-01
2.510561169810699433e-01
2.570926399963308073e-01
2.519894275677503348e-01
2.667048096188386341e-01
2.670679069956430896e-01
2.897525259023975841e-01
2.738432910779455831e-01
2.538500121525752995e-01
2.485187829713094987e-01
2.503485005338036418e-01
2.667765254263647079e-01
2.402276171204151267e-01
2.308430964575960975e-01
2.133757009842690566e-01
2.513833181006133177e-01
2.402239968468238285e-01
2.179841384225149892e-01
2.752349606647949143e-01
2.500577819909728938e-01
2.329278790371019647e-01
2.675925335964798313e-01
2.165160846134893124e-01
1.557773720075682211e-01
2.198105824244536988e-01
2.548226059837894741e-01
1.592011209661621240e-01
2.621878116045314733e-01
1.805197590160547705e-01
2.244386694383785907e-01
1.858999015033917512e-01
2.300218034372027709e-01
2.120700029007157317e-01
1.691930382708740910e-01
1.835995769147853174e-01
1.529610353364703745e-01
1.238315911217223453e-01
1.501756420101679756e-01
1.372137286646374077e-01
1.065228886794588326e-01
1.175623412834941456e-01
1.341568688388194153e-01
1.864312383677892981e-01
1.193615594616235648e-01
7.843451415872546018e-02
9.392785678840383234e-02
1.019120249979923593e-01
1.063255995572355561e-01
1.047739432861654052e-01
1.299146971376235749e-01
7.622096165611572105e-02
6.640578871474582534e-02
1.178676602754852171e-01
8.645466654424746600e-02
8.333005363827367118e-02
1.115363735062022410e-01
1.260400419244194492e-01
3.285870914076449711e-02
8.263381174467744270e-03
-1.027641846553708355e-02
1.865835472580495286e-03
3.605389990344336215e-02
2.892805555041613741e-02
3.573737497842618960e-02
1.694465204399581149e-02
4.390218101094247455e-02
4.160857716455639704e-02
-1.081561039553353802e-02
6.584265461791730112e-02
1.756753853423774145e-02
1.353498671870368916e-02
-1.235182278122963495e-04
7.837799476004894683e-04
1.078540257062429730e-02
-6.973750130035939396e-03
-2.047164662585986006e-02
2.217497120244642586e-02
-1.615682163196136348e-02
2.841979930255755793e-03
4.171794752266432676e-03
1.375533176626947407e-03
2.978916508845948219e-02
-3.525004250411840900e-02
-4.231410139502195938e-02
-2.141955075025479133e-02
-1.213315294790116503e-02
-5.319753003369946665e-03
1.425677077811427634e-03
-9.529908973043862627e-03
2.996305501296195675e-02
-3.678650155131668598e-02
-1.007963192434479897e-02
-1.683011283779568129e-02
5.002769333233809956e-02
-8.066270472440502035e-03
7.225147388646127600e-02
3.822382586624307327e-02
-1.259663599811472467e-04
-1.393707791917745201e-02
2.741386040230762294e-02
5.753082799592973418e-02
-3.535245221584260716e-02
4.611171560687334081e-03
-2.713207057404173894e-03
3.749094178999973909e-02
4.408608221486710887e-02
3.980187125700689055e-02
8.335656175012345903e-02
3.367650929605100346e-02
2.563553855878110410e-02
9.057847056770074179e-02
3.598746444978902226e-02
1.072490136088554841e-01
6.432585750688553372e-02
6.823231876543005281e-02
6.555478288124484687e-02
8.911242500865519667e-02
5.474154075577105510e-02
8.030241209227997889e-02
1.399404698235710287e-01
1.199009258645740567e-01
1.170609100491303151e-01
1.291804342992147470e-01
1.584242943879973220e-01
1.259355110708649250e-01
1.385486964492094741e-01
1.572432626946490553e-01
1.199475196946294536e-01
5.769829395201858668e-02
8.473664949056672335e-02
1.185291413582075654e-01
1.044145703932315983e-01
1.273908444563746079e-01
1.517361679947105413e-01
1.091638003541682000e-01
7.587342693879597921e-02
1.151643515040298715e-01
1.161054410786719615e-01
1.534166802848297151e-01
9.370660052742435520e-02
1.278313289860691926e-01
1.189794378905684458e-01
1.801448328903146046e-01
1.450624406105698316e-01
9.796744442981808465e-02
1.639638668346313222e-01
2.581244740472403154e-01
1.688777032482358109e-01
1.996057542801437934e-01
2.386981507343163555e-01
2.513139715175048416e-01
3.197586587356360255e-01
3.616233446953334152e-01
4.179421640908820845e-01
4.506581670415811258e-01
5.115711379720008223e-01
5.796651503201479816e-01
6.277704292409912457e-01
7.832488157558425979e-01
7.975989747249417894e-01
9.404536611555329717e-01
1.050122429805362190e+00
1.029874619568375671e+00
1.115260853919370465e+00
1.183143880987914009e+00
1.265250046993261268e+00
1.305474675294672426e+00
1.348906650231533000e+00
1.431962618028605139e+00
1.380391305616482489e+00
1.405183528614448951e+00
1.386395032335849153e+00
1.417200769594795906e+00
1.368221298870168523e+00
1.285819239460157526e+00
1.240801655432587136e+00
1.190610253796699380e+00
1.069142344120944665e+00
1.006355165642413452e+00
9.192275835563836761e-01
8.069051164202059034e-01
7.699663529090517988e-01
6.959191115431997421e-01
5.968939337976120196e-01
5.637080858589136323e-01
4.918400933816415854e-01
3.560229236571493816e-01
4.262576784453758760e-01
3.156121453908541374e-01
2.939188920937922944e-01
2.427060044407162998e-01
2.194360937234732245e-01
1.538424061847964985e-01
1.969774372353342018e-01
1.210544289641214549e-01
1.857958465917136648e-01
5.851598575579954747e-02
8.769490797213952415e-02
8.215340576142646234e-02
1.320751989796921100e-01
8.416776707922313250e-02
1.119315113387148036e-01
1.419118051007536851e-01
6.323228074192310810e-02
1.116201420182276194e-01
1.335427918763164856e-01
1.049074640207432740e-01
1.400179647144773609e-01
1.791938940813186942e-01
1.670210322535203851e-01
1.572754956393181691e-01
1.425591449155730051e-01
1.992160815895534509e-01
1.432721920704138063e-01
1.255517080747767245e-01
1.435789946018893593e-01
1.836181816884743800e-01
1.901458012175927803e-01
1.444781865914011032e-01
1.717280862672108943e-01
2.195626088496744066e-01
2.527338904374804018e-01
1.565265069530493991e-01
2.284798326595628704e-01
1.810331780181528294e-01
2.049541944256836334e-01
2.431794764562355549e-01
2.159251475852130286e-01
2.165215312801432035e-01
1.727347932020959209e-01
2.526745160115141942e-01
1.943567214457791181e-01
2.225517317462167299e-01
1.194809401614834593e-01
1.898397812308565691e-01
1.643509715913205049e-01
1.835157190803746730e-01
1.759392608786753132e-01
1.882492133356234165e-01
1.640163091834393183e-01
1.703741003090085415e-01
2.372274763215679871e-01
1.760089542754660619e-01
1.982021930161575185e-01
1.858090518073566566e-01
1.682063880879252071e-01
1.635140809742653689e-01
1.893756272019432030e-01
1.439651085752847726e-01
1.658915666154093804e-01
1.507738366333782887e-01
1.191767311342112057e-01
1.269138708641978086e-01
1.565213004041512423e-01
1.571400454828984772e-01
1.357937797210053699e-01
1.315754090466955406e-01
9.198966591473661802e-02
1.340385497566843886e-01
1.215958471357172221e-01
7.465028843235953226e-02
1.264335485174032381e-01
8.852114223342721910e-02
1.357086419675164468e-01
1.104860425168519011e-01
5.417116164580733362e-02
1.160656082264499983e-01
7.478655007308401825e-02
6.424319527781915951e-02
8.974640848499862433e-02
5.301071443588342702e-02
8.298831049150293127e-02
-4.800842119481223136e-03
1.137983342614980187e-02
7.025749564591614316e-02
2.129969850045709823e-02
2.841605883287969675e-02
2.547845052717082059e-02
6.624955307347765721e-02
-2.713797827072205598e-02
3.432789694755072896e-02
-4.455195236041570306e-03
6.198093792897704790e-02
3.374892994321926354e-02
3.737470254446213780e-03
-6.023824006243863605e-03
2.375050763508882584e-02
-5.752325936943143703e-02
3.293110914206198031e-02
-2.271683991291740048e-02
-2.895383923293493381e-02
-3.475086307589284051e-02
-2.126790996598339548e-02
-5.980062331343746762e-02
-1.710022525000498561e-02
3.272642811940604246e-03
-5.898330274860183464e-02
1.918589615410324495e-02
2.783602162101911359e-03
-6.294013744105282637e-02
-2.649752991318865547e-03
-5.435955017506256121e-02
-3.099870578362751150e-03
-2.013987084649802861e-02
-4.833370767146960567e-03
-3.039907286034132169e-02
-3.367086331535556337e-02
-1.405129112023369153e-02
-4.991550592525834107e-02
-6.903405602555016951e-02
-2.349960289867059765e-02
-1.800827743547030874e-02
-7.820197138780110580e-02
-8.279965619848610181e-03
-2.094687927934830995e-03
-4.171313100463971968e-02
-5.001057961270642671e-03
-5.637431713766190289e-03
-3.338501074835854843e-02
7.105713553038697783e-03
5.322799442446524837e-02
-5.296363884631507396e-02
-8.121517083287753402e-03
-4.722712983161325706e-02
2.318508925736236653e-02
-9.440573195782439586e-03
-3.760524120389854147e-02
-1.223208307345622498e-02
-2.007606656189761876e-02
2.288282495912928594e-02
-4.734570133265800229e-02
3.139931695796121386e-02
-1.540370714091143095e-02
7.558651710408639812e-02
-2.109891220876337209e-02
6.124021284740024940e-02
6.289895040029062911e-02
1.541274154530334478e-02
7.531040374239461599e-03
9.749871772184692809e-02
7.708247770371126628e-02
4.758443477264301391e-02
9.518214499767045644e-02
9.985521443512951345e-02
3.091691614647069236e-02
1.183395781506004218e-01
1.429808212194650374e-01
9.050215334923900068e-02
8.481420537326653242e-02
9.927654763502351265e-02
5.484456389110078239e-02
1.207568492044107933e-01
1.148862778747029578e-01
1.206308057019288282e-01
1.508902321037098315e-01
1.302434014245560656e-01
1.135577730903861438e-01
1.129517205573861011e-01
9.860018390791622234e-02
1.013723557589779056e-01
1.465494034961459524e-01
9.964377559314357979e-02
1.276828112759859635e-01
1.100661392632400759e-01
1.062892417535475365e-01
4.460746391785365417e-02
1.219020589850730585e-01
1.296098302897609744e-01
9.990999546509927998e-02
1.155813224510816029e-01
1.693015153405914852e-01
1.946198570988710574e-01
2.330229771926920490e-01
1.885416286294594734e-01
2.285443789326037645e-01
3.204042952429690949e-01
3.441892307156355080e-01
3.878866512902814367e-01
4.337645871654862706e-01
4.773181532242022906e-01
6.100792827933974039e-01
7.044300400013927543e-01
7.336278363512714895e-01
8.308841377332223388e-01
9.561636749167261584e-01
9.582470130128273311e-01
1.059790459745544977e+00
1.112551884986366257e+00
1.220167265703732573e+00
1.266836785352396522e+00
1.265864873879485986e+00
1.367971332446416888e+00
1.340806521212086100e+00
1.370668075935372432e+00
1.382165594553975030e+00
1.413878144051161634e+00
1.350996003076350371e+00
1.265443650212116022e+00
1.330265115976327239e+00
1.227366716297729532e+00
1.162560938987701631e+00
1.099980764682528145e+00
9.607237029686728214e-01
9.477927091098015122e-01
8.581151025084128303e-01
7.529460363871880446e-01
6.509904367003974679e-01
5.976702253393143538e-01
5.329063117087640133e-01
4.289227173301187745e-01
3.591858120982723834e-01
3.861512284613842216e-01
2.459213253450633629e-01
2.258054717390187704e-01
2.052625021841372743e-01
1.498008362064157661e-01
1.692529303305529975e-01
1.471494635897920289e-01
8.126943641910353011e-02
1.334536293683572794e-01
9.063616062832399733e-02
1.302101142193048677e-01
1.416315582767485592e-01
1.384294901486274876e-01
9.275363104827355487e-02
7.528461192044939854e-02
8.032621028481359837e-02
7.308085564533861600e-02
1.097166257923592736e-01
1.295065164023019300e-01
1.969744168578557164e-01
2.074444903781572647e-01
1.772077774363349789e-01
7.182668136851913521e-02
1.623338554046238613e-01
1.924285134755841786e-01
1.877807253696907319e-01
1.508314966814650326e-01
2.087556633345975798e-01
1.839813288326042351e-01
1.172687546535896019e-01
1.538684465992054551e-01
2.278627800975184803e-01
1.953441930004516935e-01
2.342392005963527257e-01
1.759994425601045520e-01
1.514232898880284173e-01
2.280086235500077552e-01
2.090610488826846469e-01
1.938335543185143173e-01
1.596115345212547887e-01
2.347764928097640647e-01
2.240653234625374912e-01
1.935545837763345267e-01
1.926976918547540774e-01
2.163656001620163360e-01
2.362092003004478691e-01
2.331519284806174708e-01
2.073215117941130115e-01
1.918397394311440463e-01
2.221504441205241764e-01
1.753079633314557628e-01
1.857306528461781514e-01
1.670640464885742582e-01
1.832727293029015603e-01
2.108150523140736587e-01
1.393553752183137040e-01
2.151733574274934391e-01
1.891096199037266279e-01
2.263954561993578585e-01
1.920732113714970768e-01
1.994406726044731792e-01
1.963946882398692750e-01
1.351075321222272585e-01
1.517382781764022304e-01
1.428377387690572542e-01
1.483471774510063401e-01
2.055067224374374502e-01
1.808098141902213796e-01
1.817417476311282698e-01
1.900369876886057741e-01
1.325531255228923899e-01
1.445371558772673981e-01
1.585707375556212884e-01
1.118895055931452276e-01
1.455894865741840793e-01
9.164520111588939089e-02
1.586383367441300263e-01
9.831589577332333629e-02
9.709528338293180183e-02
1.338770135317058629e-01
5.003990560248838121e-02
1.170865378897733150e-01
5.027847438386320172e-02
1.166126530272101752e-01
1.136563099820149803e-01
8.517955377464753175e-02
4.393879475691590125e-02
6.784278896499564004e-02
1.928210889902578357e-02
5.957641481142637169e-02
7.189729016036418285e-02
8.441690186892267245e-02
5.242376761319069572e-02
1.989968937399005586e-02
1.580411419715213595e-02
-3.515929427460574158e-02
5.101680872029694391e-02
3.729422274435999218e-02
5.883910576117673541e-02
-2.688946867803518326e-02
5.787143425154252230e-02
1.302383463756986992e-02
1.015500012546226641e-02
-1.495477108807258954e-02
-4.483553760362297969e-02
-3.242501821219635760e-02
2.390870833435140494e-02
6.608284051997628805e-02
-3.170146180334620228e-02
2.162889381776783235e-02
-6.554698194402726330e-02
5.469732969841253900e-03
1.658710745739550713e-03
-3.110192263367889814e-02
-5.360133334295808655e-02
-7.337048256580437633e-02
-1.050913921360315320e-02
1.821630703811989022e-03
6.454813160378554404e-03
7.514218833625872784e-03
-3.146250645877140401e-02
2.383373613499878765e-02
1.027517081392007731e-02
-2.960211783452557088e-04
-3.247783042337459847e-02
9.399795581165305836e-03
-2.806697291535579022e-02
-6.094717808910778134e-03
-3.063624021176859780e-03
2.890234140623471754e-02
4.224047850400498155e-03
6.193121627431953657e-02
2.495562332984038387e-02
-1.629951080620453338e-02
4.377460799471834252e-02
2.721642510767098566e-03
5.343695726729411066e-02
1.533919542789746390e-02
3.043358963460059130e-02
4.863271369336832906e-02
-3.738877921021593886e-02
3.882382986926501828e-02
-5.454017143621883723e-04
1.168688884408437684e-01
2.272596703894478112e-02
6.622773358922078024e-02
1.073706692298367765e-01
1.130318708708236836e-01
9.478300757126582876e-02
9.372515238321997566e-02
8.640596628743016372e-02
7.887273659253810076e-02
8.168197802059720680e-02
1.326370529417952859e-01
1.106857615808229112e-01
1.396257556735398531e-01
1.132287769156342938e-01
7.203452109399617609e-02
1.252321712301446566e-01
1.345571924156949428e-01
1.399226920420706122e-01
1.668835341701721542e-01
1.635221408037816349e-01
1.584658957624718312e-01
1.585610131584527793e-01
1.099032435364384608e-01
1.277547626214171339e-01
1.159125066293050510e-01
1.346508156877035678e-01
1.232825847310667217e-01
1.512320293878495758e-01
8.249194663444628373e-02
1.085300998009492979e-01
1.533544103861367303e-01
1.650064643852846569e-01
1.136206536851923493e-01
1.917574358588387540e-01
1.887206196872049380e-01
1.471514600875231393e-01
1.319141301654078169e-01
1.840838510207777889e-01
1.329539361088134808e-01
1.892381427202540767e-01
2.022144395845266451e-01
2.205288879965879301e-01
2.278421128591883171e-01
2.413303427507998977e-01
3.111642942765961428e-01
3.475137368329443976e-01
3.624675548432856331e-01
4.211623845801752974e-01
4.752897891031694910e-01
5.605958052228114941e-01
6.463156787924002611e-01
7.268187568349685490e-01
7.584610138688762104e-01
7.922432295569203919e-01
9.571850766385912035e-01
1.019103638145673285e+00
1.081679963219121854e+00
1.135797821671675978e+00
1.232848670620765752e+00
1.234666342107191728e+00
1.348801452512157217e+00
1.367082336515536234e+00
1.366117862449569786e+00
1.434011042269981662e+00
1.441813132251678287e+00
1.419362382406831102e+00
1.392256348049167425e+00
1.387641612316464101e+00
1.249004620673315191e+00
1.231386890323593608e+00
1.209353647815367916e+00
1.180967253177408471e+00
1.060393307288236775e+00
8.924339100930570590e-01
8.585870374516987313e-01
7.877294226340412209e-01
6.963653938777936148e-01
6.268784265765704466e-01
5.623183660007198270e-01
5.386343192369021926e-01
4.527847228943811531e-01
4.273024329414915057e-01
3.431556190293560960e-01
3.482156201657757855e-01
3.161580611251284534e-01
2.703635463141421669e-01
1.865966903898490792e-01
1.979215503557608669e-01
1.703077092802575965e-01
1.938674223866182211e-01
2.333714789776024090e-01
1.963472414520479603e-01
1.582102678396195283e-01
1.624666541093952032e-01
1.529415957794879044e-01
1.630008486350907337e-01
1.950821107911830943e-01
1.607542433880621291e-01
1.672457873364652792e-01
2.224023090203078312e-01
1.934734488157768273e-01
1.420385876453743312e-01
1.773353511929004200e-01
1.811886296036956667e-01
1.579137893644129709e-01
2.027872022317368794e-01
1.802786834238196689e-01
2.582441758508987606e-01
2.377031872213777874e-01
2.538695585453376591e-01
2.412249140397939862e-01
1.976331525009784318e-01
2.200766698939308763e-01
2.449868751339238371e-01
2.210085265687600775e-01
2.452851396733705114e-01
1.882134246758764007e-01
2.466965593633154152e-01
2.427719921225356403e-01
2.823412314905167642e-01
2.359459906921938521e-01
2.613265042062900556e-01
2.525290287558231150e-01
2.933488479301022411e-01
2.131147999407487226e-01
2.106774219282918359e-01
2.768638158477793598e-01
2.420537169685254564e-01
2.727619955878478608e-01
2.226614263897702117e-01
1.808397267603776559e-01
2.738467372726774984e-01
2.385598087893983643e-01
2.667977063798478432e-01
2.820039132586103503e-01
2.923781995273281864e-01
2.482961256038271891e-01
2.632546292111362374e-01
2.603920937589572770e-01
2.329880280293046280e-01
2.420750627276617717e-01
2.708177590728995665e-01
2.533939503363257795e-01
1.941492155459731694e-01
2.245503334640272797e-01
1.890029370579580925e-01
2.320995635428567405e-01
2.001269674872243054e-01
2.410864031316425904e-01
1.919256535094889804e-01
2.413737503900144354e-01
2.229387708234040755e-01
2.277744873053422214e-01
1.357358923800953132e-01
1.117377079445616289e-01
1.504924120088472483e-01
2.032235995965026021e-01
1.629219509663203669e-01
1.775732045648240609e-01
1.620875443652868841e-01
1.891130213806484495e-01
1.338532765405758829e-01
6.502048175445584999e-02
1.738734316061024965e-01
1.561278674569195613e-01
7.438695414195922728e-02
1.261137267221998370e-01
1.022000508384078576e-01
9.569281219701197827e-02
7.155148925469219379e-02
7.278836527765100706e-02
1.179613945628043975e-01
5.473790321708364714e-02
1.102974627436932448e-01
1.182258813758717553e-01
1.255444314801996697e-01
7.060523249866304529e-02
5.991923388097972203e-02
6.563826021332555549e-02
6.786498191221167209e-02
1.278543287268551487e-01
5.509195660507021364e-02
1.279220388826517452e-01
7.478548008568439154e-02
6.979488146046587682e-02
8.266902044131184402e-02
7.102597154907373811e-02
1.043608862920225588e-01
3.680079709534841981e-02
6.536036725935345792e-02
5.837492093980259367e-02
7.185144299615622843e-02
8.807198611271771505e-02
4.812845598610933362e-02
1.882665797804062777e-02
4.102056023301411253e-02
6.966718393434814804e-02
-1.596182265059122030e-03
4.203803364923186514e-02
4.688416106287165291e-02
4.680489228301955990e-02
9.263378190722978966e-02
3.228361427333627243e-02
7.169980294794450759e-02
-3.644972371703067426e-03
2.692100320933690435e-02
3.477877553326885751e-02
8.724770927065117476e-02
4.457058962873906155e-02
2.969327369796262092e-02
1.938772570215801377e-02
6.428271455516848532e-02
4.340957667116590590e-02
5.308417565527454030e-02
5.139653975342092090e-02
9.714785112118168309e-02
9.901867357400787051e-02
7.012489506936817052e-02
7.890982619524034014e-02
1.096650237175779419e-01
2.297600905133741211e-02
8.318853925198199661e-02
1.173890013818440353e-01
1.036067863636437880e-01
9.937200183198331704e-03
1.342501121069335224e-01
7.603192633000746548e-02
9.647682223159237402e-02
1.451646802242375633e-01
1.355864366977512780e-01
8.971926546022436499e-02
1.841695948455773779e-01
1.612246380213573638e-01
1.615284599666760024e-01
1.577824508026421935e-01
1.617771353399632961e-01
1.011706691141323611e-01
1.496938134128109332e-01
2.113133610686577235e-01
1.422755387724331522e-01
1.480584772244709357e-01
1.658488085742970963e-01
1.450280480872859767e-01
1.922873544080768160e-01
2.024214751427404202e-01
1.696025979240602388e-01
1.848079046659462654e-01
1.667415873696243001e-01
2.126028368433828530e-01
1.849526598637341868e-01
2.126229853683129778e-01
2.283398913685048826e-01
2.092178494066485872e-01
1.796256680547773099e-01
1.368866316614610334e-01
2.054815513804305604e-01
1.921543996246935782e-01
2.041459493188784169e-01
2.542051322787145518e-01
1.963049440653569788e-01
1.319769950439080575e-01
2.122366403663658307e-01
1.801739875565469551e-01
2.366011830606686295e-01
2.426119584970939658e-01
3.060276372794472621e-01
2.798996463671774571e-01
3.122247643942354656e-01
4.015256376089548773e-01
4.071243265766545383e-01
4.499015771797557628e-01
5.483258674231613616e-01
4.655680353325261089e-01
6.201927518209894297e-01
6.647102027352653764e-01
7.528024431787244675e-01
8.413153624264262387e-01
8.876027103579982036e-01
1.032540709399105916e+00
1.093519785204817296e+00
1.134654030543799763e+00
1.171248801109141535e+00
1.266700343547042529e+00
1.382740595132028627e+00
1.391856037900975451e+00
1.457565285101386277e+00
1.464292754331054214e+00
1.513749920266092008e+00
1.487163293865535252e+00
1.525531291462392192e+00
1.455350805436450790e+00
1.430049928959915340e+00
1.326218790537261993e+00
1.322672336069215637e+00
1.188239510931882181e+00
1.175798337948420924e+00
1.070973651554232742e+00
9.939473795651785348e-01
8.779680475573599097e-01
8.399944615238019718e-01
6.883216549196808920e-01
6.875450876143920365e-01
5.598965696113099577e-01
5.524106066518079672e-01
4.983140611093448968e-01
4.458826922714269059e-01
3.846350390610346337e-01
3.605607229961006466e-01
3.109541171984166463e-01
2.937575261999413323e-01
2.509117882429912072e-01
2.498809346502798567e-01
2.001644696008865187e-01
2.338298531605525477e-01
1.643219914806310633e-01
2.288929489968082875e-01
2.419880369883724569e-01
1.997937385298227120e-01
2.159626504386724377e-01
2.151220765433452253e-01
1.970651757316351782e-01
2.381346228331133463e-01
2.094629032034545091e-01
1.951552643675236454e-01
2.027373132733326921e-01
2.306807080064852133e-01
3.006547016193876765e-01
2.891208366041780886e-01
2.292812367834727860e-01
2.473891212682464147e-01
2.163544370703830433e-01
2.419112716492799464e-01
2.586430171276493661e-01
2.845992709030637502e-01
2.870906823865584379e-01
2.522175129134373028e-01
2.651166957535058266e-01
2.649026325414564065e-01
3.418689430726983836e-01
2.916124130809666926e-01
2.520869798086523561e-01
2.865818219206563988e-01
3.581040592930969102e-01
2.855586692298123230e-01
2.803926814673050050e-01
3.343279723728269648e-01
3.217987592055721047e-01
2.471966087195673067e-01
2.339440309467126777e-01
3.188268325568249240e-01
3.053698895628406129e-01
2.980458064447594202e-01
3.043225345949406302e-01
3.436090062208256302e-01
2.981905080009060738e-01
2.805528833735286831e-01
2.799926054487691385e-01
2.717044832737463000e-01
2.695015368651267895e-01
2.917294957701849767e-01
2.985238907025770105e-01
2.595673967533301263e-01
2.586261436250182899e-01
3.076755951997948157e-01
2.910980199634989329e-01
2.839062422033841182e-01
2.688799338076587886e-01
2.892256151970145628e-01
2.656508579093911360e-01
2.586523446410580185e-01
2.574294757095824115e-01
2.578679716744936012e-01
2.714571206751452692e-01
2.415141470277103464e-01
2.172717619075694717e-01
2.170424422982623891e-01
2.249306383629204875e-01
2.120972017343125682e-01
2.430074707347805729e-01
1.867234498492980621e-01
2.083442559693242935e-01
1.880728450367364080e-01
2.233924263605455707e-01
1.884325073467178480e-01
1.369270383431075711e-01
1.296250537467020236e-01
1.791446123144181113e-01
1.663458970646494173e-01
1.372744361557500237e-01
1.298876637122045041e-01
1.294796499060493766e-01
1.487792444671721670e-01
1.073965582622834619e-01
1.772006006158958202e-01
1.574229813321733618e-01
1.846150224594205191e-01
9.852364032129345972e-02
1.517159047561234819e-01
1.283249979223385351e-01
1.088213517640642669e-01
1.137107761381580956e-01
1.426595598636491991e-01
1.105342711654025978e-01
6.182233055934417687e-02
1.797029436705300798e-01
1.292775505249803836e-01
6.729273144130237805e-02
7.909741624876959198e-02
6.257754699394343922e-02
6.990990095374483015e-02
7.326751189332167402e-02
1.128442033368528274e-01
2.879868127132957298e-02
7.328139567116409570e-02
1.392831311381960147e-01
6.307393245096382106e-02
1.058744770431737925e-01
4.401675037888058695e-02
9.655908786212036299e-02
9.013405648305930495e-02
6.833364266286288957e-02
8.605381745962942253e-02
9.056694728344200085e-02
1.140484395231066428e-01
1.027024288611718406e-01
9.063368713597247384e-02
-1.925966670285295113e-02
9.572667568915732561e-02
6.313571751600903503e-02
1.118422305682864742e-01
5.122246315755230039e-02
6.308771984003050393e-02
9.958705729792474703e-02
6.445220857912629941e-02
1.440162305124834119e-02
8.897809279215140865e-02
9.913119335109671360e-02
1.047017278671550089e-01
9.839814403888097472e-02
9.883616834504715953e-02
6.534349606749924322e-02
4.088949955619602949e-02
1.273583556778214998e-01
1.501130649253019922e-01
1.027015174549792270e-01
4.823742724560414752e-02
1.262894569180752491e-01
1.261697397816408939e-01
1.266000470406768441e-01
1.425745891986883174e-01
1.429394937178869451e-01
1.410455110527439326e-01
1.206275819492644008e-01
1.301635079034539344e-01
8.729507081533355306e-02
1.586985862971660444e-01
1.095934592011048869e-01
1.564317460906725632e-01
1.441715030906290940e-01
1.749729478106736569e-01
1.402770273935276535e-01
1.064047263971790447e-01
1.672760372971045240e-01
1.498912399086347880e-01
2.117888486321032881e-01
2.209664699167498414e-01
1.651802275327635960e-01
2.746343067421431194e-01
2.094102877112215266e-01
1.986883676298096535e-01
1.697203252451412736e-01
2.755148302872922339e-01
1.878489441934128035e-01
1.858113515981050234e-01
2.211773032789690063e-01
2.265123354302949199e-01
2.555935383358554636e-01
2.304038890565339726e-01
1.985827310113086608e-01
2.111796677382529464e-01
2.053455252066030412e-01
2.417814199512917095e-01
2.478553149689437518e-01
1.612787574729037110e-01
2.495927169596419692e-01
2.283557714795826921e-01
2.428642816659238868e-01
2.368041623980827459e-01
2.019292791316648628e-01
2.307853358651991427e-01
2.753596534885892622e-01
3.598263270277868853e-01
3.177255605146820372e-01
3.995700611614039222e-01
4.813599566323181200e-01
5.210650450232736652e-01
5.348076249385790293e-01
6.057123952089217278e-01
7.037212769795985201e-01
7.612193617063391926e-01
8.965356800252253233e-01
8.857774545610063166e-01
9.680754526899220114e-01
1.102735555521963340e+00
1.169150020537615520e+00
1.194501364021663292e+00
1.287428935790764228e+00
1.286143312554920870e+00
1.409203884111929650e+00
1.430418498617427314e+00
1.465735730487086386e+00
1.457626311067541813e+00
1.527997834004156896e+00
1.454679498318775188e+00
1.410807071000089286e+00
1.421421726809806163e+00
1.348169125261206691e+00
1.298198991446099182e+00
1.260986669432936802e+00
1.132093874839745551e+00
1.013975839169436677e+00
9.397594399665167852e-01
9.002527390028924881e-01
7.939872567594981057e-01
7.623449613911646994e-01
6.773132614081928127e-01
6.312779207955493410e-01
5.563368318088343090e-01
4.852422170165635595e-01
4.302374649746776303e-01
3.568130981358177967e-01
3.214458103428511349e-01
2.525830534059040899e-01
3.104873172681550386e-01
1.772951890769948469e-01
2.446734601819847699e-01
1.880491986936400628e-01
1.377437454634524994e-01
2.416736819727868801e-01
1.946375374458108043e-01
2.146881361101165564e-01
2.307266053888958057e-01
1.432163372249352640e-01
1.748001004134954184e-01
1.261071721663216127e-01
1.596826340090515273e-01
2.308962136503716067e-01
1.946916669289735780e-01
1.827773414155945408e-01
2.157550735864879610e-01
1.596824050391304761e-01
2.165101990042990754e-01
2.448003764932379367e-01
2.823428780126701620e-01
2.339006960628814691e-01
2.072069119493143430e-01
2.697801823389242015e-01
2.409001321314181987e-01
2.746265733979828538e-01
2.460264813839690423e-01
2.598795540186186193e-01
2.540847108756316142e-01
2.278358971842537883e-01
2.567200909848612045e-01
2.292551661676724695e-01
2.581695436529370391e-01
2.669483212441635667e-01
2.682299928795769950e-01
2.712957796333734795e-01
2.841103806651036900e-01
2.921833810667173736e-01
2.844347113912751301e-01
2.712992968169868901e-01
3.309484202292311550e-01
2.792297493816996989e-01
2.819568816690282143e-01
2.889183701137384430e-01
2.408264119193361807e-01
2.735628236435563299e-01
2.526170139637358147e-01
2.812570504922757286e-01
2.992494968164221003e-01
2.544854083357020458e-01
2.768721841834884678e-01
2.384113011013128114e-01
2.258819173852179285e-01
2.844411685697008085e-01
2.663414357779489428e-01
2.569120153196318146e-01
2.656532632312325060e-01
2.572610878854384997e-01
2.348539419913539539e-01
1.988526749922322479e-01
2.532574425682018182e-01
2.449683667849195390e-01
2.468596681498507750e-01
2.222363432226374114e-01
2.267731838557494606e-01
2.329167278239764882e-01
1.772226464200717388e-01
2.228402311241545752e-01
1.484894488289183467e-01
1.878488191888903758e-01
1.287991863280034677e-01
1.966984712612530883e-01
1.724784340758245826e-01
1.395294743287813499e-01
1.462813597678415956e-01
1.465329827755398329e-01
1.396468081851607590e-01
8.984969293581424044e-02
1.511043918789312657e-01
9.986700417608135316e-02
1.558754967924403101e-01
1.182580703625837198e-01
9.172723193265226727e-02
5.331502441239234502e-02
8.317973917928667138e-02
1.063820901885396686e-01
9.607309237921865530e-02
8.630605686461433057e-02
8.418703068466573680e-02
1.099324758290139981e-01
9.997794915719163122e-02
1.109540059063452155e-01
1.405078123716546057e-01
3.442153896324588735e-02
2.955783223356394165e-02
4.979618464601515138e-02
9.439818655832912797e-02
2.842511911775594952e-02
7.150550645238790137e-02
7.641542840298240491e-02
3.773658437779815744e-02
2.534298438526745231e-02
-1.285623404900450295e-02
7.549633031551074291e-02
5.829459187673093068e-02
8.564893375727200553e-02
1.207914846742982884e-01
-3.239988885601838980e-02
7.624074279463073645e-02
1.649150968095839526e-02
4.256848859831216525e-02
4.372726860935566284e-02
2.165598849820099883e-02
2.278159543101945100e-02
6.854649611422573841e-02
1.247739931963450510e-01
3.066787229184554653e-04
3.217205370594616171e-02
3.754656194103839217e-02
2.376158858773344540e-02
1.716665134790901909e-02
4.982177314347466246e-02
6.832802694138989663e-02
6.432557868896141007e-03
2.188794000680761159e-02
3.218192317525290364e-02
1.641919106310823009e-02
2.061897499766375194e-02
1.742409523009531488e-02
2.563962706514304191e-02
6.018175548554585697e-02
2.925819239958623794e-02
1.374121941967401499e-02
8.588214320123882528e-02
6.778262503966381303e-02
8.959323850831889258e-02
2.822931389619645626e-02
5.226853046507599909e-02
3.740101349367105921e-02
1.982824789052260034e-02
7.030474179894104225e-02
5.821479227725940425e-02
9.424715688906934452e-02
9.659813555165772114e-02
6.330441848021650664e-02
1.212104128200005987e-01
1.003794729673170988e-01
1.097737197100171896e-01
1.208488215369310087e-01
1.409057103232163599e-01
1.091363247932540942e-01
1.784232320679663697e-01
1.356197729504895755e-01
1.368567124427467752e-01
1.657960172976210567e-01
1.544290433247191563e-01
1.155456275140378797e-01
1.048664575953049960e-01
1.285169718039417541e-01
2.103010140786008841e-01
1.063526087197778358e-01
1.435989869541129671e-01
1.914176557308053805e-01
9.909004046987682224e-02
1.053500121734425032e-01
1.502459593667052895e-01
1.738776079059548840e-01
1.417364726611260450e-01
1.373146019306387411e-01
1.571474852009368262e-01
1.396224114653569492e-01
1.572593172840523190e-01
1.470008491906401593e-01
1.350195749778867749e-01
1.687384688822854972e-01
1.481351232090197256e-01
1.320309811028283209e-01
2.120285853767290840e-01
2.169233012898361401e-01
2.434533038189768128e-01
2.504092422255785322e-01
2.763392633123029629e-01
3.180516115340839001e-01
3.140673568957746409e-01
3.090776263512307609e-01
4.022325504253596029e-01
4.693305240735223260e-01
5.265486007498221266e-01
5.801846405888939628e-01
6.857167603356758567e-01
7.446154043674332312e-01
7.424295435786864017e-01
9.537274958910414435e-01
9.795874693635836516e-01
1.048410826613961788e+00
1.179308188262505830e+00
1.195092515372842001e+00
1.263883291825646182e+00
1.292833098031073824e+00
1.379377510191564626e+00
1.424830181762560599e+00
1.449632891888833930e+00
1.353541925571848381e+00
1.394692835140611598e+00
1.412255752619584026e+00
1.381208051822368388e+00
1.299494003953429955e+00
1.334235350341186344e+00
1.195355052383568761e+00
1.184556646079641062e+00
1.105008610760841004e+00
1.013745480224969020e+00
9.130238470160936259e-01
8.597926624940772644e-01
7.174716102258901218e-01
7.073284350160232714e-01
6.094147153255604632e-01
4.679958039145281079e-01
4.272209384893571049e-01
4.059263278292489230e-01
3.429967674384630238e-01
3.397300238297559782e-01
3.066955145431513041e-01
2.861201620647446653e-01
2.317218761524529602e-01
1.903725818793252922e-01
1.591053209528114631e-01
1.709428160457744372e-01
2.289566366588335067e-01
1.635314482560022431e-01
1.292669761145060214e-01
1.443904164054680139e-01
1.189050177280432663e-01
1.070670906353424628e-01
1.648574092378390088e-01
1.120273631000182901e-01
1.110524060616720904e-01
1.352331972642357716e-01
2.274727200528023630e-01
1.485392741668478955e-01
1.703750642293663797e-01
1.504361969325707926e-01
1.163278760006964813e-01
2.049846096310052601e-01
2.148468784297287715e-01
1.865774900809477888e-01
2.499380428899437012e-01
1.322274412713249081e-01
1.934333106065891095e-01
1.824889506244029014e-01
2.338615567487864477e-01
1.947988083107228263e-01
1.878022391077360520e-01
2.409554387531742670e-01
1.815145894244601377e-01
2.513116934301155014e-01
1.718203587740499139e-01
1.774437642417323324e-01
2.011639024071568971e-01
1.934423965526526623e-01
2.025176995201566632e-01
2.103175333280872805e-01
2.827603647069637516e-01
2.173889071673842377e-01
2.528794526501518813e-01
2.714527771476573648e-01
2.353284232029186351e-01
2.532262406155900702e-01
2.446214114370663384e-01
2.222126607409309340e-01
2.035082498091030090e-01
2.133086363648818706e-01
2.110909645488786568e-01
2.107185562381318211e-01
1.969227784016452931e-01
2.181112098472408334e-01
2.385285876833109497e-01
2.023458529263066907e-01
2.043616209226061242e-01
2.020435737257046394e-01
1.773716576082782492e-01
1.996643122445377616e-01
1.455632133299482600e-01
1.907084947654627549e-01
1.506113467331896549e-01
2.009247227907837163e-01
1.858684797236228037e-01
1.550889922008595323e-01
1.568573151714364733e-01
1.305043228881325457e-01
1.162064915767852813e-01
1.621834669793161265e-01
1.676726616159284755e-01
1.708696753655546408e-01
1.213805617145344712e-01
1.773907579875108886e-01
9.999434705109513932e-02
1.215105531591633981e-01
6.712966228559501258e-02
1.219719758508371055e-01
7.386447398506819362e-02
8.927865896286835135e-02
3.524418477103646863e-02
1.096468712153727681e-01
3.108038923221160404e-02
9.975174603764760950e-02
9.749700564607569064e-02
5.224181075571753680e-02
5.761436807694706591e-02
2.791190888822416005e-02
4.431208322756587104e-02
2.333199252844430499e-02
5.857761278742322497e-02
2.185208731414951810e-02
3.655438395045541855e-02
7.318372203084816396e-03
1.056087502437885045e-02
3.392496360576165854e-02
4.181350552126658626e-02
5.604084866591418912e-04
-4.090646216989501233e-02
6.196887750075721901e-03
4.466354245618374408e-02
2.281365576322329225e-02
2.758287183669133613e-02
-3.630262853831998232e-02
-3.603033884105782264e-02
3.095234318432046883e-02
-6.359657284912861863e-03
-4.318678850097162902e-02
6.070659356758628666e-03
-3.684988494972359085e-02
5.255490332858397950e-02
-6.575329937992396845e-02
-3.248109095460525314e-02
2.335615502276370409e-02
6.472228473398448922e-03
-1.714515955541690354e-02
-1.613908510075074548e-02
1.598932327868812786e-03
-4.650256684353745729e-02
-6.922407542463548946e-02
-1.608189087267532583e-02
-2.812803065779347078e-02
2.494071623232015089e-02
-7.742258710206603722e-02
-5.470029451379705698e-03
-3.863216298511027574e-02
-3.766148840492930527e-02
5.892291286165150799e-02
3.259969821282811958e-02
1.466606863477470934e-02
4.067979701104521006e-03
-1.847951316562521096e-02
-2.169130473344437621e-02
-3.486840049520773671e-02
1.069817524454318852e-02
3.101279887479622965e-02
-4.845406086792555800e-03
-5.453640106157960077e-03
-3.158021267825504574e-02
-6.996861498835001136e-03
7.151688032449568522e-02
-4.055340492771127014e-02
-2.202842753088934957e-03
7.118324360916596094e-02
5.511941662025546251e-02
4.720469649309662341e-02
5.999749258189548962e-02
2.354126161713501753e-02
5.425342535396021626e-02
5.126396973310143323e-02
2.126685805764881587e-02
1.072691378862681288e-01
1.169778253648976751e-01
4.402961484063119824e-02
1.018533527231693936e-01
9.422252337265177302e-02
1.005776035003829172e-01
8.714721778786771456e-02
7.880795877795401805e-02
1.220813419266013333e-01
1.315366788689975031e-01
1.262680482516065350e-01
1.213187224506839246e-01
1.563618021828604709e-01
8.881487811436403201e-02
1.129373962454441882e-01
9.033649511942273835e-02
1.452533366408202131e-01
1.204617840214893265e-01
1.164451316547711474e-01
1.300802614681826896e-01
1.701005069259553804e-01
1.543257913031569339e-01
7.727127353958038181e-02
1.696109802410086520e-01
1.464937354358183397e-01
1.419172795957452382e-01
1.380555290676689362e-01
1.682832142683989007e-01
1.697029670594383532e-01
1.401287791348009570e-01
1.838495134897137340e-01
1.777601591745096576e-01
2.462463600582620593e-01
2.935991739577485937e-01
2.820630212953029181e-01
2.762638722293885851e-01
3.202991046833084110e-01
3.687051518893704749e-01
4.871371278909167879e-01
5.260951200614586432e-01
6.225314752074273539e-01
6.957568387508576979e-01
7.737126572245656142e-01
8.506848246325158236e-01
9.540546779402278021e-01
1.028229267849017692e+00
1.071256248450713766e+00
1.149628096118195941e+00
1.244421784663896524e+00
1.354767195104033650e+00
1.335277917884498455e+00
1.363965479974269757e+00
1.398681241102933459e+00
1.416495590632602219e+00
1.381878446312850395e+00
1.458117313086641387e+00
1.407409328453126385e+00
1.315394661162789802e+00
1.215085770898309825e+00
1.113697082030074670e+00
1.076608602907360046e+00
1.027517534108122188e+00
9.704538665080371107e-01
8.394764012209079418e-01
7.830624781331361195e-01
7.171194232173003780e-01
6.174898688071804864e-01
5.560667251341564477e-01
4.903427875666722668e-01
4.011455092951429768e-01
3.830762678862760784e-01
3.201516897129550454e-01
2.727592966655145168e-01
2.267443704970762142e-01
1.946724348854352860e-01
1.379991597241386203e-01
1.504738391913522655e-01
1.328790285618975664e-01
1.452047105042209019e-01
1.074426770591493108e-01
8.649374673050172491e-02
1.293588190851115149e-01
8.909449791545206998e-02
8.700655567220999531e-02
1.293244718299479123e-01
6.905068300531348735e-02
1.166334671037607129e-01
1.261065588312779151e-01
1.076148537988502879e-01
1.119784454174731492e-01
8.780915672957489981e-02
1.021047865518825704e-01
1.240149526372701927e-01
1.218785046397070637e-01
1.458270958370738446e-01
1.820639676860139611e-01
1.410824555994201202e-01
1.791952135046121497e-01
1.330255920452513563e-01
1.638472777407353476e-01
1.528986197754629295e-01
1.401438468691897643e-01
2.205946529769913789e-01
1.960945189231535490e-01
1.863409011089415257e-01
1.897868155362522069e-01
2.299190837717374480e-01
1.910424683620981778e-01
2.845244141723421438e-01
1.578587801754185449e-01
1.580833208313675575e-01
1.897316848931732136e-01
2.243441532433341212e-01
1.922546689892083716e-01
1.931047630309313257e-01
2.165418668581711725e-01
1.747341175918387668e-01
2.034227350065404560e-01
2.313476145980802312e-01
2.139230696087189854e-01
1.558445409358787670e-01
1.826580424729090102e-01
2.210511830291774504e-01
1.360490383634734013e-01
2.081629446257274307e-01
2.042747396932971804e-01
1.699457918916086607e-01
1.658234208335146176e-01
1.547587811716908401e-01
1.555194269493827552e-01
1.525603068445372246e-01
1.683145521790752608e-01
1.750090245974781911e-01
1.625870253856422920e-01
1.340735366734724932e-01
1.581627826189230535e-01
1.607018045018238916e-01
1.561602053648128430e-01
1.097252868405060311e-01
1.250352506795227026e-01
1.490641011521720016e-01
1.489020480384361522e-01
1.124422591710506625e-01
1.260961133246299992e-01
1.287317400989895222e-01
1.229876777467709126e-01
4.728286920257731424e-02
6.997589945351403995e-02
1.148613294583033517e-01
1.012700550793681764e-01
4.489317523562202927e-02
8.469454701128800722e-02
9.245806440766438095e-02
3.458855235802160699e-02
4.249070744167154912e-02
5.477852262903996905e-02
5.797515527722892081e-02
4.379757793919304004e-02
6.877444117425890457e-02
6.964056892596036386e-02
1.586302991326566519e-02
4.373333801302970586e-02
7.421164380859267273e-02
-1.148828350522929781e-02
5.818468978006877124e-02
4.008058296855745994e-02
-1.106072481721397105e-02
7.186445517132572514e-02
7.406785952925411254e-03
1.862644041105398357e-02
7.076328307355696234e-03
9.836785743575479635e-03
5.593725293970515378e-03
7.135058096814472783e-03
1.159981668237024949e-02
-1.041964537145268627e-02
-1.254030214932826126e-02
-1.664616140305489808e-02
-4.342770828732707422e-02
-3.240004270026181077e-02
-2.650572294127891484e-02
2.849874366318734531e-03
-2.864516036664629603e-02
-1.219008318368934585e-02
-5.275292084052442959e-02
1.817564812234172961e-02
-3.860054219953612531e-03
-5.589116176513641426e-02
-8.423341757324594170e-02
-1.712670149825909482e-02
-5.455165991648439072e-02
-8.609318976173685467e-02
-3.678347102623046039e-02
-3.307691428415265172e-02
-6.280242464157707871e-02
7.099692310210362067e-03
7.871969204984508028e-03
-2.901378463504870886e-02
-1.471130249559411685e-02
-9.344394514598355905e-03
-1.307222667222804335e-02
-2.726484927896868915e-02
-5.645849111197780851e-02
-1.745703099587355561e-02
-4.076406139939110773e-02
-2.280612313554715789e-02
-4.508932406337996801e-02
-3.264040218507464897e-03
-1.544212387402858419e-02
4.806991161975926463e-02
-1.314765512660288210e-02
4.119178321494376682e-02
1.838761927830755843e-02
6.671287044014853618e-02
4.622671829510612701e-02
1.880851083873351370e-02
3.583134420272168774e-02
2.420007910232937348e-02
7.006215121776587784e-02
5.917002557427930576e-02
6.235786834952069396e-02
5.193276505274554977e-02
5.777103253777530339e-02
8.199041837187309723e-02
1.096982885270593455e-01
3.179309259545946842e-02
7.462571636783933704e-02
8.776399580636073949e-02
7.042995749178102005e-02
6.570599524987133511e-02
1.597677163796087652e-01
8.267301455785491804e-02
1.689785089077310704e-02
1.865565523532741743e-01
9.966534210544485128e-02
8.606561970331307043e-02
1.146287526605742207e-01
1.486291263052751388e-01
1.841392578377772649e-01
1.584076967328238994e-01
1.489407479263508138e-01
1.098987257473141577e-01
1.587221473018008977e-01
1.422476547574312855e-01
1.241448475457209433e-01
1.669376908988975394e-01
1.174491827451540210e-01
1.672879518424302547e-01
1.684776452944463654e-01
1.549687293923432130e-01
7.735517096244931556e-02
1.693038940916650470e-01
2.052021244326668326e-01
1.404839803840314261e-01
2.610730101291970917e-01
1.505230428488665839e-01
2.368645480169790374e-01
2.736198327555835474e-01
2.999337400824642064e-01
3.541463906194469158e-01
3.787784674603419388e-01
4.318841005973911851e-01
5.012777872284234215e-01
5.095734333029258156e-01
6.204172985349082348e-01
7.125952763716130178e-01
8.072876547563696548e-01
9.400766471422337123e-01
9.527491645259684727e-01
9.877957198662127292e-01
1.080408637688824225e+00
1.165218996551971697e+00
1.294092610990030146e+00
1.303814879084852052e+00
1.355284106032449642e+00
1.360319812771005665e+00
1.392303702995201675e+00
1.416408087491614287e+00
1.405327362262554836e+00
1.359368151594133378e+00
1.350564006861324717e+00
1.317421065217571963e+00
1.258635656451156493e+00
1.191346303984951227e+00
1.153253314800601670e+00
1.040089896792369517e+00
9.701485834945279274e-01
9.013624369311812323e-01
8.034836532401051779e-01
7.054914256135906836e-01
6.444668189786603163e-01
5.438171621656602284e-01
5.361740410325328554e-01
3.892333495643678365e-01
4.167037514677410792e-01
2.966322517843453244e-01
3.259124882811774704e-01
2.440591787213172714e-01
1.927227693789414498e-01
2.050746133875160915e-01
1.768058089029133639e-01
1.552360361581029691e-01
1.110295064434116269e-01
1.270392121287284293e-01
9.055160349126152586e-02
1.336662011651524318e-01
1.537847476107970512e-01
1.729449842609293297e-01
1.643783081981482763e-01
1.283726928462006756e-01
1.440915164547087457e-01
2.106724737354563615e-01
1.380036286612460472e-01
9.414568441855342140e-02
1.633558666116676772e-01
1.615892069877905290e-01
1.318668161970933117e-01
1.509065744535287301e-01
1.533628717622069759e-01
2.255353033847180000e-01
1.778033670492610296e-01
1.883517197718225233e-01
1.891031294324219125e-01
1.630829066645141656e-01
1.631803745860945787e-01
2.066224365245812877e-01
1.834476081918292589e-01
1.551157145037450891e-01
2.138402591611139603e-01
2.226452148349379878e-01
2.174206500355908844e-01
1.881046793878577705e-01
2.444463798912537567e-01
2.169037885523647236e-01
2.315423944787006472e-01
1.837624762134384693e-01
2.359179613323922342e-01
2.776338758077422919e-01
2.271664498765730567e-01
2.334687785246739311e-01
2.500637482575608916e-01
1.998884120577481549e-01
2.498609747677564830e-01
1.758253178143509565e-01
2.176544958907756788e-01
2.355960393746685255e-01
2.667596811184800853e-01
2.366777452494327472e-01
1.827009301144107145e-01
2.206631179909374629e-01
2.036152579492287173e-01
2.256356806946796523e-01
2.210119494600542023e-01
1.850667048225084488e-01
2.067690673685932679e-01
2.038577208455891188e-01
2.241421043107801880e-01
2.434695241254240805e-01
1.610614716583580741e-01
1.643208795039347858e-01
1.895072491602741993e-01
1.509412086969298405e-01
1.723383593112928491e-01
1.940788547276414699e-01
1.752042537908480579e-01
1.857330472474668370e-01
9.491436015367572809e-02
1.778511812871620135e-01
9.439878074555595189e-02
1.133429070071642480e-01
1.029725609176933010e-01
1.496968670721152972e-01
1.095421009165179205e-01
1.001070668500471661e-01
8.630776691275755808e-02
1.050259820919757364e-01
1.376052799413130523e-01
1.430253184633188956e-01
6.071403410006576129e-02
5.057215176658369504e-02
7.295180065766451727e-02
1.322700442782494268e-01
1.224589835790980685e-01
9.587276433919039720e-02
1.017081604500334052e-01
7.131128218400847874e-02
6.307402925541510941e-02
1.095844919061290945e-01
1.059514741901183832e-01
3.429303952662154237e-02
6.380575249382859637e-02
7.291898406957442180e-02
4.555041919744453466e-02
1.493634002123129384e-02
2.222013886166413973e-02
8.396646519255302615e-03
5.270470972868573911e-02
3.611528244881401228e-02
6.390103938694478847e-02
2.203679183308951753e-02
-1.536945993444249411e-02
3.375302144664519416e-02
-3.654575841317740659e-02
3.711943578638861319e-02
1.721128164644799771e-02
8.696605883937950920e-02
-5.925389172612488195e-03
3.480351738498908137e-02
-3.170503609062944039e-02
2.292601408979411115e-02
5.019974058530097399e-04
2.301092469727446937e-02
1.523351300647231982e-03
1.579018321479207926e-02
-3.041835235459999787e-02
4.086728954546510473e-02
7.043226053984600298e-03
6.686527130827248089e-02
2.435587403700001374e-02
8.075531168511462798e-02
2.294272475004566561e-02
2.993585695145595596e-02
2.567208235523243259e-02
4.816992235643018094e-02
3.865535887401193305e-02
3.299515436767552073e-02
-1.706659945738066286e-02
5.882618945406264954e-02
3.859825137963733555e-02
1.529756756021871493e-02
9.376230475255525887e-02
9.139724128729652050e-03
7.530456950870990929e-02
8.323664122469565108e-02
5.019563152913691234e-02
8.569786822795208425e-02
4.201355616631468476e-02
5.880390235587579228e-02
8.044650892407970155e-02
1.063133898702487007e-01
7.591247840995168916e-02
1.116375484629921061e-01
9.282943425341440291e-02
7.159835636816526405e-02
3.045336240197214078e-02
5.813670467168284561e-02
1.399304159123455904e-02
1.329411812207185462e-01
1.259464665547316009e-01
7.713645156801070268e-02
7.251009295035557023e-02
1.281886257365711379e-01
1.589987263561303821e-01
1.186414430303747020e-01
1.249638906044599068e-01
1.159145512911048947e-01
1.457356203717500298e-01
1.416064995027767337e-01
1.351319082788505765e-01
1.601458640695663238e-01
1.320400384644701552e-01
1.536853725000097981e-01
1.285431110194087956e-01
1.400465680124913515e-01
1.121220373424448025e-01
1.544134992043542931e-01
2.097482412904338456e-01
1.932432442199226164e-01
1.439363535296989960e-01
1.261407467358963419e-01
1.727631391626837098e-01
1.528136005966831967e-01
1.613131215788029815e-01
9.536124232111276022e-02
1.485916477443334771e-01
1.327574125846138209e-01
2.298429797690769438e-01
2.392000399697384039e-01
2.680095960320546533e-01
2.931083075401185178e-01
2.759749989880074805e-01
2.992060180613418385e-01
3.745026032383425574e-01
3.877027496269634943e-01
4.847557081939523616e-01
4.803943047215776807e-01
5.562008701416549794e-01
6.298855043435351853e-01
7.289017521536160782e-01
8.178573616329527507e-01
9.074977404447637230e-01
9.384045769405977566e-01
9.769608149609204650e-01
1.076020016578378868e+00
1.175136463180880941e+00
1.213004525819929125e+00
1.315562899200511060e+00
1.417810821110786046e+00
1.409134872508172265e+00
1.425582035440789985e+00
1.362928844608835233e+00
1.449841190252773249e+00
1.478205451310012020e+00
1.411315210584069835e+00
1.375599012002137522e+00
1.382261383920035502e+00
1.298182139442021210e+00
1.193487072173765595e+00
1.168685327846038957e+00
1.105299538360919875e+00
9.976742152869982894e-01
9.494118348330441437e-01
7.991834881488687481e-01
8.090007420001996685e-01
7.098185899808204802e-01
6.186692480799867999e-01
5.521421401564674536e-01
5.016416835612614866e-01
4.824347900537849787e-01
4.160608366158172200e-01
2.928358659448197510e-01
2.692698976264393251e-01
2.666351618880818952e-01
2.168572750525784021e-01
1.871078609428534489e-01
2.505176729860931761e-01
2.314446946147324935e-01
1.595951145076588695e-01
1.886518364066980258e-01
1.765855723675931743e-01
2.461454266581733774e-01
1.538937550717124070e-01
1.616333639172019276e-01
1.652020442131431344e-01
1.875940146553861376e-01
1.862160998057310612e-01
1.753586117208200956e-01
2.172425370491108398e-01
2.394632118196455273e-01
2.302361478136234485e-01
2.425257644610308572e-01
1.738772946546468801e-01
1.799468188034666349e-01
2.314181466862849923e-01
2.396353818147815840e-01
2.573585232359615893e-01
2.241861924163578434e-01
2.592241644096384690e-01
2.603886670224982991e-01
2.773168668238622514e-01
2.021572779582425095e-01
1.928466252468822861e-01
2.286625081040956631e-01
3.010697438845619800e-01
2.369824225183888300e-01
2.530431110579429155e-01
3.149410361703415262e-01
2.711514793212224661e-01
2.675311559009519446e-01
2.270627373863404741e-01
2.640180844961407258e-01
2.865045509534179802e-01
3.029844021449244473e-01
2.828943520097478848e-01
2.813643084794392735e-01
2.285633867604171532e-01
2.638140554169667862e-01
2.891357580563289065e-01
2.595399077387934295e-01
2.928349786332324345e-01
2.377268358549748106e-01
2.854899862887047002e-01
3.003213167743002954e-01
2.250428274900282688e-01
2.569109124280707368e-01
2.354285507309009651e-01
2.350504561773187340e-01
2.688819453263607828e-01
2.510565401533781382e-01
2.633636778268181322e-01
2.311988045594992602e-01
2.179155855816111431e-01
2.672218421670786714e-01
2.337082356584432308e-01
2.036673519880324024e-01
2.190729145655267995e-01
1.914026025330176350e-01
2.222055262714669466e-01
2.254857964913279389e-01
2.578454549876520452e-01
2.086599650717927967e-01
2.321601820841111274e-01
2.391297080592508784e-01
2.377576766451227341e-01
1.807225474462876291e-01
1.794286049291861918e-01
1.348178191754906552e-01
1.647612471837128223e-01
1.310832689208705770e-01
2.270589189405955721e-01
1.776576511367763400e-01
1.967744186303186649e-01
1.529402266630520701e-01
7.859365357530728735e-02
1.281269221106157985e-01
1.577668785697715625e-01
1.988498218685160190e-01
1.593987458567704962e-01
1.907171342222259702e-01
1.235917887031487694e-01
9.463286115608446347e-02
1.026575182098969086e-01
8.825443312308037247e-02
1.125277211734707905e-01
1.293051584552275812e-01
6.480689350037137364e-02
1.166217529680156767e-01
9.442087766587285713e-02
1.100967219530307462e-01
1.700002715906204220e-02
5.704604905880811261e-02
8.024974292457295877e-02
1.066515733927164700e-01
7.577790946525400639e-02
7.530040142232674594e-02
5.868758172083614333e-02
1.470831860143068104e-01
1.219369716675296547e-02
5.704496980578595278e-02
8.617154616052705163e-02
8.087374362823021579e-02
9.404354208839893481e-02
6.694368165691876038e-03
7.867675362163091546e-02
8.433131632958806856e-02
9.353285277848663593e-02
7.878003667877375715e-02
7.185574542697742428e-02
7.102622284635491667e-02
1.352859496070042411e-01
6.130716792147729993e-02
6.188689301875966581e-02
2.697452068008653406e-02
9.033947151268922893e-02
1.033995925156735440e-01
6.731163623785331451e-02
6.542389850247606886e-02
8.140456964369777171e-02
1.588651704667206482e-02
9.096279512290784963e-02
3.362600025051319663e-02
5.045124144090645801e-02
7.184600396634434338e-02
1.447644626707899063e-01
7.251737336865532457e-02
6.788124120610686263e-02
7.837149219144534662e-02
7.049606309144829108e-02
1.325125814984678130e-01
9.744865861797515072e-02
1.398854969299639650e-01
1.645832696322217237e-01
1.094956733796080689e-01
1.186313761690910434e-01
1.192004414383056599e-01
1.346934438073300599e-01
1.583438823788212435e-01
1.358655360981269045e-01
1.074799362708261652e-01
1.464801717993829688e-01
9.720084696485825626e-02
1.247300108942349939e-01
1.640131748563177227e-01
1.708944976708274555e-01
1.671886497661417004e-01
1.572573669403427299e-01
1.802255005421125877e-01
2.215833458509016973e-01
2.168325034625384895e-01
1.840531574844621876e-01
1.997795198138708761e-01
1.771863856018933148e-01
1.696276786853975760e-01
1.813934885127513053e-01
1.693936813549856424e-01
1.842277258601108247e-01
1.955569609318617286e-01
1.771218303515027237e-01
1.723796057714090668e-01
2.469664647582880679e-01
1.800883431215488384e-01
1.341724658321080121e-01
2.516930048056669755e-01
2.268151676452956900e-01
1.914802083486353279e-01
2.014040707042779599e-01
1.838435207998377341e-01
2.574364505279226889e-01
1.891968636300639939e-01
2.289794947885400445e-01
2.280969636258874944e-01
2.921446251996909216e-01
2.710323054199865744e-01
2.899363138295714681e-01
3.440577890256927285e-01
2.761713681416924082e-01
3.897748409882216825e-01
4.397337049431464528e-01
4.864539725357786559e-01
5.126108526357049389e-01
5.731904352515222456e-01
6.920035129110905237e-01
6.962587399098891794e-01
8.135919805106093250e-01
8.839555893216991533e-01
9.571564638842816608e-01
1.073987655194008406e+00
1.142721462068176042e+00
1.224047544457691483e+00
1.263167847752992401e+00
1.308117459345177647e+00
1.404319592256443983e+00
1.481388090223006548e+00
1.514482076073821570e+00
1.516583099030960335e+00
1.495954424989014653e+00
1.514593539402297795e+00
1.400489977021527777e+00
1.462313720127969230e+00
1.425717382082197560e+00
1.341953838814595290e+00
1.244265700391732343e+00
1.163891026966938913e+00
1.072469471153119525e+00
1.017220191948862595e+00
9.892853998301441854e-01
8.206693317027057288e-01
8.751325299355128262e-01
6.673088454313312878e-01
6.305694164854732664e-01
5.570855971132583351e-01
5.325669884785098063e-01
4.186392721031348962e-01
4.392929045145636535e-01
3.492475815085288593e-01
3.610883617685402558e-01
2.859314864296916281e-01
3.022127844242373240e-01
2.068949618872870100e-01
2.360907523737208746e-01
2.353888384255106714e-01
2.334188499965207941e-01
1.955739341737279535e-01
2.093415486792131741e-01
2.613732897627163987e-01
2.018016649815828067e-01
1.938223617419808642e-01
2.101565430954845104e-01
2.025331773058405005e-01
2.100826734224573999e-01
2.807440137962192162e-01
2.404021030554901739e-01
