1.450412400102965016e+00
1.440596662094298930e+00
1.405350396776738009e+00
1.382421480447737716e+00
1.356602820603447501e+00
1.326778080107468005e+00
1.313451680425853807e+00
1.192405393564520244e+00
1.074898072820250183e+00
9.807704192903501372e-01
9.644765638460272017e-01
8.582204254907247476e-01
7.504606364984304223e-01
6.918910625699784545e-01
6.728789280010800677e-01
6.029089618065395229e-01
5.189497301984216104e-01
4.534128545481969086e-01
3.740210591537236340e-01
3.246200697032272653e-01
3.185782650013974648e-01
2.681471833621288936e-01
2.384921778501386258e-01
2.578204248526334008e-01
2.749169262992705032e-01
2.037610674887234408e-01
2.149720427685699597e-01
1.530667899116689989e-01
1.856919001955874560e-01
2.007284716764429766e-01
1.959706654050855090e-01
1.875556734928872371e-01
2.036207016649302926e-01
2.336186506713750777e-01
1.840500755874589500e-01
1.856071580502021423e-01
2.569175370289332183e-01
2.627702788012825086e-01
2.472396471189400868e-01
2.365850906804054243e-01
2.617372467261497304e-01
2.363001877359465208e-01
2.439354806394373465e-01
2.721470019455961564e-01
2.650582867073188464e-01
2.792112044765844847e-01
2.845218384776230236e-01
2.807784278565838565e-01
2.838703411710954416e-01
2.444719591631032973e-01
2.634861101504385461e-01
3.100606298149379825e-01
2.575840731604089884e-01
2.466463855576261632e-01
3.507321736624052777e-01
2.751724637579865962e-01
3.249531498990414491e-01
3.140159715641316351e-01
2.832388797284292603e-01
3.559803468529659787e-01
2.577290747871320287e-01
2.685041718549961987e-01
2.789502471840615838e-01
3.510333300016222347e-01
2.592261919482725663e-01
3.005222955039817956e-01
2.842419135132656649e-01
2.631072102744283492e-01
2.262527534825253261e-01
2.880866416582050782e-01
2.869550569150737807e-01
3.301856645852662142e-01
2.851089866603426226e-01
3.038566566313519735e-01
2.948512011367812602e-01
3.004720590181998441e-01
2.575660747000405593e-01
2.672373566228721242e-01
2.415727664744313219e-01
2.799085519662284360e-01
2.681349203986490570e-01
2.763616874902753429e-01
3.192044972696689853e-01
2.143379733694657507e-01
2.491579988996986128e-01
2.442590976479561138e-01
1.494969397151784118e-01
1.647262596608091156e-01
2.174240101400879699e-01
1.855091292443475093e-01
1.659567084004506254e-01
9.873497792114070692e-02
2.298569517795368000e-01
1.633713155752131163e-01
2.108110805011119970e-01
1.632218863459512781e-01
1.791690571801445031e-01
1.570206324173008816e-01
1.323235060978189548e-01
1.420372958708738809e-01
1.629556684077030915e-01
1.469060322876709901e-01
2.203573878058261437e-01
1.123948367307973512e-01
1.171588909888335306e-01
1.183333501729258719e-01
1.424316747518366288e-01
1.420779155684736283e-01
7.356594301254601453e-02
9.412194844344895506e-02
1.094158287151755227e-01
8.262703151400779822e-02
8.323006842755251156e-02
1.029899064630949435e-01
1.047407694897972974e-01
1.185711682417797258e-01
9.924014249813681299e-02
1.427046060923552739e-01
1.089086800137856192e-01
1.197774978162033377e-01
1.293643352062088803e-01
3.283094995426819734e-02
6.652934524538103855e-02
4.185679204734071845e-02
4.892434303040177346e-02
5.021210325580902079e-02
6.956032236119619183e-02
6.996881995415045463e-02
4.792431326080479059e-02
4.696103184478188364e-02
7.763122909549012574e-02
7.422209046683622691e-02
8.713073171831206554e-02
5.127281234988723124e-02
1.082093773394494918e-01
8.230086537943720471e-02
4.072167804698836879e-02
3.000729857396765982e-02
2.851442271821839208e-02
4.171503334010043251e-02
5.373443637147995444e-02
7.019290419400583958e-02
2.623975972805589821e-02
5.020470822763381524e-02
4.875105338519501730e-02
4.342966384760228726e-02
2.130064667305972201e-02
7.950321082195038747e-02
8.274475896717664591e-02
4.125919108641690897e-02
7.533263576316745480e-02
6.845492475808344357e-02
4.762688188153008095e-02
8.478745383682267933e-02
7.204534789695990482e-02
7.852390992325714025e-02
5.921070661317530404e-02
1.253039381982754552e-01
8.415801636691941368e-02
1.333524147840288443e-01
4.666553935925471519e-02
8.030860819077602353e-02
1.933450363880955328e-02
1.170496457880165070e-01
7.600805863338776225e-02
1.466336774246598529e-01
1.019757022183817863e-01
6.086677244580696033e-02
1.062205921371014439e-01
1.883797393192976899e-01
8.934202327611198702e-02
1.268008195268088278e-01
2.006607581764374426e-01
1.570551278825359498e-01
1.591010338604005314e-01
1.742752458329884235e-01
1.509409101732578362e-01
1.781317476902135877e-01
2.185525368460839168e-01
1.739219965981891325e-01
1.384886488477158339e-01
1.962107368437599197e-01
1.713989062560770660e-01
2.129535946018119019e-01
2.288098397982827048e-01
2.121695419409207750e-01
1.643323688948476469e-01
2.020519202418286642e-01
1.468706195124507285e-01
1.733565061324175705e-01
2.472766970191271341e-01
1.732545114015866528e-01
2.021514226642409651e-01
2.280544463188910465e-01
1.690082868138292338e-01
1.714807206188063149e-01
2.070818094152921951e-01
1.724738692834699716e-01
2.068053300514346715e-01
1.748049227635844471e-01
1.925842373992852075e-01
2.229634457823541083e-01
1.850854789092857555e-01
2.077055172018310580e-01
2.172172271786009801e-01
3.147163357583887544e-01
3.265370559658231642e-01
3.521800281575807046e-01
3.648217373219461712e-01
5.284388229962133643e-01
5.086642474908726896e-01
6.048924262279893327e-01
6.917876888093197341e-01
6.911101348511953235e-01
8.707070688598002040e-01
8.160682411008646220e-01
9.616719901412679183e-01
1.052505867348725532e+00
1.067596799868820945e+00
1.226460160678392253e+00
1.230028898320816078e+00
1.289945894927969183e+00
1.372299856710982313e+00
1.420788327393131878e+00
1.369972235292060692e+00
1.420655137563776815e+00
1.409605612004155351e+00
1.400458935002036664e+00
1.409846589870496825e+00
1.360235309114373070e+00
1.245229901814686402e+00
1.229139629605890516e+00
1.092421641693105627e+00
1.074552986871574856e+00
9.551083222947849283e-01
9.275403138416054016e-01
8.715469444078667305e-01
7.774929634626025488e-01
6.716734058119953055e-01
6.163636724642891362e-01
5.637173818221541399e-01
4.590877440540952481e-01
4.868711253077405710e-01
3.165077736625977467e-01
3.960564416709629332e-01
2.832941386546191098e-01
2.403069360720676007e-01
2.017413029038332140e-01
2.190426057173822105e-01
1.877282829143647191e-01
2.005308332274655936e-01
1.838750397253974822e-01
2.243863487425930003e-01
1.567460385252786581e-01
1.969275510973271248e-01
1.687997260073263173e-01
1.623314539370024345e-01
1.821377235942177597e-01
1.213616157392157502e-01
1.215140654974803391e-01
1.341511025607717011e-01
1.826363996254193323e-01
1.942325589947743181e-01
2.142616850461946387e-01
1.407420114956826340e-01
2.595141286914006695e-01
2.255882687824908583e-01
2.064260350167752833e-01
2.545379869893300007e-01
2.181457150236740805e-01
2.152733271368511281e-01
2.398459777193441000e-01
1.793183138187799675e-01
2.560547887381862120e-01
2.709211401454065249e-01
1.492154195916719495e-01
1.787760080356698700e-01
2.445745796428692442e-01
2.708444368438940875e-01
2.122118351488106180e-01
2.821158298655805918e-01
2.532313959135420456e-01
2.269533787276859227e-01
2.508954028928135349e-01
2.014118805537451484e-01
1.924352484366532445e-01
2.268108582811888263e-01
2.330354217255917737e-01
2.140251668672706609e-01
2.729597057389470671e-01
2.606341160472989693e-01
1.957573160665214140e-01
3.179380075904654768e-01
2.316096865898049639e-01
3.045745804139708413e-01
1.820861436449005832e-01
1.968969696509929035e-01
2.143029105403913004e-01
2.510514495259147383e-01
2.319245998838437017e-01
2.721343089280058858e-01
2.170661240083265608e-01
2.177811373811513185e-01
2.219095326669566770e-01
2.097996055092481993e-01
2.136739331360633376e-01
2.595342200383801701e-01
2.514136697281612043e-01
2.046999606921385551e-01
1.560127510132406914e-01
1.677234173132625961e-01
2.609940685261140647e-01
1.164548807357638771e-01
1.979381502262808068e-01
1.353270795148818206e-01
1.898494916544944955e-01
1.648211416618430847e-01
1.474249507113617463e-01
1.675814020874917265e-01
1.348467547484251683e-01
1.436677753362449739e-01
1.141893476039035904e-01
1.265196152134782648e-01
1.001906919095487264e-01
9.810654949402709823e-02
9.416227651037406554e-02
1.419250375885989790e-01
1.099408732698397145e-01
7.834810083543772286e-02
9.427255705840394129e-02
1.099371688573208550e-01
6.557655826417838063e-02
1.428534976742461826e-01
5.202112955877014749e-02
5.318281689011827851e-02
6.745376002912616131e-02
1.064133902716866004e-01
3.632918589567724760e-02
1.585784202137861532e-01
1.103934027328692530e-01
1.713058283401971624e-02
3.789100643280408215e-02
1.663091783932998252e-02
-5.671934017096008640e-03
2.319547484999154308e-02
-1.876306786555781425e-02
-4.158597306738264637e-02
2.326586223005864748e-02
2.513690843902592967e-02
3.216660075753655090e-02
-1.309520390695967373e-02
9.974293078605093316e-03
-4.431368039570274253e-02
3.308388932186807907e-02
2.194482470575028280e-02
4.818423126528013911e-02
2.611863447815823691e-02
-3.040747591009209522e-02
5.215565521373700941e-02
6.313823955753261608e-02
-1.437690598632903813e-02
-3.038971356456264886e-02
2.573745978432454007e-02
3.331033382634560058e-03
3.913380070725602788e-02
-1.417899840909592028e-02
-3.082764533863726134e-02
2.702374421725156975e-02
-2.667495156431437184e-02
-1.113944096028174693e-02
-7.867349072943792543e-04
5.305223661091455767e-02
-9.315024130868527694e-03
1.145310942497682061e-02
-7.815806300785818617e-02
3.441447526811576563e-02
5.766958068544201371e-02
-1.905507561306328534e-03
5.093581375415174445e-03
1.433033779659659279e-02
-1.177315411285294322e-02
-3.371536452719697818e-02
-5.507728201557211822e-03
8.380708676582059036e-02
-8.166615653924833018e-03
-2.859661329791008538e-02
2.288267820970563138e-02
2.524374088179118236e-02
5.300540032365898963e-02
6.112514732142356605e-03
1.057541164059436628e-01
6.732538417292979749e-02
5.898190590985302739e-02
4.217530020917073519e-02
6.420217365834085532e-02
6.838624072228371986e-02
1.046121406248118058e-01
6.645969253237296592e-02
1.137938779909167947e-01
6.347511993254906226e-02
1.173989299095311439e-01
8.694494254674627054e-02
1.136022278443775263e-01
1.607655754025952288e-01
1.564374906681756383e-01
9.822088927922346946e-02
1.310859779667623015e-01
9.131795108016323159e-02
1.003200755387061577e-01
1.136237818517740195e-01
1.240450898635714616e-01
1.763365905508106346e-01
1.063591577094021579e-01
1.155478441730409811e-01
1.525557150802653583e-01
1.211021048027177693e-01
1.337676534142610563e-01
1.159444945275833055e-01
1.302572776979988856e-01
1.073234472258777772e-01
1.281066898204540616e-01
1.370268227897012969e-01
1.639401229170938668e-01
1.430241726474846264e-01
1.719402057292561681e-01
1.285387916256062191e-01
1.419147804073730423e-01
1.798045774723874834e-01
2.011537042400656228e-01
1.465151202631266858e-01
2.435206813140153304e-01
2.670347608075334112e-01
3.163750763713055192e-01
3.551331413273084991e-01
3.723087205805226119e-01
4.768797497823118459e-01
5.039900977271577487e-01
5.521333218636276241e-01
6.553251613419910360e-01
7.751871570178728854e-01
7.535998251513897905e-01
8.883233041554781106e-01
8.783379164945250839e-01
1.021201958070601989e+00
1.089081795222681670e+00
1.118005278841627037e+00
1.236414788082046190e+00
1.314573769276665693e+00
1.285643592201969110e+00
1.338940319783276767e+00
1.322434881293629738e+00
1.362388313598482004e+00
1.338576198917828641e+00
1.289987567301409177e+00
1.336776597889565821e+00
1.206137306756793759e+00
1.207399325920452737e+00
1.106299482489450758e+00
1.044871080192540269e+00
1.041758197596352797e+00
8.638650570834366382e-01
7.979278575067436652e-01
7.526663934457205052e-01
6.095666560082638741e-01
5.700621658865031582e-01
5.777242900587468144e-01
4.726749145253520412e-01
3.536441762091092622e-01
2.860008177113422256e-01
2.740020485391083671e-01
2.668242483579960633e-01
2.291917942103946781e-01
1.681188423552686384e-01
1.804113725029176662e-01
1.634427993379302668e-01
7.647975078247398750e-02
1.632937301259977658e-01
1.127888848405541045e-01
1.209318273628926244e-01
7.182005285133578887e-02
1.204719953324238091e-01
8.675748311240777388e-02
1.365503482402925794e-01
1.148666594048047274e-01
1.151960150935249227e-01
1.507765759261527339e-01
1.044001718517966748e-01
1.288516546361123949e-01
1.384423806028396431e-01
1.291098194521134168e-01
1.924027815559337384e-01
1.920165477614609595e-01
1.288839223411400725e-01
1.151079464476845726e-01
1.467132862871950438e-01
2.060858658885151296e-01
1.616978384285231718e-01
1.837994666722070902e-01
1.996491401492042350e-01
1.821277496675923480e-01
1.927141755151281222e-01
1.720288460398150809e-01
1.826140530044025045e-01
2.013174765896333929e-01
1.660813419834252236e-01
9.706858542483134955e-02
2.580453699046206806e-01
1.283344382680201290e-01
2.387455199384863058e-01
2.238791358394923714e-01
2.185261221630298012e-01
2.020155953318302777e-01
1.365415742041427016e-01
2.589382993436044611e-01
1.760413204414905119e-01
1.793029992470015488e-01
1.838972305865199108e-01
2.264649355523665475e-01
2.162006587051077955e-01
2.332150121912969776e-01
2.197012996664808315e-01
1.727367364233048652e-01
1.894707399835555139e-01
1.730918053994775496e-01
1.803417787484149493e-01
2.224849558743275946e-01
1.575674090931228066e-01
1.407191206802220207e-01
1.371392230719990502e-01
1.984861393302508603e-01
1.603105223675289626e-01
2.055577330642294198e-01
1.474958582948569796e-01
1.452854072907970584e-01
6.419605782300778773e-02
1.704256141458007079e-01
1.102951032807088227e-01
1.188424807760097290e-01
1.057504898667136761e-01
1.237424139740166407e-01
1.221696593194795399e-01
9.780062820279220026e-02
9.473799005770619508e-02
1.137181992496602151e-01
7.664115200170619480e-02
1.221195274981694834e-01
3.079480772002968214e-02
7.540953930350208223e-02
6.877977432502560551e-02
5.840126929301179409e-02
6.640189695075585097e-02
3.216727271962244866e-02
8.713516855758196566e-02
2.954044274417778893e-02
4.647187324888619325e-02
5.207089420734388463e-02
3.617628464587022141e-02
6.416647315406692753e-02
2.875817372458652765e-02
5.659845812529839398e-02
-2.946075786841307470e-02
2.278026831651784601e-02
7.541741306748367402e-02
-8.747116019068829074e-03
4.307434239713438945e-02
-3.719532149971767343e-02
1.614032724082948428e-02
-8.639126878353234340e-03
-5.064695574181148074e-03
-4.890871720750297746e-02
-6.335498018454358005e-02
3.321285818976780352e-02
3.072647581111177806e-02
-2.265172794750840157e-02
3.473303349510633437e-02
-1.917244979632823712e-02
-9.025165187950608126e-03
5.431434974593404852e-03
-4.136808845973028587e-02
-1.768753557376421398e-02
4.520417020516026563e-02
-1.843083320700697469e-02
2.171414085419993978e-03
-1.631338891871045998e-02
-2.553164537653794530e-02
-5.259861352768580717e-02
-4.592211356073492429e-02
-4.489359961314672021e-02
-7.922701839473939023e-02
-1.988477999831232343e-02
1.222559723689992106e-02
2.478753447637486312e-02
-1.843284942866346005e-02
-5.931152085459291678e-02
-2.950513361780749896e-02
1.146936446361439960e-02
-5.458336564905293120e-02
-2.765370537773061133e-02
-2.461844353339230629e-03
-4.730465012217191512e-02
-6.355923802503035680e-02
-4.849691477391618322e-02
9.981441856570009985e-03
-5.414918327110603002e-02
-6.798093677803657142e-02
-7.966687414666669131e-03
6.909409792709983456e-02
5.904870536418353744e-03
1.807755044448322579e-02
-3.482479033678934771e-02
5.097864676527641414e-02
-2.740211270413166894e-02
-1.349295235895815043e-02
1.408545580118769625e-02
4.908297413617146443e-03
4.018494621131313976e-02
1.912221801346110361e-02
6.022962332261558305e-03
9.186332752166329052e-02
7.349458576964339185e-02
5.229537684311968970e-02
6.293047117333153140e-03
7.484316809283256267e-02
4.700178400064593254e-02
6.419847788316895842e-02
8.100903861482464108e-02
6.674775762248552624e-02
8.032482933064795383e-02
1.060802226634041667e-01
9.525864954132076678e-02
1.045379088403312340e-01
6.565988916823231603e-02
1.173932070448337611e-01
7.624005472645589698e-02
6.358020504403266715e-02
8.267349725113147529e-02
1.303431360494385072e-01
5.296036327920208842e-02
1.104852892653178376e-01
8.205410418645095461e-02
1.418991241503468892e-01
1.336190594068410731e-01
7.949200945333828594e-02
6.351806761410982993e-02
7.692491925220348858e-02
7.781381409174512043e-02
1.129119101252511054e-01
1.281888704784249211e-01
1.618544513666345386e-01
7.827814398698948462e-02
1.300768151695304853e-01
1.266024473970089603e-01
1.538863606532536177e-01
1.546550835858151174e-01
1.743933369396849786e-01
2.652869244704605389e-01
2.450504429768783354e-01
2.593043900302828830e-01
3.310765016550400452e-01
3.512273539388978683e-01
4.650294192635817669e-01
4.656126934326813571e-01
6.118992785690644531e-01
6.339034663574319994e-01
6.999604806840757920e-01
7.929067312249956645e-01
8.635243840306631169e-01
9.110356558802477078e-01
9.476856006147396094e-01
1.127291473970546853e+00
1.113202858169551446e+00
1.199293362078998726e+00
1.239428972977656418e+00
1.276372156567483929e+00
1.374257927503023335e+00
1.308340251043482949e+00
1.382690580435413485e+00
1.354812828962062010e+00
1.320509981559036650e+00
1.285526385003936234e+00
1.275398605226265802e+00
1.174663265117709132e+00
1.133419675468254839e+00
1.069730874375361962e+00
9.657661420491499005e-01
9.248160980647677221e-01
8.364483890844301994e-01
7.493499628067642471e-01
6.877585521945940306e-01
5.521489211437502487e-01
5.138893717680595996e-01
4.607786862856197430e-01
3.913216442081046686e-01
3.700908086163406940e-01
3.114638179808741358e-01
2.868604228567099845e-01
2.802301089813683532e-01
1.847879009321730381e-01
2.067138452671580806e-01
1.358294017580456425e-01
1.643144441445700821e-01
1.356238995260762858e-01
1.369777376523036161e-01
1.315996275491221890e-01
1.062067637401673814e-01
1.170914237388665374e-01
1.575743748732708061e-01
1.296555879064440475e-01
1.025607764897126656e-01
1.064060233701239477e-01
8.581956767765984428e-02
1.710278639097848052e-01
1.386647585141404238e-01
8.324339838359121058e-02
1.738804209401154377e-01
1.881286223272630176e-01
1.316292585072973698e-01
1.013334426002953370e-01
1.577538614921865923e-01
1.267546272709903499e-01
1.819775148346380877e-01
2.027472356809932874e-01
1.498640802852209686e-01
2.091821151525362354e-01
1.067867516250975979e-01
1.320637122154517396e-01
2.103539518067116809e-01
2.018547314369963930e-01
1.778315195138613358e-01
1.497409746456925261e-01
1.753905400981115859e-01
1.912074922802227406e-01
2.026668499351089170e-01
2.649847879155631247e-01
2.484204150591976801e-01
1.893276982808787812e-01
2.352149080127159397e-01
1.638218420398755426e-01
2.447821373209329299e-01
2.817928579352522167e-01
2.081115610818894401e-01
2.246984471307621745e-01
1.842742173860036359e-01
2.110134157810193978e-01
2.421840709943547387e-01
1.238786956221804431e-01
2.166483858462871781e-01
1.730936298216766700e-01
1.820611259450364283e-01
1.461777026396871570e-01
1.837173356611114805e-01
1.955337869804392725e-01
1.615411341648874399e-01
1.707494362555716239e-01
1.540522882331131216e-01
1.840302744757782993e-01
1.802796133967367320e-01
1.563531254038841856e-01
2.081601682076753557e-01
2.190250775311655684e-01
1.624643115789667080e-01
1.605312388897266462e-01
1.670276825439092616e-01
1.672956135418643686e-01
9.905335498157238905e-02
1.490692568433072407e-01
1.128683849143736484e-01
1.473317817854997436e-01
1.080007751403437022e-01
7.897849531767295317e-02
1.511542599838535672e-01
1.478187692842094780e-01
1.049569768062840608e-01
1.534561043266413627e-01
8.858416214726551330e-02
1.001982375556015326e-01
1.166950011785400504e-01
9.402933883862467368e-02
1.166579340208324933e-01
7.979752652581363626e-02
6.438388225208299676e-02
4.493353681820184270e-02
1.000032231221223006e-01
4.019735946786684444e-02
4.914704019152189157e-02
1.011421377006543887e-02
3.868508489674393758e-02
4.469770107965384542e-02
6.818390228224335825e-03
1.285263384379581666e-02
8.688327859056377278e-03
1.715330600740878550e-02
3.591082220773077205e-02
-1.542387179365922040e-02
1.728496844238718369e-02
-1.784554501549186559e-02
2.239380070433262537e-03
5.283997814972692109e-03
4.924958380936730884e-02
1.105766720783696311e-02
2.175360061604242334e-02
3.443931375103424786e-02
-1.760354752668258013e-02
-3.814872728484582087e-02
4.615083377843927359e-02
-6.350756929594511546e-02
3.449583046546592785e-02
4.024404860283577190e-02
1.978487375342104920e-02
4.658792715211070024e-02
4.600913922075841600e-02
2.034817034677073588e-02
5.239008064680972243e-03
2.252387534155149765e-02
-7.380193810291857393e-02
-4.996801547463025628e-02
-1.885349776332370664e-02
1.759014621781852111e-02
5.361887261977456992e-02
2.100020287156337956e-03
2.542631693389059422e-02
3.493882849661907042e-02
1.224038487153614532e-02
2.618898790997297582e-02
-6.701657617625016855e-03
3.867841868936602867e-02
-3.558837372524656373e-02
5.703256451941408900e-02
1.370186740587642227e-02
1.239584394789733021e-02
4.233046883462396326e-02
2.252966762152466829e-02
8.876338298746538902e-03
7.923844046520918394e-02
4.111728943966652672e-02
8.645358918671963711e-02
6.804526480845297931e-02
4.050048721451623979e-02
2.016664546835234342e-02
6.901706590042397393e-02
1.093030217839361107e-01
4.698404081564327983e-02
7.623453661909120049e-02
1.039002070738095085e-01
7.553517284112967745e-02
8.697422526682069277e-02
8.401491652184610304e-02
1.688507277597948164e-01
8.462426170695291905e-02
3.492054385857949750e-02
1.304638909640315203e-01
1.004238656713502958e-01
1.217264872541269083e-01
1.204686611344641251e-01
1.351541397339873496e-01
6.581586417573431769e-02
1.196952045773671258e-01
1.328399038705133650e-01
1.486455486219051547e-01
1.236736195439734620e-01
1.711972250448631494e-01
1.522100215452411864e-01
1.783873165755757439e-01
1.077406337042653151e-01
1.001114974777197741e-01
1.212722454142589612e-01
1.701177998675095504e-01
1.394899307896970697e-01
1.215820267177529501e-01
1.087226671371726988e-01
1.160679718657546822e-01
1.598173902275642766e-01
1.175464824106305650e-01
1.532821932322863401e-01
1.887393548708688196e-01
1.435194536509900587e-01
1.689788812315209665e-01
1.341360628553822931e-01
2.288510223028771551e-01
2.532809585376316619e-01
2.471031973800361103e-01
2.355879337882618718e-01
3.272764786718328489e-01
3.738920760956904177e-01
4.304115452615933091e-01
4.433433453921013512e-01
5.102548851152717280e-01
5.645698962385504727e-01
6.510202862366963883e-01
6.348165463548521847e-01
8.120992916030923547e-01
8.663144639255057067e-01
8.945081897639006741e-01
1.001024777794727871e+00
1.113855594141337058e+00
1.132194838124289449e+00
1.200286793504457883e+00
1.287919150418850966e+00
1.323056526680347789e+00
1.346882467048174048e+00
1.400229834503100346e+00
1.403673869642334093e+00
1.419148313425382169e+00
1.431259014817634068e+00
1.368567615499614920e+00
1.288919741494598981e+00
1.291745915511255172e+00
1.186863537287139669e+00
1.157724884597404857e+00
1.023977971671906184e+00
9.715300867905887205e-01
8.962702270075157962e-01
8.108409395371652950e-01
7.240466268132120797e-01
6.567194875605375515e-01
5.849270729765572163e-01
5.178177171994411410e-01
5.044523848888919915e-01
4.274351475378815879e-01
3.283873263738064097e-01
3.480155548504875740e-01
3.034569877156918505e-01
2.617941563889342182e-01
2.848149847986439775e-01
2.234985944300671434e-01
2.447369829261217544e-01
2.199642859772379944e-01
1.036005872300902186e-01
1.177847171889930961e-01
1.745193602642786945e-01
2.163741444451161289e-01
1.630296687113792498e-01
1.678775101231057831e-01
1.275250097023127027e-01
2.227553371627786771e-01
1.715738515877689441e-01
2.002470599164652421e-01
1.831415663527548865e-01
1.445503178538676825e-01
2.510624976186099921e-01
1.917263750243465292e-01
1.656865295864510812e-01
1.902536703903609794e-01
1.891515728139835095e-01
2.074685035393269705e-01
1.711157184452788138e-01
2.271190135955660216e-01
1.740727331871549377e-01
2.040946611662538823e-01
2.276061092583947509e-01
2.343382969334817378e-01
2.024533899358847422e-01
2.648577860245723281e-01
2.620437469258066754e-01
2.705832714941882600e-01
2.253237442372767463e-01
2.738148802291953121e-01
2.439023715579801965e-01
2.431293814541920506e-01
2.227446472972778313e-01
2.565846958625039309e-01
2.641840946692521896e-01
2.198604938046007928e-01
2.748669872703218275e-01
2.898209128732863182e-01
2.217780540569630476e-01
2.595587531999251629e-01
2.425185272011768367e-01
2.449918371244935167e-01
2.145344726679817848e-01
2.437497548401116598e-01
2.714706706609488762e-01
2.755685994481416046e-01
2.346887495831188886e-01
2.328795492800173339e-01
1.987219936730373893e-01
2.337130987992993847e-01
2.179892847324071126e-01
2.197433032120109653e-01
2.302539105550416576e-01
2.293254028007648826e-01
2.799045330744259208e-01
2.023349644662788549e-01
1.738832198753223202e-01
1.647936018802977076e-01
1.439858331684486237e-01
2.176148737276135670e-01
1.926691981542854315e-01
1.808912483270360971e-01
1.929620042791236889e-01
1.410808016944665733e-01
1.650154494786351123e-01
1.708120952632129486e-01
1.709366249712083730e-01
1.271792276159424695e-01
2.103496955128879575e-01
1.471511277295663445e-01
1.919702520921734434e-01
2.140771834837499055e-01
1.586649750614600174e-01
1.535547844320946098e-01
1.083041118885261361e-01
1.512323069533061948e-01
1.595631413029258705e-01
1.391286605616679772e-01
1.503696767329371908e-01
8.277848375996862962e-02
8.502677158555127512e-02
6.665565478711099612e-02
1.517290633382029907e-01
5.881546558733906360e-02
7.748401376573879618e-02
8.204768611302470926e-02
1.465565767395532459e-01
1.140764317569173680e-01
8.154225735456462065e-02
1.214245139716624844e-01
6.171611013794111450e-02
9.305239249764878096e-02
6.219698270731985335e-02
7.954135862855284123e-02
3.269281004836264992e-02
1.022687748201014796e-01
6.857075290227113151e-02
1.055765321476430096e-01
4.657107347641972761e-02
9.257912099441335807e-02
9.302534842402124249e-02
4.694917168675809965e-02
5.738618941883376345e-02
4.067593000176707163e-02
3.105123555940190669e-02
2.273553235843744219e-02
5.923435497879527001e-02
5.204528028610291152e-03
7.987112246828069473e-02
4.474485738242203747e-02
2.544997796287965311e-02
3.465854122210160204e-02
4.007412478452264393e-02
3.866650585354966529e-02
1.414710866100100245e-02
5.062947383401368573e-02
6.339316578324466489e-02
8.805274393857623338e-02
5.302719531819001519e-02
5.881721975612275166e-02
5.133709849649700785e-02
1.759040203908681516e-03
3.231890792431253018e-02
8.451774215751178820e-02
1.023994126256904669e-01
5.723104376601884091e-02
7.314574736885583184e-02
2.703331202931578969e-02
9.856608839536923350e-02
1.025955104055547296e-01
7.150938532934339453e-02
1.022501953900202265e-01
9.669481023449992552e-02
6.349598142315444893e-02
3.377725859459812519e-02
9.618374990258986290e-02
1.442910276233762557e-01
1.167719190143048646e-01
8.703392147914765231e-02
1.219540755509577745e-01
1.579669308401815964e-01
1.171542606330952530e-01
1.088167825042306303e-01
1.389516418177239032e-01
1.134849076045797295e-01
1.363584739073121777e-01
1.448754159308625333e-01
1.142228855897511886e-01
1.680242322799732069e-01
1.551911742224462987e-01
1.541493455254366596e-01
9.650833787491078231e-02
1.700047082291133160e-01
1.790661965085905416e-01
1.448146878961002748e-01
2.071941268700935590e-01
1.601469316183864455e-01
1.984398282400707259e-01
1.873940787134295294e-01
1.925855020797005157e-01
2.013962911933395161e-01
2.006354329752596810e-01
1.861658802465833429e-01
1.800484092679973669e-01
2.021418601890106748e-01
2.138609674675631955e-01
1.346826752853229614e-01
2.283874085147394595e-01
1.599789485397532240e-01
1.798768515384482347e-01
2.285739511257899870e-01
2.152168322082649576e-01
1.710386341380206732e-01
1.902507839227330355e-01
2.219559714080450441e-01
2.218624458730087401e-01
2.560960580917053808e-01
2.430989692204801600e-01
2.509472753633448239e-01
3.576549598767831406e-01
3.483504123323778456e-01
3.493962485656131323e-01
4.120734357905274647e-01
5.063814402002951853e-01
5.507504330983140628e-01
6.411558836693660446e-01
7.211230673575256267e-01
6.957744376245453832e-01
8.019976045411950638e-01
9.095528289610941286e-01
9.113247613713933992e-01
1.059980393033476798e+00
1.127960152129296789e+00
1.195717552119930138e+00
1.249676283079825811e+00
1.306128005129995495e+00
1.368574719630752279e+00
1.349289492443573213e+00
1.479863520468036375e+00
1.483117862375754159e+00
1.426991329734752734e+00
1.433655421904569627e+00
1.399141076514005100e+00
1.417273345714364696e+00
1.332874463279251964e+00
1.270699785725933006e+00
1.210017996918221872e+00
1.112361562505534085e+00
1.053848894330278618e+00
1.007242220238702801e+00
8.632185756344536998e-01
8.334521815762341301e-01
7.521126477438995206e-01
6.495053215848922701e-01
5.900133520466706027e-01
4.802135278448973477e-01
4.616822321574342580e-01
4.396527322812644467e-01
3.930886103467691739e-01
3.671094360938986778e-01
3.259299383973823794e-01
2.930742573550913499e-01
2.861724587816422138e-01
2.617325409124206526e-01
2.058862011297978856e-01
1.732771633529853195e-01
2.159323486646446133e-01
1.689933105052967566e-01
1.715386307602292382e-01
1.928028535462638082e-01
2.135978499475553460e-01
2.184830685372065318e-01
2.090962444159178979e-01
2.355188708459230451e-01
2.588166719844406383e-01
2.011792095064283137e-01
1.810250455939874936e-01
2.027167387345038263e-01
2.498212126536901445e-01
2.398686374507297270e-01
2.313688909715689301e-01
1.955364779301422828e-01
2.627586923577893696e-01
2.259773836688204196e-01
3.049734854872488965e-01
2.496746327510943331e-01
2.596238750183212374e-01
2.678283248635938696e-01
2.371754270966942579e-01
3.488337786130442653e-01
2.897966201115137475e-01
2.579715497462017892e-01
3.001384282697888151e-01
3.167830719632798719e-01
3.143741642404263570e-01
3.326147670581283688e-01
2.808592892209560432e-01
3.074952623661761364e-01
3.101319296981768225e-01
2.556751716864599233e-01
2.787021163246398703e-01
2.780119055505067549e-01
2.641822636752325093e-01
3.202439878595810252e-01
2.306156923135186942e-01
2.424813933822391743e-01
2.918135525827553201e-01
3.107911714230356393e-01
2.724954425982443196e-01
2.952305809829485761e-01
3.448236118844112963e-01
2.972605137512719375e-01
2.542208322809775267e-01
2.939385582256456297e-01
2.864485821796840526e-01
2.512103463760023692e-01
2.392539653669510935e-01
2.707978530252537208e-01
2.814779823074116671e-01
2.709434648272076585e-01
2.900750113992814905e-01
2.776447656807914388e-01
2.593481612532451130e-01
2.354282382002570728e-01
1.954766484704177909e-01
2.074981781357811417e-01
1.918531050560833562e-01
2.378977793440518740e-01
1.799381623292167776e-01
2.227429450713810932e-01
2.242169728346512514e-01
1.577492389485010971e-01
1.714701451951139155e-01
1.339553393123829039e-01
2.105718116245040850e-01
1.655834210521407168e-01
1.881541937980073520e-01
1.192304338710952205e-01
1.634562239648099380e-01
1.811832962553291959e-01
1.412078050385077721e-01
1.938420235500207256e-01
1.314784480061300109e-01
1.780778649910239042e-01
1.225531772980038847e-01
1.294598037589964057e-01
1.110924985813623173e-01
1.378230866127412579e-01
8.820444698412510665e-02
1.668253436610665774e-01
1.454258803321684945e-01
1.002228370552258885e-01
1.161877829851645089e-01
1.015955839049920983e-01
7.754259831004572945e-02
7.942074808041182932e-02
9.886532713737997136e-02
1.399573706027944509e-01
7.097113652473230339e-02
1.087813884863346736e-01
1.041495985269252217e-01
4.636389207007086954e-02
9.006954228776151150e-02
1.401947116548033223e-01
7.952311076542332990e-02
7.232445359870666446e-02
1.047097212890060747e-01
1.117830165378880941e-01
9.579364457478231620e-02
2.809998434347493745e-02
6.188624223808090324e-02
2.856056456408914354e-02
5.086974158725428297e-02
2.837520828872862333e-02
8.005494889245587387e-02
4.765123675976636747e-02
8.738293770594149357e-02
5.462466201133243937e-02
1.120032086487546957e-01
1.110144125715732955e-01
4.193589837425161504e-03
7.125418552009030182e-02
1.030527193081452741e-01
8.724564090163416941e-02
7.011925753439485209e-02
8.722356499850536515e-02
8.030860540870304876e-02
5.218634357684433928e-02
5.163515725989217819e-02
7.712792081853937776e-02
2.856822341794141434e-02
7.001001124544284360e-02
1.137295065353779167e-01
7.005759217314046217e-02
1.099985056433379765e-01
3.019811525884934927e-02
7.582849022747681356e-02
1.106612788340749221e-01
9.640859486420312596e-02
1.148669583146363360e-01
1.351640325604892556e-01
1.198949971374196344e-01
1.275628509665430732e-01
1.226037335236744574e-01
1.177304571163931002e-01
1.458780967605100565e-01
1.286427471895514318e-01
1.063466424816069955e-01
1.536081675578440109e-01
1.589653279777406281e-01
1.402669649035171440e-01
1.774957886657075323e-01
1.515013048558818132e-01
1.522743392110674221e-01
2.018736023724045647e-01
1.601481468005619968e-01
2.005574917798759738e-01
2.166040957619186913e-01
1.510634619159210434e-01
1.862246098117379400e-01
2.142106751997283620e-01
2.063925122048993754e-01
2.234684460892302216e-01
1.841896951909747504e-01
2.271791422961443041e-01
1.962833362502837131e-01
1.848614381701944587e-01
2.118959879904461496e-01
1.503570046356611511e-01
1.524362217126397634e-01
1.520299682567936850e-01
2.264963869479095226e-01
1.499480535334737630e-01
2.570728920480324642e-01
2.030048322430729746e-01
1.972000476629056642e-01
1.937791059940657257e-01
2.436675571182581324e-01
2.323238810254700526e-01
2.115803022721429172e-01
2.135727864388382580e-01
2.304430963309355707e-01
2.807023468117065823e-01
2.796483360672591956e-01
3.678577652394913744e-01
3.233585159261079256e-01
3.042820345306102570e-01
4.581193511901775484e-01
4.656066119495305689e-01
5.357585279504066822e-01
6.006712396930771192e-01
6.463079235996385119e-01
6.981936425886341446e-01
7.836391426372744107e-01
8.611635243165429721e-01
9.149487798240790726e-01
1.037468006532360265e+00
1.062737444038708290e+00
1.192269892411581322e+00
1.292380653606282737e+00
1.292153423849632166e+00
1.353504536091322707e+00
1.388061755661792906e+00
1.448380973539884709e+00
1.421412677462855934e+00
1.449823146328224732e+00
1.497651248220959186e+00
1.411907559034294213e+00
1.378202687288645922e+00
1.340804095219008119e+00
1.270568983514136718e+00
1.207327255444374359e+00
1.157624770585864216e+00
1.040329248209578061e+00
9.790235965442229960e-01
9.385676721774058873e-01
8.634973967621936142e-01
7.372185702685799535e-01
6.532305473341399882e-01
6.886647304740858289e-01
5.323644331476697911e-01
4.862372319390221853e-01
4.023314064513986432e-01
3.780687071706821945e-01
3.323622682306877074e-01
2.993625539829081195e-01
2.305817915729253265e-01
2.497741733561091304e-01
2.225161354867981611e-01
2.262408098722695216e-01
2.406564828957424573e-01
1.723629400518060795e-01
1.839505292923324098e-01
1.878580709123173764e-01
1.645182142384259694e-01
1.860225182825901991e-01
2.314618936392301429e-01
1.470760902111876434e-01
1.445541813591173785e-01
1.836707592354333840e-01
1.995950918932708484e-01
1.714157129413519109e-01
2.142647507365417203e-01
1.824861055444936819e-01
2.265185667591718133e-01
1.981683917783063908e-01
2.936414771835148541e-01
3.005927818253539829e-01
2.404249833610610787e-01
2.861210185144313356e-01
2.357905123959025961e-01
3.103364443644286430e-01
2.904016235582686511e-01
2.621881319784231668e-01
2.161569295900803711e-01
2.820284365813822136e-01
3.509252050415591628e-01
2.793758208143712340e-01
2.377056843095365080e-01
2.281542729429928973e-01
2.755355153425921855e-01
2.948529233543225603e-01
3.170321056461307130e-01
2.991183123118130172e-01
2.045297698271722198e-01
2.051994712126205267e-01
2.885663684020027819e-01
2.585829084791703147e-01
2.985130428805339298e-01
2.858677875991134099e-01
2.190239626531663986e-01
3.041798964066949051e-01
2.361658271195232750e-01
2.983829276720437185e-01
2.584438660128782761e-01
2.764546197601831512e-01
2.570062175494104983e-01
2.535753857753941798e-01
2.920968008994450082e-01
2.700808140637999122e-01
2.737053785549621310e-01
2.804677296107227491e-01
2.504853312289978540e-01
2.555375249110118929e-01
2.166734234455637287e-01
2.009761043110162293e-01
2.720933093341348918e-01
2.136350677638579332e-01
2.378132050372996076e-01
2.167925417204365490e-01
1.597777375902781904e-01
2.486736387030736017e-01
2.507599016971586159e-01
2.040583434665794449e-01
1.541270163446942232e-01
1.924297736530190539e-01
2.089998605531916964e-01
1.862545516970799120e-01
2.045910610822719300e-01
1.478726164118322195e-01
1.594511391798588973e-01
1.554246171311621239e-01
1.447918053446539122e-01
1.512769866471148916e-01
1.024292780540247971e-01
1.471854934495513689e-01
1.148039572336118086e-01
8.431154038874685841e-02
1.708059775587829343e-01
1.399956573710124386e-01
9.684792362883969108e-02
7.177474407029917070e-02
1.056475466675183411e-01
8.940413349495021644e-02
8.734346527363329171e-02
8.089264370252791103e-02
8.264112161659623035e-02
7.695813290184055910e-02
6.270547432935169585e-02
8.338548943291838184e-03
7.582026494017721219e-02
5.265890258895568332e-02
-6.529783180458496178e-03
7.498381397178054131e-02
6.986449216106888072e-02
8.561367970561355178e-02
1.052151836029907167e-01
-1.767930349814724952e-03
8.846318065234183570e-02
3.013796332609972040e-02
8.145386248377990690e-02
9.342963433686804486e-02
5.701818110545850415e-02
4.958691346915414938e-02
1.245757474323852185e-02
8.025573243007383395e-02
-1.190851913790781300e-02
1.662694060002657681e-02
-9.790871962003309947e-03
2.489807944224985831e-02
6.951933149716199578e-02
4.330688413516557700e-02
1.286827877730652853e-02
-9.276011207437455039e-03
-3.734489448483924168e-03
-3.393558831731240816e-02
4.376630116905758788e-03
5.033314413004348620e-02
4.399130462553414028e-02
8.213136308830578519e-03
4.699964843415426613e-02
2.180952871573950055e-02
4.450240853253804862e-02
4.031557036046225229e-02
-5.577034954771053696e-03
3.456313453366041677e-03
6.212774084289882093e-02
4.534461936729893006e-02
5.192170459498146595e-02
2.660737543450961140e-02
3.098409270321746123e-02
7.300574691988495624e-02
1.190889567562263690e-02
7.541573391770488299e-02
4.132265090046056272e-02
4.387437110869006618e-02
1.118203209395186165e-01
8.814200446481289253e-02
9.797561850887338830e-02
5.052890690979527227e-02
5.015362829457941513e-02
1.049765992302148787e-01
1.044695414233368924e-01
1.022275269121469266e-01
1.186730621631195137e-01
1.286797488694882419e-01
6.654328319084130972e-02
5.646662046916326588e-02
1.349781066914146344e-01
1.622838194981479909e-01
1.556521226172089822e-01
1.200878401458260331e-01
1.158954002126632299e-01
1.484571103876221321e-01
9.064266769999035356e-02
1.875082924828440356e-01
1.160798988631267098e-01
1.400969405459832895e-01
1.642684402547021638e-01
1.355329140190197901e-01
1.254822289496158871e-01
1.465356012314226741e-01
1.883824817713949107e-01
1.191997463621680547e-01
1.274087563539000600e-01
1.370581884986793175e-01
1.368926717738836452e-01
1.746193453445026578e-01
1.477411905403668846e-01
1.582499217446771134e-01
1.449848595672087181e-01
1.444642721180550982e-01
1.457226540090226508e-01
1.793286313493158701e-01
1.685266170706914701e-01
1.553229952026480010e-01
1.343532217260344497e-01
2.401581695940193384e-01
1.608833601672687297e-01
2.814881756579528105e-01
2.990896893578431359e-01
3.515007519570937933e-01
3.314296207776168401e-01
3.980324777573968631e-01
4.900056245378785480e-01
5.245484065643853944e-01
5.683535989052118653e-01
6.515727683653507185e-01
7.392100328055515313e-01
7.676788954723042790e-01
8.418842552194421014e-01
9.223107977857980533e-01
1.063283654938498080e+00
1.026080349187384000e+00
1.212367633064030503e+00
1.218723614902076147e+00
1.305683749679651617e+00
1.347275027132406322e+00
1.382147250069210243e+00
1.374915897204661785e+00
1.455234511780181483e+00
1.358510880060561421e+00
1.349771608103676135e+00
1.335249427230448260e+00
1.298794020741489863e+00
1.278428753827468345e+00
1.181635428267451271e+00
1.115432333953144450e+00
1.020421634290842094e+00
9.552383024992203708e-01
9.219301321505156688e-01
7.888232370663711412e-01
7.095648788407490359e-01
6.849213522981986157e-01
5.453008102046514871e-01
5.247239856106429290e-01
4.389524228506394010e-01
3.910185836464896703e-01
4.002208141302376343e-01
3.245354075513065539e-01
2.568871633902915508e-01
2.782559297464785031e-01
2.032192445852751272e-01
1.957316920639589064e-01
1.892310019547307764e-01
1.359518082973844855e-01
1.557986271494877506e-01
1.529647062131517521e-01
1.541999203901223137e-01
1.491944509779128958e-01
1.395406460412624283e-01
8.252631439659176282e-02
1.381655687003217614e-01
1.504348604606628448e-01
1.220787727026395042e-01
1.342068211010392642e-01
1.523069078288070144e-01
1.782537881582017536e-01
1.381284620682261544e-01
1.517179138987806986e-01
2.045176526612759726e-01
2.246932597013996391e-01
1.610105026579894127e-01
1.510861815652663753e-01
1.702770889350900263e-01
2.470492561258882391e-01
2.000131299675979024e-01
2.276843470321334439e-01
1.517883252709517905e-01
2.114037325392151556e-01
1.988324427419012330e-01
2.152990687508934409e-01
1.982944806617875644e-01
1.959012085436791228e-01
2.426778534319168346e-01
2.114093521635118933e-01
1.976668436742428647e-01
2.629756696834205654e-01
2.971570249336834557e-01
1.961977417815258529e-01
2.439140435607360102e-01
1.747003657270041754e-01
2.700935069531839039e-01
2.467525445054611910e-01
2.021268059396072181e-01
2.590389046948849971e-01
2.029071994109130639e-01
2.345251444347307979e-01
2.450461495287712399e-01
1.902990794961520460e-01
2.354742807244577518e-01
1.755936298406490792e-01
1.883857401864107717e-01
1.921817692335153482e-01
2.596292809451015704e-01
1.738586471881205797e-01
1.346737645015025631e-01
2.110595833828663725e-01
1.937611325165702059e-01
1.468239832700191649e-01
1.009697186123386659e-01
1.501955833227090198e-01
1.511385958568498555e-01
1.428421207796880255e-01
1.779975797433287210e-01
1.772867587236520437e-01
1.514064310362585042e-01
1.818614825067472740e-01
1.673338350542715181e-01
8.235334156991494514e-02
1.086748593220234760e-01
1.318719236753216340e-01
1.410667123537949208e-01
1.685325878075075723e-01
1.031775853338234017e-01
5.526949650436400324e-02
1.139377226694098522e-01
3.094772874195900886e-02
6.330374359095811143e-02
8.953490864672383753e-02
9.706854257938522801e-02
1.435893645793394902e-01
8.625908481627915514e-02
9.872849948295495115e-02
4.080759264662283531e-02
7.366808519875928107e-02
4.648463001094800540e-02
3.160392956011931487e-02
1.636797770214760278e-02
-2.966705261750045286e-03
4.893284103432460341e-02
1.408482473281180702e-02
6.153383747392870973e-02
-5.104843975092941688e-03
2.901050271082769583e-02
4.207338975701088724e-02
-1.278518536032353936e-02
8.215759018714768880e-02
7.159911746748895411e-02
2.123834725665536827e-02
-3.663971985846149748e-03
-6.103491444893919399e-03
-3.220611253100576221e-02
4.579239988452732391e-02
-6.197219010698336999e-02
-1.241358094244626037e-02
2.376099174856837609e-02
-3.512210986114829708e-02
-6.282514458583229877e-02
-3.598410831809985277e-03
-2.228542789214081610e-02
-1.862815304862287108e-02
-2.739497812746815447e-02
3.939665427792902325e-02
-7.791747465013942192e-03
6.582897797523155903e-03
1.333171958796602191e-02
-2.975052992122538195e-02
-1.786215946891388934e-02
-5.674576820423091195e-03
-4.251753649050183520e-02
4.291805792173093714e-03
-6.233277044625197549e-02
-2.620194199232718860e-02
-4.171837957716699463e-02
-5.991022858693270670e-02
-1.028175177746328342e-02
-6.251068614131999324e-02
-7.713137157472807481e-03
5.982287480640460786e-03
4.647384109910177724e-02
5.462805923292296528e-02
-1.000004207327938877e-01
2.149425577512875662e-02
-7.514068398922192638e-02
-4.787408485868471786e-02
1.990539245133596258e-02
3.822720425414247170e-03
-1.069696447869618317e-02
-1.304855698430533451e-02
-5.430722015506539435e-03
1.629002468952604060e-02
-1.100472022984019804e-02
-9.571688610004541742e-03
5.611711978251884836e-02
2.300118410111971767e-02
6.215248464162176356e-02
7.919916285500822051e-02
6.737997712232372816e-02
1.582511587823113436e-02
9.762817884728343387e-02
5.930918495570158128e-02
1.038495572433335845e-01
9.388066548241807974e-02
6.078380600279750801e-02
8.182694934783749097e-02
9.675584423910082998e-02
8.234545527655731667e-02
4.230495471502482979e-02
7.210497021585654531e-02
1.062924227642910863e-01
7.969483029268342733e-02
1.140813645925035924e-01
7.481005028473286522e-02
8.680697469433190649e-02
1.549599180822052724e-01
6.963073594336754990e-02
1.005140867631182933e-01
1.055271397882138196e-01
9.419494981254647459e-02
7.949962910721378173e-02
7.324413812611840768e-02
9.176724837110733501e-02
1.291434046887646736e-01
1.120342129684424315e-01
1.109933212397501701e-01
1.357443429251062872e-01
5.923860748850786478e-02
1.160252921841051221e-01
1.250849506165675473e-01
7.958929992608829163e-02
1.826130125460171671e-01
1.402020723402973568e-01
2.036118962663052423e-01
2.025871871748898267e-01
2.251439076943585194e-01
2.920207501071513390e-01
3.376759889010482185e-01
3.267972219714870286e-01
3.663043423258180997e-01
4.952412100842216169e-01
4.856538160494184297e-01
5.446365717380626803e-01
6.232172909093198765e-01
7.226348021022019896e-01
7.494506116033015086e-01
8.845642453132934735e-01
9.936603566576349689e-01
1.023643477105850685e+00
1.125375079125540578e+00
1.134729832520220416e+00
1.242784501707771216e+00
1.281066963575375528e+00
1.284976462674424447e+00
1.321070945759789117e+00
1.348478938234690672e+00
1.367801110384263552e+00
1.303662612015234146e+00
1.305671407562321251e+00
1.297817791836812562e+00
1.248754010412551407e+00
1.155630689827734869e+00
1.066876956614609018e+00
1.009063074845004904e+00
9.596118274567699835e-01
9.006077042167421887e-01
8.157577148123628108e-01
7.387935797973549379e-01
6.254999750361261990e-01
5.400871240122536721e-01
5.445142290858165923e-01
4.298542423059069639e-01
3.583987080986115736e-01
2.857374873877245314e-01
3.035693211588105234e-01
2.140356788342476502e-01
2.035703639771580531e-01
1.314501399704290918e-01
1.534723154647509580e-01
1.245773987592811577e-01
8.487575703041880248e-02
1.219265194115101425e-01
1.130176825071795843e-01
1.344726525035801201e-01
9.367526213301988203e-02
9.111315005780440401e-02
1.467888638291766357e-01
9.033699337559530917e-02
9.041279141257183016e-02
1.109574478761360117e-01
8.830348634275778097e-02
8.267383485547188937e-02
1.074674969192580543e-01
1.378252389332363936e-01
1.127020676299029522e-01
1.424516905014533708e-01
1.167873162597253545e-01
9.532089239014376880e-02
1.640717384115780442e-01
1.798586552117378279e-01
1.447186126027363573e-01
1.516486079356602068e-01
1.429623834937625293e-01
2.142967573487551958e-01
1.986970821671285858e-01
1.669050279393912983e-01
1.739529249982441073e-01
2.187793339434880302e-01
1.675842814681713366e-01
2.518687509102110478e-01
1.718176412638490469e-01
2.323969695782311662e-01
1.567025168283751324e-01
1.703956814637284378e-01
1.238678094967868015e-01
1.935505399002455384e-01
1.899819932875131401e-01
2.456732539462827825e-01
1.333214665244534525e-01
2.073559516380345524e-01
1.848146491130277236e-01
2.363660172813061566e-01
1.891414149252953480e-01
2.518261142447237311e-01
2.247231908844654069e-01
1.929254112123569009e-01
2.341183631035761437e-01
2.127611635899029907e-01
2.199685802147801628e-01
1.849563090489076689e-01
1.618650528930773158e-01
2.021099954622869732e-01
1.330782319790416723e-01
1.668658296327860946e-01
1.449680018605788712e-01
1.157906827955389323e-01
1.487888880901931388e-01
1.774258731645522724e-01
1.422221702523848441e-01
2.663953271257883948e-01
1.256848037326955825e-01
1.258874211109686780e-01
7.611150732187541013e-02
1.301235931920551314e-01
1.203580251722987104e-01
1.637090323152792237e-01
1.253582167365794864e-01
7.057748897208569738e-02
1.055697123189284492e-01
1.441446867754752614e-01
1.280489310205313591e-01
9.144684512228778983e-02
6.612770913821575114e-02
8.372396437854633111e-02
5.480632760907385576e-02
3.929177667278344055e-02
9.833017015380556003e-02
3.125010000316821857e-02
4.667357547039209520e-02
8.897988079705074216e-02
2.237631066136647889e-02
4.558742459972735944e-02
3.508045739973347094e-02
5.964188821112639122e-02
3.469288409232371140e-02
1.479583438089539932e-02
2.258033019240445610e-02
4.899681636299691584e-02
-9.971634179303495715e-03
2.053143278551146367e-02
2.301733594437225389e-02
1.599519761682328955e-03
-3.875749705612990814e-02
3.048184966978276927e-02
4.363848635131595266e-02
-1.905967188494623460e-02
-3.723055894314437897e-03
-8.251224377969927637e-03
-4.054627823841576439e-03
-1.069513039858768777e-01
-5.438856340289592584e-02
-2.316815473133221684e-02
-6.041713934753492610e-02
-2.399334858493097633e-02
-4.902947454027410668e-03
-3.467587435729163614e-02
-2.300141380284692963e-02
1.265222322181852599e-02
-7.870146773064426449e-04
-4.831755885944122308e-02
-2.027333704350686716e-02
-4.057036021329325781e-02
-1.876495916046801854e-02
1.147818074109491909e-02
-1.217027671261864535e-02
-2.298623417308249400e-02
-4.759606607514062226e-02
-6.534452650941034724e-02
-4.498514690426840684e-02
-3.358267262192146663e-02
-5.052126657392170400e-02
-2.606226297949414822e-02
-4.379668033655980536e-02
-2.805699228356419578e-02
5.059207365007062362e-03
-2.100315042988075420e-02
-2.583994752622172097e-03
1.133110724995033125e-02
-1.867932041942308580e-02
1.024735103268133857e-02
2.862622801835099096e-02
4.537968002501487769e-02
3.227091630816758538e-02
3.610820700822230805e-02
2.170919805690214172e-02
4.213133609819231379e-02
3.639865385639518003e-02
3.340795103011044709e-02
1.100930647850138777e-02
3.594236566951406614e-02
7.025091011027226329e-02
6.910174102001812035e-02
1.153216675970147875e-02
7.780663896154596526e-02
6.785511294742671562e-02
2.656808643824652705e-02
4.133458097798381470e-02
1.055493038225338437e-01
1.364490980772955497e-01
9.758794702421180745e-02
1.379278825548678200e-01
5.370369335137049893e-02
7.375513405032288472e-02
1.361765571184765378e-01
9.228834138366499851e-02
4.209633546107419133e-02
1.348483871438125870e-01
8.406105176121131395e-02
1.295478106895801840e-01
5.548581253433314264e-02
8.075619882682816275e-02
9.430698675920776153e-02
1.656731932379539030e-01
1.338765739804306798e-01
1.125533847033495238e-01
9.725448326244776065e-02
1.537502145461563108e-01
1.031731149939570658e-01
1.033332679399838611e-01
1.485866286901788569e-01
1.212952247892171431e-01
1.279010505541258447e-01
1.922444692660702503e-01
1.380096692438171069e-01
1.517073672478178592e-01
1.552791404021013066e-01
1.424272198099754694e-01
1.593750415491181072e-01
1.561906951662806464e-01
2.516247224764553425e-01
2.369557254380832145e-01
2.256950738800244660e-01
3.295347311078428154e-01
3.502138867344600781e-01
3.738154968325964611e-01
4.492136522764959006e-01
5.060955552154051684e-01
5.532577216205347703e-01
6.301150394787248255e-01
7.394142303735242727e-01
7.828653889103629471e-01
7.905497263313162604e-01
9.289047792508342560e-01
1.040255050978690754e+00
1.092517343201648616e+00
1.200843630313039645e+00
1.298421884513370150e+00
1.256669298959408154e+00
1.322449748830180960e+00
1.414279707677932096e+00
1.333978187753699585e+00
1.408209490321819191e+00
1.345927055838456177e+00
1.368325672491979006e+00
1.350212153627734724e+00
1.289583114076067183e+00
1.193213261299165051e+00
1.101455627160373707e+00
1.086561304062812816e+00
9.631541025430802039e-01
9.346721723730403442e-01
8.851209399144094325e-01
8.076088011260054156e-01
6.936185290958569727e-01
6.134104826863294724e-01
5.626982013234966828e-01
4.529921595874022433e-01
4.523027147318300356e-01
3.814692991606650208e-01
3.494710383128973863e-01
2.985846834657666093e-01
2.149622037031789779e-01
2.300086330779216592e-01
1.835824954529575448e-01
2.029112293706432646e-01
1.034130277096702716e-01
1.387961932394349007e-01
1.347352404181470231e-01
1.447497809531868573e-01
1.376035732527949307e-01
1.617736712575462144e-01
1.197065133806829718e-01
1.620520638761989707e-01
1.367675749152275633e-01
1.634876073753091241e-01
1.774722507025150997e-01
1.966223419323450683e-01
2.094822839318913332e-01
1.620447193385463891e-01
2.031414953740341978e-01
1.386626173924590533e-01
1.431862831217890764e-01
1.838426563557334359e-01
2.004680394116391262e-01
1.644449111477692405e-01
2.063279823931389312e-01
2.284241350021654626e-01
1.855339014874602954e-01
2.222308428165246930e-01
1.720506328880958280e-01
2.411969868121775773e-01
2.122666443662510893e-01
2.304035274075103001e-01
1.835482670610792955e-01
2.279596157991104766e-01
2.371425583700950412e-01
2.058730565951616409e-01
2.534668582248483237e-01
1.996623140428623600e-01
2.529636760810131113e-01
2.046772749285663273e-01
1.873099679027744047e-01
1.503066498382674421e-01
2.981525850788833143e-01
2.844958836199827923e-01
2.360130391290256868e-01
2.083710350991878346e-01
2.045906092780103991e-01
2.265706838771997800e-01
2.395719347959766043e-01
1.833786019012339508e-01
1.759267498519516970e-01
2.193739576064192842e-01
2.310169997501573813e-01
2.443826986417646507e-01
2.406650362265694287e-01
1.338707079954625789e-01
2.289932259500082057e-01
1.659842036728539083e-01
2.112206118780711184e-01
1.679748539047775935e-01
2.234546588497836606e-01
1.763805315798404327e-01
1.805204102891392881e-01
2.189011107179211213e-01
1.688080737697262856e-01
1.660532756090971340e-01
1.351226537827106000e-01
1.199785016145343136e-01
2.145559998156416903e-01
1.545929421092093747e-01
1.426698544414351788e-01
1.925369104012767119e-01
1.592768942544636190e-01
1.350077514798644351e-01
1.342141465206125595e-01
8.430952094851271172e-02
1.287571058883229813e-01
1.110832080106569225e-01
1.076892306445695197e-01
1.571827348184294815e-01
1.164061491819417538e-01
7.144593023617340499e-02
8.586763145359940785e-02
1.100008096242004740e-01
6.915445627881283697e-02
2.326706225320485447e-02
9.072800501391882488e-02
8.804626311886472323e-02
3.078051809292536162e-02
6.362138859753677100e-02
4.155218939199629979e-02
6.162001702438487521e-02
8.054231758478341829e-02
7.547713249013821013e-02
3.597894178251961894e-02
8.388820230862233801e-03
2.590900424013008879e-02
3.097241528266971716e-02
1.928914041349247266e-02
8.795674683066921629e-02
5.493924825501305190e-03
-3.097206486568651607e-02
1.578081154357482280e-02
5.257285647468908085e-02
1.751986122282737229e-02
1.697145549804337378e-02
2.314531187433678874e-02
2.795268994162123169e-02
-3.456039813072101646e-02
3.764084451221910016e-02
-1.352502450487820529e-02
6.014095079068271579e-03
-1.536594933494995867e-02
6.354203946349072651e-02
-2.439212238613764835e-02
-7.898819332719918956e-03
6.078673812212042477e-02
3.675712013530140626e-02
2.773094532858811495e-02
3.060051675832285017e-02
4.175700298248864739e-02
1.392220821409036365e-02
5.549966689416503673e-02
1.142120311369084484e-01
-5.711276230607782028e-02
5.308884131897854269e-02
7.945611483966736471e-03
3.676480274850573056e-03
4.211519637868709615e-02
1.941360613256189194e-02
3.040062934251907406e-02
9.011623365131836427e-02
3.347687258987559755e-02
-4.828128872986017783e-05
1.879577243819377519e-02
5.640823147569318935e-02
3.321886726885104474e-02
4.968076210586214875e-02
6.599089488722643948e-02
3.687107036089529166e-02
7.578941411397550898e-02
5.365644466116507860e-02
1.142784924575711430e-01
1.035475028714780005e-01
1.465480830596638806e-01
8.106463096582983141e-02
1.032861693019130334e-01
1.083597140155851263e-01
1.145911629845775132e-01
1.514006477203769518e-01
9.337291845014880631e-02
9.140819367240923810e-02
9.166187699005363954e-02
1.158469978614584950e-01
1.476104369252200232e-01
9.057824027859265326e-02
1.338630554914443105e-01
1.383899585946997135e-01
1.951369044200156888e-01
1.759874271916306854e-01
1.513957058212491158e-01
1.713973624033058030e-01
1.010627619267641386e-01
1.874626070603346850e-01
1.831587570105875362e-01
1.534051533131381706e-01
1.275851422968387328e-01
1.706898624904802098e-01
1.349470762546139679e-01
1.073538907158269051e-01
1.662968123203716064e-01
1.612233958615802987e-01
1.860980023983286880e-01
1.267695039060429685e-01
1.743114573055911942e-01
1.783740146085458222e-01
1.413671153330811614e-01
1.990330919512995900e-01
2.127120743416123783e-01
2.375679588589468816e-01
1.832211021337450396e-01
1.956655473095817721e-01
2.309177580790756079e-01
2.577172572488110602e-01
2.775379033648474603e-01
2.847024353393104446e-01
3.655497962792745859e-01
4.391689333188080746e-01
4.098450049635373182e-01
4.754679759497759117e-01
5.261374592077201484e-01
5.849237640787231518e-01
6.294342462287285667e-01
7.145451927728327934e-01
8.388035913120502896e-01
8.644773735541306792e-01
9.909795794725836382e-01
1.028917959388619741e+00
1.160576127911423727e+00
1.242972576675416274e+00
1.217889507352098111e+00
1.316357511247356893e+00
1.358230362775605382e+00
1.352855985133703420e+00
1.371015341788404784e+00
1.412382198813149303e+00
1.415838182678849311e+00
1.409366941013348917e+00
1.302189310473380601e+00
1.309634828637286308e+00
1.272264131888933392e+00
1.273153730156420860e+00
1.168118268945441462e+00
1.048347163717532116e+00
1.004847283395236657e+00
9.615291044054899983e-01
8.842113745428805682e-01
7.174283186006966684e-01
7.225391459559639129e-01
5.944859092476344475e-01
5.523260079868280714e-01
5.411499217559444519e-01
4.462413898812171986e-01
3.363071312601418894e-01
3.889046949636733586e-01
3.387654793082386373e-01
2.507195165021924299e-01
2.283776082651108597e-01
2.687784643563077003e-01
2.556931309729788548e-01
1.768867320380821673e-01
1.574162295309396720e-01
1.953451662272841227e-01
2.334832955565324941e-01
1.668627044336482568e-01
2.108782031112816091e-01
1.924513849370653451e-01
2.160899349839661698e-01
1.861697086961686676e-01
2.168123294770457066e-01
2.435688726835070206e-01
2.182048438221411424e-01
1.168078662531801537e-01
2.218079657497697976e-01
2.292143639995686821e-01
1.608382068558107947e-01
1.963677094287873126e-01
2.026787010125633837e-01
2.544689852005025954e-01
2.420303758024362761e-01
2.758572986061298415e-01
2.830194306780610125e-01
2.488334178292669618e-01
2.154616054415174897e-01
2.004041390638969800e-01
3.007638006439750655e-01
3.100665674924877324e-01
2.462312053892297681e-01
2.658021080091869104e-01
2.986822050122329708e-01
2.993145105268920636e-01
3.493672396210658060e-01
2.923625743368147845e-01
3.284692579286525582e-01
2.837067560005552269e-01
2.884332155071817061e-01
2.603165135657281581e-01
2.733413179960535455e-01
3.280865457064072177e-01
2.640493025643105840e-01
2.578373294443786490e-01
2.483697459377988137e-01
2.634037154025048455e-01
2.997013107907266494e-01
3.404858129194154315e-01
3.276063996333100636e-01
2.609318253096857276e-01
3.131867752085829015e-01
2.769407187100657031e-01
2.994120482505296388e-01
2.388924041718477609e-01
2.592333707082661864e-01
2.669237445431951183e-01
2.536158901676643374e-01
2.388250560615263751e-01
2.323924917114745248e-01
2.485438318037764271e-01
2.357973811124338681e-01
2.549202113382003643e-01
2.016303912732338166e-01
2.414141848027535620e-01
2.470329721762327679e-01
1.872010367778803586e-01
2.199698238342218670e-01
1.624572136379314746e-01
2.227093137128437206e-01
1.232268305586673302e-01
2.108326080888812404e-01
1.642944002017757144e-01
1.816487446434174868e-01
1.180636503102371615e-01
1.322603587953689597e-01
1.531729767809125731e-01
1.334553847454889863e-01
1.857690077454813848e-01
1.747390255841637929e-01
8.753154672551739790e-02
1.435284874781171394e-01
1.136665986606658074e-01
1.369460330294324235e-01
1.499305084427321466e-01
1.837013112626615374e-01
1.053394930958314879e-01
1.410916391303156381e-01
1.051376791276768113e-01
1.266128383695750703e-01
6.640569527352112311e-02
1.669840448722190174e-01
5.519511885266686901e-02
9.236042492012729033e-02
8.868411845550598638e-02
1.262323053568957243e-01
1.202493510609621008e-01
1.247839406662357709e-01
6.441220708070501122e-02
7.922966148647636597e-02
5.345585862926102716e-02
1.253537002419474744e-01
1.059646699540807979e-01
8.818340844973771020e-02
4.439075061239052683e-02
3.488462085034663152e-02
7.044747179403045012e-02
8.005907693999042563e-02
8.135910289111744631e-02
9.781877501152691501e-02
3.095508773122511090e-02
-1.743587010794004494e-02
8.563364065253528667e-02
4.763106042393763784e-02
7.560538580207921966e-02
9.891491298051136027e-02
6.198752926281667075e-02
7.286450776671871132e-02
3.978914806297077777e-02
5.961807488223162810e-02
8.945830104123267401e-02
8.630644535534980066e-02
2.560492392054745589e-02
9.659313850190442974e-02
1.187752294161098787e-01
3.170554839211028181e-02
1.094765987823481529e-01
4.471634811545415616e-02
1.322636684635744297e-01
8.279391220428738984e-02
1.100169365529122950e-01
1.062903793472958908e-01
1.043862265563839375e-01
3.332189072630171306e-02
8.942655286978395957e-02
3.307479685367266387e-02
8.305637904352733414e-02
6.971060015004129640e-02
1.188945807299662261e-01
8.474046771387938604e-02
8.504297991926829114e-02
1.583687785986207242e-01
9.706189605156953504e-02
1.819139321158514677e-01
1.263424886567794392e-01
1.901458992866205400e-01
1.196223681948375278e-01
1.658155208859234397e-01
1.652734039778851471e-01
2.104569708101037273e-01
1.183879029351654066e-01
1.752605626376812220e-01
1.236697600352705539e-01
2.204522901916049493e-01
1.273588927833424478e-01
1.820584425531088790e-01
1.426881292927734135e-01
2.294798654311184793e-01
1.409572936238422947e-01
1.805837598922099829e-01
1.674813193129435773e-01
1.669597950860246538e-01
1.719391694080195931e-01
1.865643933462542980e-01
1.777764274057415383e-01
1.998156611036228936e-01
2.173509662692293121e-01
2.280052958491540771e-01
1.436096299787513186e-01
2.266510072206961990e-01
1.804886238218858519e-01
1.681024026552769279e-01
2.380650746096444337e-01
1.961854537574133917e-01
2.217835154690826760e-01
2.051247723160122272e-01
2.404967610342801376e-01
2.007186077068884300e-01
1.753929492790917422e-01
2.307735781804044761e-01
2.344769236763097064e-01
2.655489850421111075e-01
2.742114163963264573e-01
2.527203946705572912e-01
3.278127498900801351e-01
3.031197760245149531e-01
3.866736795215875988e-01
4.040521313956253469e-01
4.508736594177952806e-01
6.033295208068099047e-01
5.784900622664609360e-01
6.658194733111513219e-01
6.950622070182164158e-01
8.163088293441119747e-01
8.970142363168529531e-01
1.002766149187862998e+00
1.070562350272957763e+00
1.114542397679252783e+00
1.217126744200653032e+00
1.223131112847960944e+00
1.339455029505904893e+00
1.400118739707302495e+00
1.404988876027427391e+00
1.448696882699288313e+00
1.479619537984693922e+00
1.488060000709298114e+00
1.472676361876037010e+00
1.394102346072355836e+00
1.412750520061710535e+00
1.352001297434346272e+00
1.263690519243052313e+00
1.224504676290323557e+00
1.098990386508120976e+00
9.997768345768406340e-01
9.750214877098833943e-01
8.385126737115118356e-01
8.843451684228407217e-01
7.714062605694619323e-01
7.065905279661705007e-01
5.746169244569636625e-01
5.083240840960867590e-01
4.333942863075914698e-01
4.364673285496894484e-01
3.390224174706131244e-01
3.785252966354195059e-01
3.359273734112951937e-01
