1.437099232085887301e+00
1.387401824486476754e+00
1.415903281846707440e+00
1.313695300058599136e+00
1.326827261372228728e+00
1.251188057538889176e+00
1.235641878400610905e+00
1.137204667040995210e+00
1.083727482077589732e+00
9.990746113268812456e-01
9.089090946361907397e-01
8.256737994599060437e-01
8.039191805319463313e-01
7.082362461485153249e-01
6.145626244120686588e-01
4.824968986791902670e-01
5.172191246515224217e-01
4.619632032156173462e-01
3.408010801590507510e-01
3.578487539043324617e-01
3.560488963138720986e-01
3.128256885882725880e-01
2.541182922694278923e-01
2.339221691489868915e-01
2.292883839496666076e-01
2.339498062923795196e-01
1.486423832271311640e-01
1.927773090714773874e-01
2.005095895798353067e-01
1.635775617285024630e-01
2.149718624352764118e-01
1.916672720822719111e-01
1.862820745339622275e-01
2.108060115936782886e-01
2.571144658804952465e-01
1.808477007436368467e-01
2.413867987591898634e-01
1.707133710200184340e-01
2.158631140358589495e-01
2.754278834476925342e-01
2.027755964572385272e-01
2.203966415132306567e-01
2.286271695979984475e-01
2.132590850441299923e-01
2.682440686346373449e-01
2.504923871530025381e-01
2.937528072706800941e-01
2.510954371113801042e-01
3.247646770851264075e-01
2.493112609100574251e-01
3.243030585622908579e-01
3.041629819487364217e-01
2.771875022822099521e-01
2.970846776714853865e-01
2.604010264806717601e-01
2.793539737628547570e-01
2.536482611643178786e-01
3.363726718976390861e-01
2.832506717800683527e-01
3.506866733015255866e-01
3.656848757185368060e-01
2.698391999223909155e-01
3.122723236399325142e-01
2.861879910310027308e-01
3.177407585565211745e-01
3.541685584473293069e-01
2.593135650226500166e-01
2.694001633115586936e-01
2.490312769838210483e-01
2.646414385614808129e-01
2.864173682035456303e-01
2.926093484878306561e-01
2.384084085377244921e-01
2.835577879926077793e-01
2.916925449017565009e-01
2.510420991342487973e-01
2.972727364832293828e-01
2.803835012168562901e-01
2.643956052068745510e-01
1.961763304859798218e-01
2.252663374557969667e-01
2.377515049626184318e-01
2.515331497924489512e-01
2.095576842904104953e-01
1.920671963462645404e-01
2.319636946852764170e-01
1.821200841788672142e-01
2.395986145592535199e-01
2.298845793930043013e-01
2.353472527255745239e-01
2.417000431613798017e-01
2.191609333065686338e-01
2.638286629736555922e-01
2.222248270001932480e-01
1.995672648955799378e-01
1.730360066790078699e-01
1.638163778054418651e-01
1.910865785158773200e-01
1.378073875152113215e-01
1.595774287410111070e-01
1.577224899170115990e-01
1.689743693206726405e-01
1.751706269967777119e-01
1.430126179133608399e-01
1.528663989449123850e-01
1.850763008290707279e-01
1.500810966763096721e-01
1.846852707636256197e-01
1.453501008499256120e-01
1.111131123311089042e-01
5.143097665904443339e-02
9.752727399766805694e-02
8.719975567490427515e-02
6.865053141309694629e-02
8.555890544511816909e-02
6.683113102690638185e-02
1.053938473603050485e-01
8.957762974400657052e-02
1.038971548907583475e-01
8.109154164070685178e-02
8.944322015070484133e-02
4.996352131507970917e-02
6.507617670941594212e-02
4.744798712712376687e-02
4.238797974192753948e-02
8.883404873754710551e-02
7.987442154051088705e-02
8.084736401122422089e-02
4.801266426310130120e-02
3.162281336833238504e-02
6.249492951780563632e-02
6.892057606100093770e-02
5.864412320818841035e-02
6.193667336562302950e-02
4.156427141667982245e-02
5.734333627291678115e-02
7.163036379699111444e-02
5.097920619856154828e-02
6.985880115593118278e-02
7.660906840326102418e-02
9.258026168168270731e-02
9.245907846883516523e-02
8.239326985818198890e-02
5.625200495131344597e-02
3.545041755570395303e-02
1.294384668419870099e-01
3.941438583672395024e-02
8.902557894319224063e-02
8.889577872266447855e-02
1.227287641803847529e-01
4.843068769175222499e-02
9.632524631481650945e-02
6.505006385963918447e-02
5.930963212879694635e-02
1.026644766933708514e-01
1.102621431408896957e-01
4.718469950478611924e-02
9.562509324382012510e-02
1.221878203671665636e-01
9.343012748336010365e-02
1.772593160932599832e-01
1.756782114928881477e-01
1.836040138551927603e-01
1.521678812558789617e-01
1.494614258563641551e-01
1.370669015552695158e-01
1.080072240851350091e-01
1.453834352848818734e-01
1.206648106950842791e-01
1.898393628621773965e-01
1.673089909609504489e-01
1.673197038377225998e-01
1.841306487660146485e-01
1.697476973586336535e-01
1.746318397067748163e-01
1.474169508878452606e-01
1.886372296194098741e-01
1.559544860767460017e-01
1.960605235139960267e-01
2.313939451603233555e-01
1.675597349086967447e-01
2.435276422589079948e-01
1.790836334472086233e-01
1.650169763572811865e-01
1.803159447433044515e-01
1.533915933275019905e-01
2.294818755996630155e-01
1.819952800101445334e-01
2.151705996869434367e-01
2.217383314355777513e-01
1.872319922884254362e-01
1.602766473542855674e-01
2.144857959558886806e-01
1.634194514177972901e-01
2.815557278462853530e-01
2.359951628515385147e-01
2.694062348256772155e-01
3.196938454061878376e-01
3.458257915498698654e-01
4.055370248797854904e-01
4.339104159279571493e-01
5.336282165053670701e-01
5.497006455041484330e-01
5.847189643478603038e-01
7.065288346894755822e-01
7.979207839364693688e-01
8.747839321871566653e-01
9.156429423296770231e-01
9.834627666068628260e-01
1.061756705924729038e+00
1.117730586694080763e+00
1.181907441548656124e+00
1.258101823695961574e+00
1.273216921736984864e+00
1.364911802964498655e+00
1.378804128147857577e+00
1.412608718329818824e+00
1.375475817507929799e+00
1.322551074215910782e+00
1.373200804600932967e+00
1.279420661467367326e+00
1.276189948675491959e+00
1.185500347568750890e+00
1.125974176688656847e+00
1.028419321104054873e+00
1.008362808815689515e+00
9.016679132560944110e-01
7.861809848580977311e-01
8.014386581218220229e-01
6.434975842762497011e-01
5.943382739683262805e-01
5.645212114893183308e-01
5.156807289572276076e-01
4.320913479858630168e-01
3.143740684994825729e-01
3.773733818438541054e-01
3.039266714133161962e-01
2.552695379656331753e-01
2.059575397534330332e-01
2.375909778991888710e-01
2.014332130303031210e-01
2.261499863384653641e-01
1.336754973528350432e-01
1.906693907967456358e-01
1.614639035791230470e-01
1.736206869732878633e-01
1.224227907005563248e-01
1.421201766332049754e-01
2.367728841344864943e-01
1.824035571430021596e-01
1.822522119443082678e-01
1.801021090479108244e-01
1.687368850975787260e-01
1.925178410053764722e-01
2.363005585865904923e-01
1.437757534351051247e-01
1.555283763948408782e-01
2.653292859413541871e-01
2.018264712153655382e-01
2.403321045373663367e-01
2.308466947201094355e-01
1.951592748524172971e-01
1.992213197907416466e-01
2.273576612280134024e-01
2.124124500133729443e-01
1.868344571558076816e-01
1.833803355388513023e-01
2.513290784670823563e-01
2.684994384903658937e-01
2.197791084227904423e-01
2.421628150501974053e-01
2.002751074419970023e-01
2.761664515225882854e-01
2.366675407918948648e-01
2.741202288783136098e-01
2.117226751908333204e-01
3.372645009319333309e-01
3.015413789564779790e-01
2.524393995415519232e-01
2.657719292105406028e-01
2.985788090857782184e-01
2.255203438121489434e-01
2.302260055315619169e-01
2.261639339962386863e-01
2.247228554009103318e-01
2.918110110939370339e-01
2.401054159607005078e-01
2.208882891611956278e-01
1.953996342468955205e-01
2.550732349694536105e-01
2.475090887949445428e-01
2.098928636900155575e-01
1.950452288541587587e-01
2.179378304661854504e-01
2.125637617812215219e-01
1.593408146487876598e-01
2.280283753396722957e-01
1.658719717212686628e-01
2.203343108015431429e-01
2.073816597136591278e-01
2.115740342474140001e-01
1.908558513127834033e-01
1.943188363518998374e-01
2.025242997271002876e-01
1.883036949834397955e-01
1.736846581258711664e-01
1.728293118635252645e-01
1.807116686168625252e-01
1.338443658672766323e-01
1.574777698090069622e-01
1.470041414054429341e-01
1.004431105588684814e-01
1.419179878477208612e-01
9.449040177581417843e-02
1.286812864077732932e-01
1.321939897613985671e-01
1.050624609011951288e-01
1.332881867690336453e-01
1.039595671277875472e-01
1.062161929558580187e-01
7.978742132306763934e-02
5.578382177559799288e-02
8.402662920867157159e-02
8.193661842697769204e-02
9.870276811241965320e-02
5.060668239797384144e-02
2.325772608050025170e-02
5.968554387738614353e-02
7.420393294580457377e-02
2.379420527873636615e-02
8.596691101296861925e-02
2.764977780783015038e-02
2.488639962484062371e-02
1.876380230952467976e-02
2.906496407694912631e-02
4.830193054754096382e-02
5.608347726503714464e-02
4.018744431501451025e-02
1.987983217728308064e-02
4.656069366334581600e-02
1.151359043470882165e-02
1.796273404746540070e-02
1.782304495019945353e-03
2.479794476750090543e-02
6.198946653032105097e-02
-3.081626644730427189e-02
3.565948412592358230e-02
4.047836410566849064e-02
-2.344020070614370038e-02
3.589824468031049820e-02
-2.002515059637895514e-02
2.481653644812813198e-02
3.277630345617101038e-03
4.194206837828033663e-02
1.336352534790959806e-02
4.685154573983763004e-02
1.030595603966307991e-02
3.810019514015701436e-02
-2.541576513417045241e-03
1.676415191287486395e-02
2.959444561213286223e-03
1.290151522136582032e-02
1.690115211114839866e-02
-1.353429320710742428e-02
5.286883671262844475e-02
6.798261682014683505e-02
3.831561344231951272e-02
6.908639228529231402e-02
9.782169578377169356e-03
1.572414743775199172e-02
6.485628653116522202e-02
1.141165519705566039e-01
5.514014011982941443e-02
9.290994201618249515e-02
2.468623078032968626e-02
1.086921055057403912e-01
1.175620443726285158e-01
6.515778116468234904e-02
5.753022931397198947e-02
7.182424332206849282e-02
9.162182057646035827e-02
1.170017620300876221e-01
1.169588349533217386e-01
1.039624286851273255e-01
1.112819559722108553e-01
1.243852519088482766e-01
8.403996658887483151e-02
1.271439561909706861e-01
1.308158879517173634e-01
1.003524813957895750e-01
1.007731241272323136e-01
1.517063145633884835e-01
1.511124094798206863e-01
1.687438963948381110e-01
1.404601424842927826e-01
8.445358171533001723e-02
7.333881754624640981e-02
1.664924238059859452e-01
8.817643407748988749e-02
1.173594192912715134e-01
1.181800639569622197e-01
1.038615363987711732e-01
1.563492195132561435e-01
8.303122404994284222e-02
9.279917947748468621e-02
1.966306127284373206e-01
1.531113180807418261e-01
1.294903885010080247e-01
1.522668481845100841e-01
1.775379192832294561e-01
1.629138073573044576e-01
1.691487554081668454e-01
1.831681485892870942e-01
3.236969885252725665e-01
3.024056464240926778e-01
3.067019082086383519e-01
4.084020037744968690e-01
4.691259432679590335e-01
4.364045367376283013e-01
5.036174336477950986e-01
6.421339397697511941e-01
7.144789981576233906e-01
7.854021944957538803e-01
8.485903675263304358e-01
9.150125308988235062e-01
9.960675400627669873e-01
1.081476436581207068e+00
1.126773928566849214e+00
1.168313958887013726e+00
1.287898194196197776e+00
1.278077380087788040e+00
1.281031491023095548e+00
1.301158582947614661e+00
1.369032277847795465e+00
1.367874108740516625e+00
1.325169783513995503e+00
1.307749815894588830e+00
1.261753394903258441e+00
1.146444893250961439e+00
1.093708999276710836e+00
1.019407081208953292e+00
9.966590922000917452e-01
8.808104066119719633e-01
8.731349030392359101e-01
7.762698215836878468e-01
6.416627649777005837e-01
6.354699878019519632e-01
5.381719900517367705e-01
4.127620844031332226e-01
4.099100925152883712e-01
3.441417101343242080e-01
3.189635718427040745e-01
2.157498022287561157e-01
2.321732039322976782e-01
2.604771140518876704e-01
1.792845301024457993e-01
1.980341843117604528e-01
1.409822104432501277e-01
1.569790399444888629e-01
1.459998288685522838e-01
1.131910289618687226e-01
1.082265614853281377e-01
1.231001493724453305e-01
9.578630182521838399e-02
9.063036530092763443e-02
1.527263005651848526e-01
1.041026260433974004e-01
8.165792423361015184e-02
1.637577906673835793e-01
1.714773345043407171e-01
1.015733746099506951e-01
1.188357349886204339e-01
1.108853158926147026e-01
1.565403278952277044e-01
1.632588458232221706e-01
2.005375719931219713e-01
1.647492852424333187e-01
1.920151948529655872e-01
1.616978858878880543e-01
1.589434435516911548e-01
1.788674923764688451e-01
1.688180967816154676e-01
1.975818286610572516e-01
2.424909349532408387e-01
1.745393794329668236e-01
1.752361465851548783e-01
1.681588593528050568e-01
1.950500166743332764e-01
1.868628008543378738e-01
1.869165734445925597e-01
2.492517076481164384e-01
1.812944447981007234e-01
1.856880041586435326e-01
2.090249871180608066e-01
1.798444446186991952e-01
1.867770219765996775e-01
1.964969770688223261e-01
2.200166546359015873e-01
2.123352264650788246e-01
2.143460836495392485e-01
2.014545388079614918e-01
2.272734658953509956e-01
1.846573983214371273e-01
2.518436237742501804e-01
2.084910312356165196e-01
1.915269825037054507e-01
1.571201412074026138e-01
2.026249277206913224e-01
1.766631071753401172e-01
2.002660522688675393e-01
1.465181501263135844e-01
1.687521703556676966e-01
1.432595801391099988e-01
1.634976578149133219e-01
2.013233955572305556e-01
8.938929680707366487e-02
1.410705753739676660e-01
1.232096938160840705e-01
1.073931606644415448e-01
7.086624530213031514e-02
1.541969526315309924e-01
1.213004058263192908e-01
1.360025703581033696e-01
1.398687091162939544e-01
8.792643555007970124e-02
1.190771962972808073e-01
7.186996628541600374e-02
9.999583059491107262e-02
9.494313806443066550e-02
1.190244159389040324e-01
7.989817213954519826e-02
1.632027338407142369e-02
8.355581549832166721e-02
6.335885383041327257e-02
3.146339058979399916e-02
3.477655466283718910e-02
1.029558183812099570e-01
3.786557524371039762e-02
4.385805406845008636e-02
4.940832954070200483e-02
3.051635838554738606e-02
5.477331903716693706e-03
1.188976260252354311e-02
6.162348397320284443e-02
-2.455981080995053162e-02
6.515153312860208490e-02
2.192799819675825268e-02
2.417627878732016289e-03
-8.499761900906996348e-03
-2.692205442328095624e-02
-3.752872174003677591e-02
-6.845026838072088005e-03
-3.621822245291603237e-02
6.735713700481357757e-04
-2.164382684708868188e-02
3.711617068422934373e-02
-3.518026278087356407e-02
-3.262889245923559361e-02
1.249661383756511118e-02
-2.762049325976307507e-02
-5.461635767430982058e-02
-2.630984767423380152e-02
-2.625965368811623152e-02
-5.393507622710835142e-02
-2.681241383713956622e-02
1.951231593064745723e-02
-2.512760885626970017e-02
-5.539263116453280178e-03
-2.854848834830538834e-02
-2.726027768317716357e-02
-2.858425249320529701e-02
-4.001709112924560496e-02
-2.822210007670546486e-02
-2.915807941887747778e-03
-5.049074026838325929e-02
3.528184104586418873e-02
2.928833483361209522e-02
4.416476094879639991e-02
-1.151174154050729759e-02
-7.174220470002115602e-04
-2.291420810257729576e-02
2.083213124984242132e-02
6.500923308642754528e-02
6.269171024303507589e-03
4.017798130719166250e-02
2.713181685503499030e-02
5.543744662986842264e-03
8.516738049121824750e-02
2.888649487077322997e-02
5.851158757188657661e-02
-1.682496546818840200e-02
8.191393759635963445e-03
5.567373738437626091e-02
1.057964117781709790e-01
4.345233505628402076e-02
3.291026489233676855e-02
2.989258357126909488e-02
4.525148538645820673e-02
7.478377887370502020e-02
5.528747513470493730e-02
2.694383192165382412e-02
4.437754510276512715e-02
1.105459217034139019e-01
1.170788254852761778e-01
1.343997034470436336e-01
2.876174625203197638e-02
1.511357862039917621e-01
1.318382792730760089e-01
1.335387224295710995e-01
1.116311537859964176e-01
1.118195018710826938e-01
1.355249763342188662e-01
9.891847964493483136e-02
1.238774660162796637e-01
6.550078705308044758e-02
8.459995535926295718e-02
1.339594112693521244e-01
1.168285127056173656e-01
5.431308358400224051e-02
8.703715786652950481e-02
1.417794085167963791e-01
1.370903211388548870e-01
1.618108863949263287e-01
1.134700610483458938e-01
1.216383159139068637e-01
1.281930191608706693e-01
1.522000450190575394e-01
2.000134522796036540e-01
1.901651218505967245e-01
1.655014237126072596e-01
2.250250912469690945e-01
3.231548043092392630e-01
3.431564785160227671e-01
3.995807624999330177e-01
4.623463366385203166e-01
5.122880471095033750e-01
5.448239965069668900e-01
6.383836125192139388e-01
7.190335583885092419e-01
7.858866471573523471e-01
8.429808197959391958e-01
9.262405779368962921e-01
1.072610094076426268e+00
1.098388296525725893e+00
1.176430028949835727e+00
1.198949063054059350e+00
1.270925215668817554e+00
1.313243573370724171e+00
1.316751115232646541e+00
1.284439263040871193e+00
1.306694679518585867e+00
1.268658238189960263e+00
1.264863860218967240e+00
1.182605209146274206e+00
1.180639387422857789e+00
1.165670291648579715e+00
9.969407221971198219e-01
9.592962488123745191e-01
8.564621938715298866e-01
8.451294346268179991e-01
7.952658223187942799e-01
6.828591399991941202e-01
6.170830490377980926e-01
5.403569019030746157e-01
4.568273221238068338e-01
4.169023318078861062e-01
3.257890574268103023e-01
3.247357468945858416e-01
2.732357602973414790e-01
2.565331809016830888e-01
2.076739358828342819e-01
1.786238437003412338e-01
1.306475054557894311e-01
1.307720327375977154e-01
1.115384091108097275e-01
4.889815002830907170e-02
1.510566868100798044e-01
7.699439215497219657e-02
1.075794778898654935e-01
9.872012331949550634e-02
9.278755439860338072e-02
1.331861774201285320e-01
1.539159581913602803e-01
1.298412314981451376e-01
1.108003962540543841e-01
1.004321362624842895e-01
9.705599825946462089e-02
1.786056913209632668e-01
1.102354937893452180e-01
1.125564817673907481e-01
1.739892336621859104e-01
1.695413057063645257e-01
1.515589135355795425e-01
1.496092127030522190e-01
1.020055556981998846e-01
1.209872013188721951e-01
1.997641303073445229e-01
2.301542729931546905e-01
1.268305510067058162e-01
2.068236077013054508e-01
1.985809965747433736e-01
1.855092221860221158e-01
2.267707573865240522e-01
1.799456710336347354e-01
1.767304262887748612e-01
2.393235497756358021e-01
1.815228371292897935e-01
1.776639777002031462e-01
2.032582723551404347e-01
1.744319908738775904e-01
2.188003458123140565e-01
2.307398778799790162e-01
1.849714807653808635e-01
2.557052980880722970e-01
2.276132505322480404e-01
2.175796995398632250e-01
1.978738729517773021e-01
2.032227717079223561e-01
2.170922100566559099e-01
2.132251541938003092e-01
1.940679772258438740e-01
1.373312329293243650e-01
2.257130770828603694e-01
1.460011063963380651e-01
1.463370283448287013e-01
2.272541705919080279e-01
1.957316448015538612e-01
1.978231996155115080e-01
1.762335144723622959e-01
1.646852053942020888e-01
1.806120071707837949e-01
1.495876087118535869e-01
1.970879827869673750e-01
1.546021643722388095e-01
9.003867232533108167e-02
1.446533590446673345e-01
1.639395847684233243e-01
1.736545094492377705e-01
1.261737935517520670e-01
1.258600763489393370e-01
1.423458485731839140e-01
1.128594686572787775e-01
1.244675022991054009e-01
4.082885704738645205e-02
6.688079181260886408e-02
7.765809134624575283e-02
8.434009156379140837e-02
1.344062814965632513e-01
6.085667694148327866e-02
4.557822023191650251e-02
8.601775199695005369e-02
3.713964870759834530e-02
6.216959262997236862e-02
3.709751588869131256e-02
3.690332260751446464e-02
1.146587841784050821e-01
2.604169164533554764e-02
4.807086449590013133e-03
5.075388263571894987e-02
-2.229583512403987555e-03
5.049818072145118714e-02
-1.371494771500238186e-02
3.813347771852806239e-02
2.756210245424094152e-02
1.632764553028046711e-02
-7.845290487187812217e-03
7.369214746218566425e-02
7.567375094335034025e-03
-4.711334820481584418e-02
-2.400428710641085844e-02
-2.881639590354898028e-02
1.249281973977333510e-02
8.224029917916819699e-03
8.394960230832630710e-03
-8.246730272536334505e-03
-6.218205697261595249e-02
1.528793815608808088e-02
-3.573453687134510448e-02
-2.649457723036325457e-02
4.091427489778555471e-02
4.346885118240905593e-02
4.671204604993103165e-02
8.180981030150167449e-03
8.112455206680746489e-03
-4.501041280328559047e-02
9.051113855629705496e-04
5.686940293334072360e-02
3.162828511029190659e-02
-2.118083892454494799e-02
1.566252066454267358e-02
-1.053132229431944650e-02
1.956768457787350438e-02
-1.012830223167176733e-02
4.096839750100113309e-02
-6.067370037430044188e-03
6.551337905180423804e-02
-1.614582498707508793e-02
2.703981029511284134e-02
3.489916294833443622e-02
1.319312961856930477e-02
5.597800054908314005e-03
1.083061960316892766e-02
3.025210963840346129e-02
4.590169014989831792e-02
8.423619066445370285e-02
2.693173388262843498e-02
4.585613238412934722e-02
1.101086394136237406e-01
1.599521207056409100e-01
4.001929669332709993e-02
1.083496356464331567e-01
8.904770848546024464e-02
9.821015297549552658e-02
8.635179485071821370e-02
1.003177385127374255e-01
5.548861806459107204e-02
1.333329192768710203e-01
1.659403023161466761e-01
1.382244234877221256e-01
1.781853521631070469e-01
1.835923520100484763e-01
1.344524818110399977e-01
2.216164947445272149e-01
1.278803243777377197e-01
1.583102823818939853e-01
1.092581024048406846e-01
7.321045540599058210e-02
1.581283710229158812e-01
1.321344182537436684e-01
9.303575907330892403e-02
1.177043996527611380e-01
1.492618279924994296e-01
1.257478382182594390e-01
1.178881759546749758e-01
1.516082172250373672e-01
1.216908339613512052e-01
1.798176171012883517e-01
1.391049117997034401e-01
1.361053351031729919e-01
2.011471459595059186e-01
1.610187513770555690e-01
1.548269339554337043e-01
1.136456155504822901e-01
2.304386042266614310e-01
2.592974568776663102e-01
2.525817782081095642e-01
2.738020786549265617e-01
2.903381147657794759e-01
3.247305379315476581e-01
3.982313847939649709e-01
4.695239664779740640e-01
5.295818989981075919e-01
6.172108353500733724e-01
6.412362030358145226e-01
7.605532176145662904e-01
7.878339513864383026e-01
8.660140435862533348e-01
9.685051949175836894e-01
1.060607880352181454e+00
1.063689274754324510e+00
1.181511592753906381e+00
1.203993527012001463e+00
1.226804546505702920e+00
1.302338066293421193e+00
1.341520781499721426e+00
1.354822520897708493e+00
1.393205630455771615e+00
1.296866758672869713e+00
1.297508990388951178e+00
1.283552663627764323e+00
1.256985848990913812e+00
1.219038914856430011e+00
1.055626108362037741e+00
1.056776133045509658e+00
1.028720176225959682e+00
9.130737111607888368e-01
8.015675162403441689e-01
7.364601293214759758e-01
6.282927163902843892e-01
6.414661974611747253e-01
5.535348594802176336e-01
5.145182523612107373e-01
3.977523101014521223e-01
3.902869829043379424e-01
3.379658388928548085e-01
2.235838941080607323e-01
2.776712152297837188e-01
2.237020935313885350e-01
2.023090389519976440e-01
1.760444575760518604e-01
1.898138945756032703e-01
1.836921136209535288e-01
1.310007230967194791e-01
2.339169985453478096e-01
1.300459447610259889e-01
1.557837074682403011e-01
1.664425879152965637e-01
2.207308417570971459e-01
1.590657562937324576e-01
1.235022791255430685e-01
1.644587456028746564e-01
1.778262377442862141e-01
1.667089863266731364e-01
1.626914972880713073e-01
1.833664953694535416e-01
1.837380665582248607e-01
2.099056866386628528e-01
1.720465679096827294e-01
2.043447331208781970e-01
1.572834409112659204e-01
2.408826180448675747e-01
1.946297074984907338e-01
2.657656225787404236e-01
1.959551106482542437e-01
2.216723352016270465e-01
2.726293052133612060e-01
2.112732032652358816e-01
2.516519363747656834e-01
2.411742782211630798e-01
2.534316575492497337e-01
2.200661392820974505e-01
2.086286202532605938e-01
2.225847685461506964e-01
2.753714363492334449e-01
2.351664682500907433e-01
2.427704549919378896e-01
2.744887101866815837e-01
2.701888215275273231e-01
2.727642267969190293e-01
2.668665247435014765e-01
2.722227527379897927e-01
2.735225629133557490e-01
2.467904439097051150e-01
2.818617469735075765e-01
2.835969801984333238e-01
2.574750119789045999e-01
2.331301795375322616e-01
1.940754408383235652e-01
2.146556950578880907e-01
2.570104841729264344e-01
2.135966087319512985e-01
1.652386297158462969e-01
2.551660991184307448e-01
2.912050849472545000e-01
2.100069418376792341e-01
2.090716348454316476e-01
2.211968416517166303e-01
2.566460285353785453e-01
2.437556430130497220e-01
1.933095177136656406e-01
1.579568155747754221e-01
1.822577455875171726e-01
2.328990539143711846e-01
1.597227509042404570e-01
1.372709661462528929e-01
1.668660489815763370e-01
1.925768137510610323e-01
1.145151322136794964e-01
1.151346372879824970e-01
1.774388417716786792e-01
1.834785780646970843e-01
1.434283760737363467e-01
1.508802325639520547e-01
1.106857321522290716e-01
1.321152196199749940e-01
1.108517482813339838e-01
1.592730164024471484e-01
1.814553908566630680e-01
1.038464091799016359e-01
1.241171368508438150e-01
1.207690720938555673e-01
1.115307525193386939e-01
6.944787807673896696e-02
9.185293993598024620e-02
1.198221364992199667e-01
1.045214600422181006e-01
3.555950232070578809e-02
1.037777204101868744e-01
9.578787487555867619e-02
6.562508362729145561e-02
4.125899830727432216e-02
1.159247569761257951e-01
7.678293643382042011e-02
3.287632958904107561e-02
7.138688363453886410e-02
7.965392550727762311e-02
1.089798232672293254e-01
1.394452242415990251e-02
3.771520170205049094e-02
7.979900419288137037e-02
4.727966389709559181e-02
4.049068554976908291e-02
4.909582707717410899e-02
1.893513866761513398e-02
1.060564176257952282e-02
5.324259492702736879e-02
5.906103217395235194e-02
6.212704302061386463e-02
8.282476327932665472e-02
4.903557260463708989e-02
8.076979657860969275e-02
5.169479926867025926e-02
1.839789591293446505e-02
1.186357033737830552e-01
4.650003841540448213e-02
2.883329850613770839e-02
2.250602240860533759e-02
9.320024967566153951e-02
8.868958733357623636e-02
7.855130323052642027e-02
7.041692373677399530e-02
8.342861430927026034e-02
9.157125937712951025e-02
6.060358140192494830e-02
5.328852391722579962e-02
7.920842919697580753e-02
1.308463765416333358e-01
5.711117345353985963e-02
5.675357385937056243e-02
1.253870601440821853e-01
1.344215862910086712e-01
1.259842777973707029e-01
1.307009076722442098e-01
5.626207431106464152e-02
7.943770299869805374e-02
7.285892368973781452e-02
1.199257789626313603e-01
1.056025690912271442e-01
1.054073579960990992e-01
1.458939495878668335e-01
1.598681668349296869e-01
2.214423831790197084e-01
1.533755798105922163e-01
1.356125815071750340e-01
1.592882576597174915e-01
1.750171697873539878e-01
1.737198556446545028e-01
1.637072160403357790e-01
2.121317915168789703e-01
1.942334532447389794e-01
1.325912930312860838e-01
1.826210691575631817e-01
1.649338860054432587e-01
1.865367671641709191e-01
1.778130816574916839e-01
2.077535046841337552e-01
1.806422254207557532e-01
1.968259467747421887e-01
1.905332199415632477e-01
1.518155866443757496e-01
1.636493284194789899e-01
1.693162896563273068e-01
2.016011970430507394e-01
1.826265338493291424e-01
1.960614297807979911e-01
2.179093786720915915e-01
2.106096495863401530e-01
1.934247330580435298e-01
2.105080134544684012e-01
2.443048980697590800e-01
2.436578171376113378e-01
3.343873117443333376e-01
3.319702697565938276e-01
3.532446864477668536e-01
3.591571187670900001e-01
4.196785474242223368e-01
5.131953921895696658e-01
5.302622038471832555e-01
5.996086239272200302e-01
6.710227701093206543e-01
6.633478689760441416e-01
7.906031194987542809e-01
8.789291110203806268e-01
9.986458461239848816e-01
1.049216375046416072e+00
1.112085293335963065e+00
1.167771994686820802e+00
1.233687498136586624e+00
1.287994107700370261e+00
1.274256363809368020e+00
1.371764169300378144e+00
1.387361374044193463e+00
1.372412241536150601e+00
1.395520334183442124e+00
1.389654316984111793e+00
1.338797501872024398e+00
1.374243037215998609e+00
1.223395338339310578e+00
1.184738473135042769e+00
1.161745012022167511e+00
1.066341112740501584e+00
9.771102854740573163e-01
9.220960328700895658e-01
8.337111448725667007e-01
7.842325091293125272e-01
6.586310776801949096e-01
6.055433722243073191e-01
5.577255601959559828e-01
5.426573896379301987e-01
4.438886612106350826e-01
3.857811412558050379e-01
3.691929399838813630e-01
3.547670463387944673e-01
2.448871215045364258e-01
2.805515089628870529e-01
2.524437556029609508e-01
3.206448411464895010e-01
1.895060042677550183e-01
2.402686001105263092e-01
2.398788586572764558e-01
2.271199407488194155e-01
1.753931321731579396e-01
2.125384262737899377e-01
2.493382758483647099e-01
1.866660478999116468e-01
2.237206711198699571e-01
1.836506238402630387e-01
1.906894750014186957e-01
1.648674743077903626e-01
2.048784418670604179e-01
2.402781531099790757e-01
2.569937541152210736e-01
2.049005801837828211e-01
2.666210237117097037e-01
2.911247689110625925e-01
2.265691728694128881e-01
2.714663476875345260e-01
2.781133864031400948e-01
2.928921081554581862e-01
2.656434807241643270e-01
2.530978015711981000e-01
2.931900545763739263e-01
2.460448624715214916e-01
3.385850774480922976e-01
2.746321517074750695e-01
2.966374828045066359e-01
2.871308630699003772e-01
2.959044940403139368e-01
2.688319586516970672e-01
2.914882726226857845e-01
2.645307514226360457e-01
2.774807856967440589e-01
2.840652756494407294e-01
2.835508983837379260e-01
3.162896715483632382e-01
3.178464834204408063e-01
2.994311506625719765e-01
3.216234431650071834e-01
2.439832604488209045e-01
2.776389167671040603e-01
3.086522381146843963e-01
3.043733033656473297e-01
3.180514305204369396e-01
2.744947532177776095e-01
2.769676213073430371e-01
2.466891702963777411e-01
2.938845570430664855e-01
2.892475843793419488e-01
2.897206105116566510e-01
2.906265066196572766e-01
3.520161821253640633e-01
2.209719098729009401e-01
2.538680357744572680e-01
2.634589162125073325e-01
2.787652785465994931e-01
3.110959700400299233e-01
2.641420231762238724e-01
2.094804448838820388e-01
1.917665278289394926e-01
2.606903631956665746e-01
2.185788799698327733e-01
2.400862359373903965e-01
2.342549998700825531e-01
2.084094802348590569e-01
2.175050350629432749e-01
2.193624818316795566e-01
1.614877646198371042e-01
1.564388617614370647e-01
1.371757551402742747e-01
1.891695719378499174e-01
1.497793829427901680e-01
1.888608821785036918e-01
1.463741213773765981e-01
1.651958028557236058e-01
1.866880149841582959e-01
1.696290422571508083e-01
1.388444174500630401e-01
1.760388871552080181e-01
1.312829034748382029e-01
1.068290717562763448e-01
1.011365122698212327e-01
1.479365716824382337e-01
1.279869323534645331e-01
1.347716923753892182e-01
1.574293048341483536e-01
1.159835722366844846e-01
1.264080625401029501e-01
1.060236444510249676e-01
1.441745486021139555e-01
1.104371440593042153e-01
1.131492872796796834e-01
1.197841642662403616e-01
1.164216962312052128e-01
2.669579405464841265e-02
9.066678254198592968e-02
9.319961302242078804e-02
1.343584457034548152e-01
7.917701269613476589e-02
8.620900411039084110e-02
7.762609609552002798e-02
8.715112614016551351e-02
1.430127468212247788e-01
1.122704182593556727e-01
1.080087274326155533e-01
7.422164148965942898e-02
9.239595276593609574e-02
3.778342356506447092e-02
9.516578415414751746e-02
1.354900615400299324e-01
7.072454350076087803e-02
6.608869761896234152e-02
8.986347676214911928e-02
1.068789883492142628e-01
1.263550367857720347e-01
7.955297340179656729e-02
6.957555000515827648e-04
1.028702271654634987e-02
1.735776118709658755e-01
1.477798659067642573e-01
1.358395818225998364e-01
6.042942601272895120e-02
1.269277728941867744e-01
1.752582905338422314e-01
1.519943536363599912e-01
9.915988219850623009e-02
7.392700873742155676e-02
1.125036884418526284e-01
1.531694363656013191e-01
1.059096592209242682e-01
1.621713584263042573e-01
1.615331326641173681e-01
1.355805685272352124e-01
1.537365753967321336e-01
1.956592604282487158e-01
1.205852569437778216e-01
1.207336415970590160e-01
1.235032720545828910e-01
1.324658826806562606e-01
1.668889048057523861e-01
1.717160606927825017e-01
1.694630292314497910e-01
1.391254167103355699e-01
1.833375860690292791e-01
2.356233109129607095e-01
2.423446830929971707e-01
1.486036953092681467e-01
1.264481143752519132e-01
1.448512795771805806e-01
2.326079138620087694e-01
2.237296840695957301e-01
1.921525184956824894e-01
1.978991043837273200e-01
2.177561545330581605e-01
2.192901320444972657e-01
2.631427447221330040e-01
2.419376489714986089e-01
1.762792068992481698e-01
2.117920534594014415e-01
1.633563935014358259e-01
2.154978495184576848e-01
2.005579551370742786e-01
1.556870723949952406e-01
2.480867855248012344e-01
2.266039996258860101e-01
1.991196505197386502e-01
2.547433969760926620e-01
2.501907290768068948e-01
2.891698065112220939e-01
2.953274768220088276e-01
3.708800566952222266e-01
3.501280775727559913e-01
4.958506750414729547e-01
4.613274287439692589e-01
5.096102255796067793e-01
5.954515549959442655e-01
6.745643457130754417e-01
6.510680742841257196e-01
7.929728432179884434e-01
8.638661921143518940e-01
9.134575232935425726e-01
1.031012551887604545e+00
1.077095744749369421e+00
1.123021993815124242e+00
1.223952795980915775e+00
1.275666018301137017e+00
1.331317828088270927e+00
1.384773924671617751e+00
1.369901340036197235e+00
1.443788933581804823e+00
1.457981631702731873e+00
1.408666101425324779e+00
1.396320561583136444e+00
1.371332641365765159e+00
1.288806985467684241e+00
1.240238958292910088e+00
1.172565136429664756e+00
1.119245888848177550e+00
9.964861669182394355e-01
9.190822168495522693e-01
8.860786248800029963e-01
8.327332966063772934e-01
7.345610896000066559e-01
6.582841039428360963e-01
6.213327697534258842e-01
5.030966922965058874e-01
4.612732655878830634e-01
4.327712673455138548e-01
3.527008808641772797e-01
3.362984359557180114e-01
2.769054433116201475e-01
2.645839769052362733e-01
2.289120707031955804e-01
2.052054054701033248e-01
2.432901170593388951e-01
2.323822891969603843e-01
1.797892389724008722e-01
2.193454494439070201e-01
1.972599261788591518e-01
2.143195455850204212e-01
1.590920221238936172e-01
2.155735647016632228e-01
2.108396142115138427e-01
2.444950423369031678e-01
2.220897784824278631e-01
1.961010098224125198e-01
2.105030206065808818e-01
1.934939529351198950e-01
2.403567212316766177e-01
2.544323976950546018e-01
2.667438798931479615e-01
2.239251147115752516e-01
3.139650508707870769e-01
2.397248800610673469e-01
2.477066792469112266e-01
2.370554385414836984e-01
2.528672431333872650e-01
2.502357884623103157e-01
3.065892582871309613e-01
3.123008042227453096e-01
2.423483468800788909e-01
2.673946545097399818e-01
3.705090070111087264e-01
2.766787117513408445e-01
3.135470980051750511e-01
2.672673803649190383e-01
3.114658609804849543e-01
3.062263790385060802e-01
2.560278776871922624e-01
2.605080242187311490e-01
2.913838472259144829e-01
2.592534936398723233e-01
2.512408005008131551e-01
3.014629234008492920e-01
3.614499615430676327e-01
2.526329285473487007e-01
2.906800516793962563e-01
3.123518808780676448e-01
3.168234618561415195e-01
2.827044825630106173e-01
2.798774327870815481e-01
2.858482921150534706e-01
3.036793907395555214e-01
2.599920843688772187e-01
2.780597737146077164e-01
2.398978330907515222e-01
2.631383107027975288e-01
3.165061528025619464e-01
2.812647161648537675e-01
2.224802635766136572e-01
2.205249066909799327e-01
2.305655564839155791e-01
1.853650675447306717e-01
2.422451496447991792e-01
2.472510338046088330e-01
2.113338849328709190e-01
1.814690267972363380e-01
1.405082107744839715e-01
1.993908275110942707e-01
2.218028260272255081e-01
2.072404350396986616e-01
2.229959882507012159e-01
1.354061777833579228e-01
2.088114061828210410e-01
1.843312417695192051e-01
2.098944955896863140e-01
1.629736097505766201e-01
1.191000578922674080e-01
1.805186716101384037e-01
1.418644178767724529e-01
1.703960578018577920e-01
1.670451124719042613e-01
1.958235379569919776e-01
8.907907605012051200e-02
1.622444479381742743e-01
1.393422191912461472e-01
1.323759931075539908e-01
9.717954048800583888e-02
8.585495419935386396e-02
4.212584646247177766e-02
9.731503636737903751e-02
1.410642040987996892e-01
6.384281421488763320e-02
7.746797618130693563e-02
9.785753350499906689e-02
7.990199157961574983e-02
4.041134910868887653e-02
8.780585707650852278e-02
1.214313384602283552e-01
6.307050729139963841e-02
1.120165584367722039e-01
4.921089733140854294e-02
2.464453162715558171e-02
4.983889907947133824e-02
4.574510906149058254e-02
5.887100009415801444e-02
8.281062540774364322e-02
7.606637568383931014e-02
5.986565478429241999e-02
5.652390211036454476e-02
4.477174723414328872e-02
5.158803334594933704e-02
8.504483374923081651e-02
8.123719771381276988e-02
2.725509181355294588e-02
3.814025202317387203e-03
7.669431112058991418e-02
5.120209650817507396e-02
5.958678371388331785e-02
4.670235763798845363e-02
9.421291554578074823e-02
6.602324943894558040e-02
5.718467714861608792e-02
7.457268660946733685e-02
7.271273125303187590e-02
9.584367248471753475e-02
8.970297972557980670e-02
3.702940040408671252e-02
7.871265537297433834e-02
9.056852947212966354e-02
3.374124003457085186e-02
7.159801637618105896e-02
1.175308756745374189e-01
9.481715803283947974e-02
6.430093823718827095e-02
8.069149749675968986e-02
9.623197931513002845e-02
1.065374182754499355e-01
1.163683737303414095e-01
8.811432445266451086e-02
1.001360030832542519e-01
1.128957600268237355e-01
1.322129225141017994e-01
6.497726163539269129e-02
1.384851960192855502e-01
1.661568015965199652e-01
1.794580978517642811e-01
1.684372136566102962e-01
1.974949696561467682e-01
1.073874610130862162e-01
1.202678205811953949e-01
2.023293502730228455e-01
1.521466216876276034e-01
1.935868045887546574e-01
1.857407654471002201e-01
1.538880764956850888e-01
1.720221647043806978e-01
1.180483402744621352e-01
1.107138488056657599e-01
1.481338167347641122e-01
1.761460571707911538e-01
1.453901283202133354e-01
1.102096667991707690e-01
1.398932841992239218e-01
1.536032868094069359e-01
2.010388148839568900e-01
1.789986998531096496e-01
1.886060791387789148e-01
1.773200122998347117e-01
1.454252774391784353e-01
1.793921533142840419e-01
1.788825234361444694e-01
1.734810579485009108e-01
1.719919200821652949e-01
2.441686036339303367e-01
2.468467495309659976e-01
3.052377945091623856e-01
2.965588868679353562e-01
3.395264052933341659e-01
3.932410428240965539e-01
3.960015125110254997e-01
4.510023411977829855e-01
5.722591613021360546e-01
6.441188860524172943e-01
7.195859652918851213e-01
8.667612940378924824e-01
8.691642743178420449e-01
9.512507153247138358e-01
1.065461509290208886e+00
1.085100008181914655e+00
1.168051483539068292e+00
1.244140962723538690e+00
1.256696269040254554e+00
1.319152865226130622e+00
1.349620025266585754e+00
1.377236321142473185e+00
1.367891508621919883e+00
1.387206514322816719e+00
1.348460105870160408e+00
1.369653586790936961e+00
1.293465676748945192e+00
1.237146838981062036e+00
1.162067448043253348e+00
1.091885776684741183e+00
9.529545013027829192e-01
9.674685942412730721e-01
8.460273250316558968e-01
7.575680034120674256e-01
7.535979850438980776e-01
6.371028976220844964e-01
5.963369181745100667e-01
4.939354560636931568e-01
4.162506882973021072e-01
4.315647236864927905e-01
3.527907764538693036e-01
3.096009657034259899e-01
3.324822778028984627e-01
2.536674061463967678e-01
2.191769656127324495e-01
2.021348952570788116e-01
2.474474101935848214e-01
1.809076929055433158e-01
1.262948131198268487e-01
9.084247980487519802e-02
1.539949233930186512e-01
1.291857043647026415e-01
1.667955210612225847e-01
1.019678407948292065e-01
2.275424163069601213e-01
1.636459012530550317e-01
1.262309101485871998e-01
1.691387100037208824e-01
1.392141098934635834e-01
1.950617702705567114e-01
1.470304976425650112e-01
2.056633660508749295e-01
1.744238430486560743e-01
2.015370493336111624e-01
2.154719060106820572e-01
1.870589221521950229e-01
2.229069410376868787e-01
1.634459711909078128e-01
2.357141770960620719e-01
2.095567497798427603e-01
1.950938862977421029e-01
2.267511491302265092e-01
2.021509507895793700e-01
2.066154458951423578e-01
2.631577560845022590e-01
2.360114879986322245e-01
1.790893098647549642e-01
2.354174694561686487e-01
2.754139626393857232e-01
2.204782629191513188e-01
2.787659585546352070e-01
2.541009893574420753e-01
2.147661650611048523e-01
2.009746810039111931e-01
2.793870106972944911e-01
2.610325149054052440e-01
2.679072054064066677e-01
1.712955946463422530e-01
2.912862537584962053e-01
2.211847113573886803e-01
2.609838023324346779e-01
2.548721306847113177e-01
2.788888271969458543e-01
1.986543227897296648e-01
2.589105612654519217e-01
2.639751605503450338e-01
2.036020188431126865e-01
2.576825842941782851e-01
1.664761252635381661e-01
2.267565746959005479e-01
1.826533266977927172e-01
1.703790153417013842e-01
1.663474255189474338e-01
1.669052814116645522e-01
1.654318759493482172e-01
2.033704015805413157e-01
2.144635303139433569e-01
1.874103439950115801e-01
1.800251333681895660e-01
1.152840697881627186e-01
1.128472348096485195e-01
1.397854258099232305e-01
6.978064128296129764e-02
1.425532148670738408e-01
1.139080866350280358e-01
1.260053584404971228e-01
1.283139979594089264e-01
1.803483393323321582e-01
1.471945298472532027e-01
9.589236631128705834e-02
1.315262750958567095e-01
7.192340645738397320e-02
8.658574483733978699e-02
8.360065297114459282e-02
1.026036251348049905e-01
9.274727062682026901e-02
1.144049900374518036e-01
9.594181405433114401e-03
4.482863250280924583e-02
5.492840812460789146e-02
9.528994161429142629e-02
5.191793356677955329e-02
2.786550962447033319e-02
3.937167707328743244e-02
2.448268979751315466e-02
4.356734952618185330e-02
4.621392196020257526e-02
5.212157134960689747e-02
-3.753965213678600588e-03
4.439566043449494348e-02
5.387544635144211891e-02
-3.504903459728510307e-02
9.336602116864982370e-02
7.585794492946595913e-02
3.637577800818821150e-02
2.645686640333461126e-03
-3.026056680274110539e-03
2.350124426043891795e-02
5.629581209386869123e-02
-1.075606959060180362e-02
7.805434696578530951e-03
3.935192254487824420e-02
2.480623771655990351e-03
-2.580499016812787955e-02
2.522395498533210045e-02
-4.201552678893316628e-02
-2.186936502435404134e-02
-1.840698354120967953e-02
-1.264820579194576508e-02
2.258473140436903157e-02
-2.292354319136632665e-02
2.769037165135566914e-03
1.058483764293552051e-02
2.011685342919323355e-02
4.211133813314629770e-03
-1.701087312048658873e-02
1.474422136798039795e-02
-2.764235809246548201e-02
5.109117330520698830e-02
1.160354187080007982e-02
6.505927283500211045e-02
8.580593606397379780e-02
1.661000418319864141e-02
8.713200970682250662e-03
-8.612058014937779005e-03
3.014270733113163375e-02
1.168957930661849304e-02
5.985509038524688269e-02
8.527653967388970635e-02
4.770073731447193460e-02
1.048213247219310917e-01
6.539340196450540987e-02
4.420910894905029365e-02
8.559050839179674353e-02
4.557227278807335358e-02
6.564553475933587734e-02
5.653743392635779408e-02
1.291703158645446936e-01
7.705747446790783828e-02
1.357938913557267258e-01
1.307448196302695431e-01
7.989920039289180598e-02
7.074006119966314010e-02
9.694968220059541064e-02
6.285309181999142181e-02
1.206950660051924751e-01
1.210040550243923763e-01
7.527908527139146044e-02
1.514875813857085030e-01
1.221075746656608563e-01
9.797472512179544735e-02
1.123864759692144444e-01
1.069441878504925614e-01
1.193313101435924117e-01
8.659159555894933857e-02
9.723106747947612982e-02
1.116235294614920381e-01
1.089776707951412987e-01
8.496479372535917229e-02
8.007842628998318446e-02
1.212378162988542452e-01
1.140446183014936221e-01
1.425663975778165005e-01
1.469120432537632526e-01
1.596183999583455082e-01
1.797588880870188699e-01
1.327295192694166459e-01
1.566917887659344533e-01
2.365051628399731931e-01
2.364779886018438249e-01
2.575061000737339789e-01
3.566125860234131695e-01
3.629063202382222797e-01
4.616858282384858625e-01
5.706345183921508468e-01
5.560863190709691706e-01
6.798013481935663016e-01
6.937354713631036507e-01
8.064649957727045848e-01
8.748224603177463532e-01
9.138052757176889918e-01
1.015570044455700538e+00
1.098593703121163223e+00
1.161034748564340413e+00
1.206709238196904455e+00
1.173403288774550024e+00
1.261111119096137045e+00
1.322010668479243645e+00
1.299385457684040901e+00
1.318151977220792137e+00
1.346225995248336860e+00
1.352367764942866701e+00
1.232147129237801231e+00
1.226491519571768052e+00
1.163206662594528318e+00
1.070749611781719679e+00
1.010096307220247347e+00
9.252346353049047956e-01
8.376296266901396281e-01
8.080997205600832789e-01
7.506891993015479825e-01
6.018072798076931074e-01
6.107748014201606068e-01
5.145929095413132037e-01
4.647053173218526623e-01
3.826378091692148042e-01
3.365727725935785952e-01
3.069329397137449122e-01
2.643042861128087617e-01
2.224777568351001267e-01
2.110113903086580922e-01
8.783515170388428439e-02
1.575770875278473260e-01
1.461535756195814773e-01
1.121063318183173479e-01
1.690384976338043521e-01
1.191859760647839550e-01
1.507394181133267230e-01
1.210330114642323152e-01
1.246768870581371896e-01
8.420607420553913314e-02
1.213776946480170649e-01
1.316116816118194366e-01
1.177660204876032346e-01
1.037909789359760249e-01
1.099072520150762844e-01
9.951377553137169540e-02
1.364269626458538276e-01
1.367305019015102596e-01
1.279983988817092189e-01
1.468700133128587049e-01
1.701083305701919512e-01
1.712454637793145162e-01
2.035123716047394504e-01
1.784746944390903367e-01
1.765014112855534667e-01
1.475095538930264738e-01
2.346983180550169801e-01
2.678884846768573302e-01
1.707512635439731030e-01
1.714425989271570749e-01
1.923047471221737692e-01
1.911065240803991039e-01
1.754189795592623335e-01
1.517657675408885798e-01
2.004356938816967970e-01
1.700734044129988964e-01
2.330323748837968556e-01
1.987083610737633843e-01
1.613579006677690053e-01
1.602506518235863320e-01
2.540554506386758504e-01
2.156429186817511723e-01
2.114892741491480044e-01
2.149136698496621756e-01
1.780114360309816013e-01
1.847263947135005802e-01
1.994981959645414915e-01
2.008617828261310134e-01
2.007963358822699995e-01
1.950448257799305973e-01
1.444228652489331910e-01
1.567013905345298608e-01
1.299461264201707822e-01
1.990267161739825985e-01
1.947589407379386739e-01
1.780383005604677105e-01
1.897234719633214550e-01
1.661801256125496062e-01
1.569963531892640818e-01
1.561990513953171456e-01
1.685575671315535928e-01
1.639428029246723373e-01
1.827364422877312822e-01
1.760817914854538868e-01
1.150768339696900677e-01
8.186428734269676766e-02
1.757540798074644084e-01
1.330007840649344297e-01
1.704426570681202013e-01
7.845351683585691238e-02
9.415354213752682999e-02
1.115041711313401462e-01
4.678623383327833174e-02
1.191587448548190320e-01
8.057114162514963929e-02
4.791799659770463321e-02
8.932415757876224771e-02
6.325416953664404762e-02
4.702285084115550434e-02
4.559463099882856557e-02
6.064969512085179038e-02
5.361732099059103585e-02
4.962142143613743756e-02
1.067193355693205614e-01
1.370498547495112296e-02
9.148592620556783572e-02
5.549238679390741669e-02
3.199855499046409119e-02
4.547816359002468389e-02
5.248540974956564936e-02
1.398228875942798821e-03
6.106892473492858686e-02
1.997707331306079054e-02
3.092303468345361517e-02
-1.982586424940311828e-02
1.875242336544957755e-03
-3.848399725167755275e-02
-1.569291719941544316e-03
-4.563347840887212875e-02
2.041664836042447057e-02
-4.137269436972448866e-02
5.122259411603134749e-02
-1.834467969809396026e-02
4.625888577169147420e-03
-6.331704487989636698e-02
-6.846482254832927938e-02
-1.974583722145856896e-02
-2.112032191964889616e-02
3.290490245220441257e-03
-3.536516085243865404e-02
-8.624957783848888337e-02
6.740384749399884468e-03
-2.441917367456396259e-02
-6.745829287449205125e-03
-6.394021759017029516e-03
-4.620829392282775616e-03
-1.414348209198196260e-02
-6.905960761331132736e-03
-1.039246380736871117e-02
-4.507028843387089756e-02
1.148726272737869702e-02
-3.674204342209510393e-02
-3.675922360435110448e-03
-5.275433927118580724e-02
-1.212229406407479976e-02
5.075436916910050500e-02
-2.441683682267900904e-02
6.771510432127661461e-02
-1.864224691799932013e-02
4.031400164904736655e-02
1.620710490029963341e-02
-2.584324433987361669e-02
-2.623901549196572952e-02
2.951821627493251415e-02
4.521043556880545433e-02
2.692232849613807044e-02
5.918696900117356718e-03
6.488371905551444663e-02
9.394761306570297010e-02
2.862992507450091983e-02
4.411664183267781369e-02
7.785748870209968642e-02
9.100546573369817926e-02
9.892595952575489182e-02
8.555886456046571387e-02
9.061522019047577037e-02
5.183611976130132748e-02
1.141051495887736300e-01
7.301373806757997798e-02
4.818976835952869242e-02
-2.342450637749002307e-03
6.468670218643234049e-02
9.559561848563846720e-02
7.548360544227047941e-02
1.334485428460538414e-01
9.831513197775693103e-02
1.278086330279634697e-01
1.621873101831269592e-01
1.320089600847842992e-01
1.257382894537057982e-01
8.213816051570835275e-02
1.274475325905846668e-01
5.712938884981372256e-02
1.286048068428025382e-01
1.167722739148297773e-01
1.149490570058070982e-01
1.492557578575362531e-01
7.613525907587143093e-02
1.380662934539092779e-01
1.329605192532425928e-01
1.416718865097011948e-01
1.831712470469903653e-01
1.861160430936351085e-01
1.824967801588994742e-01
2.291676392833573439e-01
3.283722831325655012e-01
3.489954006064941439e-01
3.589457271751161915e-01
4.349500026205707637e-01
4.962496808953641980e-01
5.454081643801400592e-01
6.286151505479563584e-01
6.584059348846450499e-01
7.006082273828847518e-01
8.376158271187073012e-01
8.506585576079290778e-01
9.473072199516142655e-01
1.061478744547286857e+00
1.128501350874260734e+00
1.169795599861991997e+00
1.219322971077178686e+00
1.269956432347773667e+00
1.255692931548500146e+00
1.301151864187489071e+00
1.336947621452131418e+00
1.317799615936846358e+00
1.370839443350027276e+00
1.279734037302837857e+00
1.254223795213730064e+00
1.151437080226615173e+00
1.098753007614357458e+00
1.048238954221226260e+00
9.646528250809474070e-01
8.426340294174969880e-01
7.637614432008226206e-01
7.220457694877867594e-01
6.124585394592012566e-01
6.187743208866695044e-01
5.643152970872912233e-01
5.003296935606496021e-01
3.994576311469524299e-01
3.696280358772144892e-01
2.641450644857102903e-01
2.507894913475648968e-01
1.913400808638675843e-01
1.722719583683421374e-01
1.957681804631746791e-01
1.252295739072979974e-01
1.127496331429278104e-01
1.543181443069897574e-01
1.878890579017316043e-01
9.360820716738128822e-02
1.186443804939792956e-01
1.228374437623464543e-01
1.230885524606154663e-01
1.109168956760552271e-01
1.387111743202679992e-01
1.490208219304244852e-01
1.487548848190735906e-01
1.703094463484377541e-01
1.376384744133602456e-01
1.690738219260129738e-01
1.317700096969867118e-01
2.212875318440549466e-01
1.518135106571982251e-01
9.208965515181780082e-02
1.410178763355796616e-01
1.403052501962824272e-01
1.860956397404776863e-01
2.089699929680608470e-01
2.002742529993712661e-01
1.828739533885425095e-01
1.802208354450497430e-01
2.119988361507758601e-01
1.535309253632339554e-01
1.499766870021599918e-01
2.043508437191952354e-01
1.979799683888974204e-01
1.632183693166118776e-01
2.301865348434636860e-01
1.888259051144288714e-01
1.635515158079955955e-01
2.207027998768920363e-01
1.942527512027636960e-01
2.103330189237420100e-01
2.148373201340150196e-01
2.425577382466125309e-01
2.034394081448868685e-01
2.380754170657816415e-01
1.830558023104034704e-01
2.749384142817375976e-01
2.336448174754225393e-01
2.253261547204543636e-01
1.271621696061126516e-01
1.684608939191957477e-01
2.334943008155221933e-01
2.448565315231472916e-01
2.264934471649169834e-01
1.761945913330160429e-01
2.148123950911305369e-01
1.868568664629053355e-01
1.376828242200778818e-01
1.403578022091804822e-01
1.938948564038168731e-01
2.165850853515131069e-01
1.948157471401321950e-01
1.535219334974929073e-01
1.787339937988663419e-01
1.618496146058084062e-01
2.050779321700274271e-01
1.134133297684962738e-01
1.809721421112461259e-01
1.579481427770225710e-01
1.390138259243040020e-01
1.592331988334325654e-01
1.455806346753633629e-01
9.854700049011751173e-02
1.904205159321483709e-01
1.315812942190617285e-01
1.207352906218156219e-01
9.843708875279449932e-02
1.002396140184798612e-01
9.420131440489046271e-02
8.923806094992164928e-02
1.281643628626512044e-01
1.177885158603647897e-01
8.398905437520967632e-02
5.286906312955227949e-02
8.045757309179897565e-02
2.991172650191846819e-02
-1.631903037551972468e-03
1.698676685687397145e-02
4.290017340567296722e-03
1.089066309749699493e-02
9.121867327584257112e-02
9.131129612421434727e-02
4.928727511986569221e-02
-3.182467227806558274e-02
2.838494536349643951e-02
-3.597974480200877290e-02
2.422707267297708952e-02
7.462832102912671239e-02
3.239185458844323628e-02
6.248956424892247730e-02
3.503693339949971730e-02
-3.773716080627164543e-03
1.769606748751394176e-02
3.764065182448013414e-02
2.595659682324408940e-02
2.813825373401169019e-02
3.302794973818773405e-02
1.861847442174578357e-02
-1.213239596105078130e-02
9.164926301833811739e-03
-3.928441509172594243e-03
-9.918893182529725516e-03
4.497605883342161576e-03
-1.863458645992015911e-02
-5.698915986681563767e-02
5.880364210738088515e-02
4.424183805589625151e-02
1.665170310134746201e-02
-7.756024348799343826e-04
3.157161841541961111e-02
2.137506805304345212e-02
4.278365267861795884e-02
2.415587026016129818e-02
5.778173966309872733e-02
6.995553823792166614e-02
2.155707632015427602e-02
4.118929476835636594e-02
5.616994710468590363e-03
1.496541235281408262e-02
-5.596841661058263653e-03
4.540126568331834950e-02
2.170156045949994672e-02
8.184295081050069198e-02
-3.773495568410459300e-03
7.986997947290748467e-02
3.962737062789292719e-02
1.261522900263427338e-01
3.742723782496192725e-03
1.006216673037202552e-01
4.560532601124642899e-02
3.518331485542074838e-02
9.494277891157441862e-02
9.203811637976391791e-02
1.483495117251487083e-01
1.080476038488424190e-01
1.043022570772696306e-01
1.014504207903347971e-01
8.929231369611945190e-02
9.281155016003252156e-02
8.646138042843008742e-02
1.091372574411731133e-01
1.810296123231054655e-01
1.570111158249864469e-01
1.007585666927676288e-01
1.291487482672212528e-01
1.457711367941896818e-01
1.016393173380799597e-01
1.223228215535892283e-01
9.190664134705817112e-02
1.130345503600319879e-01
1.273956997131758806e-01
1.338331009798606752e-01
1.333090679217204255e-01
1.384472450329283788e-01
1.238019654891236443e-01
1.352938778914461737e-01
1.665243117175154719e-01
1.616494656176847566e-01
1.415467321831895553e-01
1.629588259015616603e-01
1.911298210830133515e-01
1.881182176794899963e-01
1.998797821457485580e-01
2.044532211169522995e-01
2.141254026086577555e-01
2.515974896971217012e-01
2.772636406192746650e-01
3.024046093012173753e-01
3.348061778338640715e-01
3.695701613203293823e-01
4.711433160638838769e-01
4.595268507686839921e-01
4.971072501754236761e-01
6.040598269992407676e-01
6.589155725137109121e-01
7.489679615246794819e-01
8.587075046443689574e-01
8.517446467321564407e-01
9.667735147625657888e-01
1.021608619098641757e+00
1.129426787970855717e+00
1.152650468897560287e+00
1.205420305731358832e+00
1.315947278432360257e+00
1.322167368397287657e+00
1.375043698115136381e+00
1.411873569190752020e+00
1.298870411322638807e+00
1.402230989191045385e+00
1.328189773764105741e+00
1.289302621414007977e+00
1.171848923970095102e+00
1.148260834719455614e+00
1.128571728390640683e+00
1.026723611225744737e+00
9.288542659017210434e-01
8.418177263433547219e-01
7.981348613111048929e-01
7.387232932304803601e-01
6.531613751435166870e-01
5.967854535223315882e-01
5.114828160399870205e-01
4.456408668089096858e-01
4.483618309346859010e-01
3.442284477060701953e-01
3.403744861539175770e-01
2.591798014048838916e-01
2.412158502836690699e-01
2.463786599936397259e-01
2.074209017729628790e-01
2.292834805522456776e-01
2.129522256302200101e-01
1.859053225074399629e-01
1.573712198734121270e-01
1.739473887818785980e-01
1.535849313819077355e-01
1.779867264680435879e-01
1.958434240773754276e-01
1.136703612676601277e-01
1.856926569087202494e-01
1.839081381315421648e-01
2.134980624792408854e-01
1.463565678031656658e-01
1.591710076372684635e-01
2.192403840541765070e-01
1.416006612942331822e-01
1.742914349337047197e-01
1.905314403541473189e-01
1.471011693736113957e-01
2.241386131069925958e-01
2.118475320895897018e-01
2.159699167885801574e-01
2.322859680846111607e-01
2.249570101808592015e-01
2.518218413433175873e-01
2.426282956265980173e-01
2.376255849547112553e-01
2.332286288260021212e-01
2.877483703209658961e-01
2.931030120951842455e-01
1.988632149127662063e-01
2.500886092408146077e-01
2.259886153656854579e-01
2.696756000971650136e-01
3.258686801155086799e-01
2.733466913097014062e-01
3.161195639616812270e-01
2.822886892420651828e-01
3.190786341347384703e-01
2.558778852610332222e-01
2.556033856071907029e-01
2.888855580040694537e-01
2.273389480342102309e-01
2.938098227011415320e-01
3.410227462991334280e-01
2.059876898208788110e-01
2.251379187690325523e-01
2.524690015995630366e-01
2.228205351747397645e-01
2.919969727428335382e-01
2.191234724188927396e-01
2.634011003264193351e-01
2.486995440237400323e-01
2.135375468932429743e-01
2.340628871670192845e-01
2.146343136727515144e-01
2.675754923117681372e-01
2.158777240781885320e-01
2.130787359898806688e-01
2.145450236468612881e-01
2.117689621070021622e-01
2.424461572858841174e-01
2.265325679652293034e-01
2.637190910184743498e-01
2.093035947350299630e-01
2.096552746917809684e-01
2.600872250533430852e-01
1.638308582347911546e-01
1.907967049907201840e-01
1.281742131908285842e-01
1.910882092010373901e-01
1.259723462715829911e-01
1.398601952861027453e-01
2.016685202239179298e-01
1.752767010915727008e-01
1.571921827601271970e-01
1.649044248357226239e-01
9.902023653707410500e-02
1.712397934225500795e-01
1.986044038184626159e-01
1.126814023893511207e-01
1.865838559447890455e-01
1.196494148114788103e-01
1.415823278490313253e-01
1.390195451949000072e-01
7.619281586711126875e-02
8.651611541772238900e-02
6.923080113851753925e-02
1.098819681014799876e-01
8.521376162509647356e-02
1.194713664575448586e-01
5.859262762555642046e-02
1.381476093686011264e-01
8.981944927657316280e-02
2.693978992046913712e-02
1.154203436317638443e-01
4.706534680433108880e-02
2.628590268729866578e-02
9.671159569614053153e-02
5.114966042494482890e-02
7.005423094934477846e-02
2.995134248360774645e-02
1.016419573483075267e-01
5.353145170988701101e-02
7.013380366125487875e-02
4.862252909195448336e-02
8.832289140855928422e-02
3.939419938585647651e-02
7.616591331026301148e-02
5.310174245729457065e-02
4.444281138566600481e-02
6.804403740480580165e-02
7.163327746263581375e-02
5.295293559768170233e-02
6.449801550374709147e-02
1.127363087528903407e-01
6.661708900430758640e-02
6.394305548288065078e-02
2.977055774302481833e-02
3.850451174733048043e-02
9.562222499362044159e-02
8.327626546713479128e-02
1.113404961993205294e-01
1.249852775928793069e-01
7.240476015338412341e-02
5.268907036671039573e-02
7.998903212817834452e-02
1.009248150872685684e-01
4.820211978629627969e-02
9.377740960782962598e-02
1.311051612874596095e-01
1.208679127089171412e-01
1.151555950783249710e-01
8.856375913602138050e-02
1.077526244000785449e-01
1.159071502315207336e-01
1.143999570773433783e-01
1.622077059911069818e-01
1.583415805398498133e-01
1.808761989236667977e-01
1.708461960673928748e-01
1.362259986918484822e-01
1.562670006466036488e-01
1.082219985888893399e-01
1.357845683781165047e-01
1.793457771425362446e-01
1.749690683045119766e-01
1.625267066216245504e-01
1.650898858049185125e-01
2.237234414521073189e-01
1.699491105846658301e-01
1.658147602179572133e-01
1.823434063803611171e-01
1.982965771125112797e-01
1.839335952785519923e-01
1.703827949529484465e-01
1.911289578455662164e-01
2.071251283934790466e-01
1.970845271078381644e-01
2.038671948110033216e-01
1.879256131392224027e-01
1.275693618827375420e-01
2.125276135445557379e-01
2.185175205654091291e-01
2.406831077132450258e-01
2.169417879056794174e-01
1.474798832381729041e-01
2.056822078257301567e-01
2.642114415624636781e-01
2.292138825228063892e-01
2.480139045127277564e-01
2.871557663012297978e-01
2.769328600854521483e-01
3.131980891252442167e-01
3.814731987755587972e-01
3.630540187976869504e-01
4.729418632962225644e-01
5.189033218371124079e-01
5.409212239801146627e-01
6.361720758144117083e-01
6.836701113087382264e-01
6.858717149455761941e-01
8.650050438513633422e-01
9.075566368089155178e-01
9.579560162152982450e-01
1.067598735674149868e+00
1.122519263829718339e+00
1.205304098378691346e+00
1.282115610977290654e+00
1.350838790644674381e+00
1.366247952548915734e+00
1.468144252438439379e+00
1.439254239346483555e+00
1.379007215843973011e+00
1.354772947443107389e+00
1.386609661210875144e+00
1.299159229988066988e+00
1.359340233284072497e+00
1.293657799175847778e+00
1.196687688579086695e+00
1.123189229786811127e+00
1.064924087161230659e+00
9.588415823442238972e-01
9.243388787579737143e-01
8.391503536356789139e-01
7.441581165526243158e-01
6.740548740663339089e-01
5.600864138762635669e-01
5.519823064003231972e-01
4.955797162017818169e-01
4.356019475693033716e-01
4.234705827103674158e-01
3.455937393565671756e-01
2.976916289548028338e-01
3.275589126267706708e-01
2.862582600341535000e-01
2.517648462637904205e-01
2.542273981328157517e-01
2.489940506289370081e-01
2.349037349059389101e-01
1.425274884409563625e-01
1.891590925539619605e-01
1.655421263946583454e-01
2.371358143643348404e-01
2.368083899049888141e-01
1.975001793579768961e-01
1.901666384291004486e-01
2.570492974227612248e-01
2.729807148185081633e-01
2.301792415554826110e-01
2.427008017913155347e-01
2.603090902950323526e-01
1.777705860517633241e-01
2.250761374163766371e-01
2.251378157374250011e-01
2.699402673196423241e-01
2.192213019327149404e-01
2.180279841244002481e-01
2.392950734083103270e-01
2.492449347789704173e-01
2.136325933845022174e-01
2.704459007165370688e-01
2.752653748650545906e-01
2.102447898339558363e-01
2.867135927565442888e-01
3.191527561457858653e-01
2.980162542887923038e-01
3.093672216390903618e-01
2.827888480571830732e-01
2.901541127675203446e-01
3.234129486790993102e-01
2.977571930865214878e-01
3.141644037947813883e-01
2.974404730086664950e-01
2.893577174565736820e-01
3.068536316699949085e-01
2.748022733347350588e-01
2.804656695504009756e-01
3.112660119423266702e-01
3.219366978003175839e-01
3.005104591235134848e-01
3.246145067941181295e-01
3.317704819841755803e-01
3.074243319722756995e-01
2.769801428389732090e-01
2.764379384384159088e-01
2.663589497867114853e-01
2.937580823853008227e-01
2.804932488236224764e-01
2.849465383137689267e-01
2.608505720724582644e-01
2.063626393234858913e-01
3.306856128147039331e-01
2.783708486046903019e-01
1.893953015748844615e-01
2.117700552190186214e-01
2.484768345332701855e-01
2.713566570124121835e-01
1.844105054365017815e-01
2.663827296651249399e-01
2.358163538897224409e-01
2.299080093353049192e-01
2.663486248300658832e-01
2.224348879890132580e-01
2.423925984306991022e-01
1.667530874168077770e-01
1.933735280912452226e-01
2.247973837953430865e-01
1.835529984791863245e-01
1.930071171101634120e-01
2.164438226817724520e-01
2.303212869198105195e-01
1.989016411906928961e-01
1.784427725984709112e-01
1.931999284582478493e-01
1.859233672261859927e-01
1.520145070335112147e-01
1.451642029497526853e-01
1.742935472422596499e-01
1.286969062492098193e-01
1.137735285747320246e-01
1.879967923508862326e-01
1.668618070694241895e-01
1.209245120403562856e-01
1.304884806732519720e-01
1.042136317819879476e-01
1.536237292904608642e-01
1.170876774235199563e-01
1.547130418982371747e-01
8.040370561348439415e-02
1.142429355721997775e-01
7.698085612958435742e-02
