1.444971307447880271e+00
1.368886953310939569e+00
1.397748682867950620e+00
1.357738026583151791e+00
1.325170260282725776e+00
1.198500936105528547e+00
1.215972878179435446e+00
1.177182200017821145e+00
1.102428765168075975e+00
9.978025447829478312e-01
9.456910001266286558e-01
8.692377487434275185e-01
7.903096070530147843e-01
7.566551135594582478e-01
6.198785110386196839e-01
5.367712896812305567e-01
4.826388786342408199e-01
4.416378518954671151e-01
3.609913111598865854e-01
3.725658459252627064e-01
3.271587083787368955e-01
2.856788053520629700e-01
3.031018566298276928e-01
2.217391155906005551e-01
2.488046925493738737e-01
2.324593927809470717e-01
2.461742249359613610e-01
1.507338691083669469e-01
2.685367499973853600e-01
1.854589600791944348e-01
2.407963838283840863e-01
1.822090980004533178e-01
2.385774683173445543e-01
1.899677302062393880e-01
2.622771207340571231e-01
1.573606573467937753e-01
2.369279405496413915e-01
2.270437120146595045e-01
2.181048053388526253e-01
2.361664216331116617e-01
2.389732912775042184e-01
2.257066228466865776e-01
2.700073917437989524e-01
2.878252865415408812e-01
2.460495295576293484e-01
2.502999400314244727e-01
2.221292907684360718e-01
2.259998387513744433e-01
2.934503673708854232e-01
2.908184670303608499e-01
2.648034222236534951e-01
2.310570266326681388e-01
2.405732871812685802e-01
3.138969051564348689e-01
2.876289939602186263e-01
2.590836047103343698e-01
2.483861982749860364e-01
2.579018355160568321e-01
2.277694508718987043e-01
2.618140769558831016e-01
2.231029427160431122e-01
2.765573862377893044e-01
3.183396271603088912e-01
2.579738889353078157e-01
2.600988264451395970e-01
2.150117697943275952e-01
2.936880647656575638e-01
2.979484250752140184e-01
2.504826264491145094e-01
2.696830556777711774e-01
2.541942418555367400e-01
2.794326594332449676e-01
2.405774438802925630e-01
2.922872345601896793e-01
2.742116584367810805e-01
3.016248143153028582e-01
3.081027599789031290e-01
2.572397493871016461e-01
2.455552355407791543e-01
2.506886177445121766e-01
2.104074087979383723e-01
2.560154084644664096e-01
2.353269906392232436e-01
2.469127244586948322e-01
2.305263437340763777e-01
1.890903356493080500e-01
1.770994465827447906e-01
2.403465011934851903e-01
1.776405138331885458e-01
1.763748114568541581e-01
2.218634192643302860e-01
1.750640514261538883e-01
1.953241919259661452e-01
1.613488040206214336e-01
1.584054663747885283e-01
1.593212544094460836e-01
1.668727345263263939e-01
1.890979764369516702e-01
1.014137288638828210e-01
1.692222288817010201e-01
1.533197224582469598e-01
1.343634539052596666e-01
9.393061210890994717e-02
9.479542849165993601e-02
1.029155873737322702e-01
1.256550644529971505e-01
1.820019875771796136e-01
1.383551074142847503e-01
8.694562292290253236e-02
1.301640861080322065e-01
1.485498458351600104e-01
1.426177875050300137e-01
6.061903401171123834e-02
9.978114779504684839e-02
1.093268769554130160e-01
9.596198732041612278e-02
8.349825515139916443e-02
4.519523243457541223e-02
1.113013118286436953e-01
9.788273681491896361e-02
7.675727820507537158e-02
4.853324167791622790e-02
6.253135842752757800e-02
6.043531456789753842e-02
2.035245540325959085e-02
6.533610306653070410e-02
8.739932362959848544e-02
1.106688046746672344e-01
9.450871582663486481e-02
7.512126705441857233e-02
4.681552417840200569e-02
1.035739748246108510e-01
5.822936784464884802e-02
6.422304006838348844e-02
4.227285099668181417e-02
8.670527435884947676e-02
2.852789636845003834e-02
5.335508702865265213e-02
3.776703422555893752e-02
9.193674413182903460e-02
5.969301412439550342e-02
6.609367298617180309e-02
2.927626949907398413e-02
4.898124397344832959e-02
3.014458912950065267e-02
8.123677959780775670e-02
3.703553242596098471e-02
8.267484295909671710e-02
8.012010204983530115e-02
4.348056247571799315e-03
4.222550393842160882e-02
4.848504710102895243e-02
9.289076003669555215e-02
1.077234699015763436e-01
1.063523922241615960e-01
9.245389840777795687e-02
6.867279205529613906e-02
1.136739423420359413e-01
8.265189243333410929e-02
1.128564925656377199e-01
1.143217941101816598e-01
1.246100608570484686e-01
1.801304411336544786e-01
1.132820094116351456e-01
1.242937189220932048e-01
1.656692524934752775e-01
1.492583557449318199e-01
1.342927850358956454e-01
1.425958240516006226e-01
9.767722039104138887e-02
1.674147854826283921e-01
1.693126886713012258e-01
2.075913697555049064e-01
1.127178423321265055e-01
1.496960227582591618e-01
1.642168724620423903e-01
1.533462242978934631e-01
1.594395830928174995e-01
1.315061342360773489e-01
1.937486271597516629e-01
1.868514818419365064e-01
1.615575273707466342e-01
1.393400690853976998e-01
2.082639720720916854e-01
1.772721768408866416e-01
1.847518785524684126e-01
1.524178182775881019e-01
1.335688891040874293e-01
1.869949077717429908e-01
2.212723806611747723e-01
1.912953966190407973e-01
1.802433414476352636e-01
2.276982816874666415e-01
2.056974267522112543e-01
1.732451181231580706e-01
2.661654062284386502e-01
2.292062684754376800e-01
2.727624462387231996e-01
3.408867680381545973e-01
3.491180045947864796e-01
3.582403894609055284e-01
4.034314680396534625e-01
4.774519053846512651e-01
5.567816309757039894e-01
5.570241832367660573e-01
6.653465776548863619e-01
7.317350219050930971e-01
8.532526030654145055e-01
8.174146259745517229e-01
9.829938549630808931e-01
1.022779495282608142e+00
1.078152903264112172e+00
1.184806225450843797e+00
1.189208867400620262e+00
1.291021942137218215e+00
1.354600267405466019e+00
1.350188065634860379e+00
1.399612577092408161e+00
1.356911997327422625e+00
1.375997111092637448e+00
1.387834652364242194e+00
1.365382579815689779e+00
1.321790868868836899e+00
1.252887759361485776e+00
1.197329857532626329e+00
1.079716949781567070e+00
1.049399282705861136e+00
9.786860489039694855e-01
8.600371214190581926e-01
7.962833493742889068e-01
7.047121136104272932e-01
7.248838524203379263e-01
6.012597814772266958e-01
5.207568223171900046e-01
4.857507528415873077e-01
4.048030414760558915e-01
4.046120899943081439e-01
3.303884683018697421e-01
2.816795645518374025e-01
2.671286828475215036e-01
2.484029854003598214e-01
2.306216822176982428e-01
1.570913868677513980e-01
1.986713238396869141e-01
1.695893785969233569e-01
1.619574711027705338e-01
2.231442666536506692e-01
1.940392873696217269e-01
1.646626461821612541e-01
1.920152747872263532e-01
2.198294211301149992e-01
1.426736690540514052e-01
1.705540342399922416e-01
2.216294207114347659e-01
1.666134911660489271e-01
1.818352541976799019e-01
1.995199745072938069e-01
2.252949802071184116e-01
2.313638924526154605e-01
2.699292618663936549e-01
1.993671437144212966e-01
1.759878930632170491e-01
2.365771085510713079e-01
1.780266293959103796e-01
2.313314238379259036e-01
1.988370695840653291e-01
2.174417526426440928e-01
1.919377529427780671e-01
2.034807050979456355e-01
2.349271245376646222e-01
2.444885600611277909e-01
1.915455897368825988e-01
2.606528480262344516e-01
2.122672610839739238e-01
2.786898185679714812e-01
2.192451477433685902e-01
2.582020061108949993e-01
2.793328920341074384e-01
2.066859360369080190e-01
2.742073126808320382e-01
2.428165146539055241e-01
2.379404637013221580e-01
2.257524194335235879e-01
2.768218376269550030e-01
2.659141807009458569e-01
2.390221786868139409e-01
2.711110983210808789e-01
2.967823440522971423e-01
2.516935718805815569e-01
2.204470892051618169e-01
2.317491439549301535e-01
2.127774344127985606e-01
1.896144227149646477e-01
2.213305138858691068e-01
2.530341426914869962e-01
2.625620735929476424e-01
2.202846683712861575e-01
1.930534910058648301e-01
1.891485809482930935e-01
1.698110082541025856e-01
2.427599848573794572e-01
2.304765346228331291e-01
2.098837817792530147e-01
2.258975832040064913e-01
1.433054601550798335e-01
2.170677458976425223e-01
1.477964170799950239e-01
2.008080841301920771e-01
1.669848900308310846e-01
1.773287438014302664e-01
1.514109777821731340e-01
1.516157583436406608e-01
1.509573168031404233e-01
1.598450940160413281e-01
8.748431851877624954e-02
1.115058933290900139e-01
1.097305006743576616e-01
1.486111754105030880e-01
8.706221647292292087e-02
6.512511502076422099e-02
9.064638575999070524e-02
3.701899140590581699e-02
8.592198052918718909e-02
6.185268522000279823e-02
6.981701711440854718e-02
7.676087391619368372e-02
4.683264312982639288e-02
5.970431407142304248e-02
6.655793996352030173e-02
5.835623149851192071e-02
6.895119165811208761e-02
8.119128067998938880e-02
5.468417885467878603e-02
1.537944935560397151e-02
9.169914994859011681e-02
7.972473208870521633e-02
2.819461011513740151e-02
4.077927013693604524e-02
1.003612117154474917e-02
8.232964222615822558e-02
3.350814300940564011e-02
3.819440752548804857e-02
2.632843137939471639e-02
4.147159612582462102e-02
5.710022313956868850e-02
2.966998556711772372e-04
3.775453855029606287e-02
-3.674548182867500012e-02
4.570403187277905649e-03
2.822989078450876752e-02
1.088516606907669049e-02
-4.381021825970466549e-02
2.916743078365063857e-02
-7.470806714415637734e-03
4.735814779231123373e-02
2.533905072448182361e-02
2.115248128419600776e-02
2.949475593741123294e-02
2.570323802577069786e-02
-6.257234211182165912e-03
-9.969267403886622469e-03
2.521466506334291494e-02
4.824612957791049594e-02
3.334037747204589980e-02
1.736659030020663505e-02
3.679827196416565749e-02
-1.525660002170858842e-03
8.496206349719562234e-02
-1.819639162554408801e-03
2.776719461224064558e-02
8.048102883299708410e-02
3.577590236721823330e-02
3.763433294829478248e-02
4.318600633032218528e-02
5.763669692784902793e-02
5.864169607880752311e-02
3.123181869143992068e-02
3.603872713990114579e-02
8.318991854852776646e-02
9.249140269234241984e-02
1.405415728067003212e-01
1.392997248769529128e-01
8.536590932344700899e-02
1.053731511909777457e-01
8.499589939530066696e-02
9.605749006950767277e-02
7.694064391030744354e-02
1.147828621492684303e-01
9.263225995073748331e-02
1.461640236647959445e-01
7.002087914712699923e-02
1.197350560949117515e-01
1.031187137792011072e-01
1.116080285451576670e-01
1.785097373562703482e-01
1.418340734439647033e-01
1.316939598191904648e-01
1.343454604430618926e-01
1.144268615543402728e-01
1.261833685966239349e-01
1.032958139110132373e-01
6.854603797956687616e-02
4.365287422117949956e-02
7.860265278210087914e-02
1.609273987347474288e-01
1.787154628920846200e-01
9.530520770474662506e-02
9.649812607539483278e-02
1.494738425906340651e-01
1.308806526430595918e-01
1.181449656496239009e-01
1.781048180761760635e-01
1.586686752286145530e-01
2.098081969204608488e-01
1.965244685619928489e-01
1.958765269976146250e-01
2.509263214044746282e-01
2.910640002465797460e-01
3.027773122326227750e-01
3.412183347846516335e-01
3.928276721346379285e-01
4.478304347433202381e-01
5.691363392235001539e-01
6.035223875486438461e-01
6.503015160774688885e-01
7.372496495034567277e-01
8.463162044054437505e-01
9.038404209920892773e-01
9.151306423584124605e-01
1.020730388039734482e+00
1.094402036703165049e+00
1.178097839733209362e+00
1.201507435083020603e+00
1.291345783283236237e+00
1.366296891491007415e+00
1.392489960724257125e+00
1.333202646090644317e+00
1.369102632468238268e+00
1.331678793025140584e+00
1.278188191093007742e+00
1.272458366382016592e+00
1.194076926518728987e+00
1.233837051861379042e+00
1.089213244393953284e+00
1.031924309125540562e+00
9.351216408903338939e-01
8.600740410669177605e-01
7.747762157965253360e-01
7.241053876309185844e-01
5.764615603182970949e-01
6.280051866401470395e-01
4.484536691948842191e-01
4.604257862712074489e-01
4.477214965173575423e-01
2.896276785792266106e-01
2.972881471790759789e-01
2.930495906630769531e-01
1.988633278937793070e-01
1.942833140762252886e-01
1.378433243799579155e-01
1.621812452827599005e-01
7.189067859522144111e-02
1.215720580088926056e-01
1.176578851953739846e-01
1.321275538096198243e-01
1.038833269371314538e-01
1.647524591151102724e-01
1.466500246387047734e-01
9.254622597299339004e-02
1.093814945382328846e-01
1.570785364261122197e-01
1.619418245416661961e-01
1.127354898104548225e-01
1.281016307656264175e-01
1.594935042532847347e-01
1.664873541819505420e-01
1.580551513849696998e-01
1.616749122059195354e-01
1.059574665079829336e-01
1.878175747433806775e-01
1.687730506626894389e-01
1.721462990874582932e-01
2.059166616935403094e-01
2.008338800377823530e-01
2.142757472513997230e-01
1.819705241468974055e-01
2.122346867992178088e-01
1.637691807171186564e-01
1.301377588801129193e-01
2.076294839903243261e-01
2.303103334364027255e-01
1.687310323496868658e-01
1.520025030149314837e-01
2.049420720452440614e-01
2.085456766009226581e-01
2.030088632192105225e-01
2.094795957950198739e-01
2.558442833718930776e-01
1.628141969777775200e-01
2.507209084093515727e-01
2.114655751613739032e-01
2.009438687327090300e-01
1.996207068856161171e-01
2.072700091416089241e-01
1.963928404443425202e-01
1.522415667088723723e-01
2.024891274031236088e-01
1.714776193252454950e-01
2.200474267958964503e-01
1.590135441948698214e-01
1.649452393529877436e-01
2.094668597811852329e-01
1.808321904194970797e-01
1.928253111954638943e-01
1.556988580388931620e-01
1.906052482611807763e-01
2.187612470422723443e-01
2.096179930112253842e-01
2.027309252762850011e-01
1.103663461298672044e-01
1.358977718705744187e-01
9.784430464670751393e-02
2.035891309948101302e-01
1.654207359810058731e-01
1.300434529700434938e-01
1.302467819993035070e-01
1.017158520567983115e-01
1.188289998152211313e-01
1.031904611313761155e-01
1.249637968888321349e-01
1.199583418457261519e-01
1.128017344581857956e-01
5.749533551925422453e-02
6.187291897601962520e-02
1.141153159360313585e-01
6.658376787711432765e-02
4.737430346918163754e-02
4.536205080579670812e-02
8.310441876848292941e-02
6.992255951035972195e-02
5.560509201845233174e-03
5.690306604339712138e-02
6.267077505357376843e-02
-3.509442746433652505e-03
-1.104040982236745294e-02
7.849052458805509669e-03
4.028260008612105647e-02
4.180471636173906103e-02
1.799222280124319895e-02
1.345787483150993891e-02
-7.409162599940344318e-05
-1.023357648842336542e-03
-3.534139276292880966e-02
6.044070912103530202e-03
-2.163339654950497890e-02
-7.679409075567675269e-02
3.666120650046018892e-03
-2.928531374911890264e-02
-3.944599283084605085e-02
-5.191525527845638338e-02
7.445203388381504972e-04
-4.670416886207542917e-02
1.205473318588962117e-02
-1.636437761772522453e-02
2.098836749494480125e-03
-2.935311885906058058e-02
-5.321850340490366649e-02
1.576492072604354644e-02
-7.620715388309287630e-03
2.697035258117359835e-02
-3.792436740857516031e-02
2.927204214004717336e-02
-1.060675605537122340e-01
-1.232013123719002956e-02
1.272328675915846558e-02
-1.064091190740123344e-02
-9.815031539440660646e-03
1.456271638414696756e-02
-7.423635143835906336e-03
-3.376173549697922965e-02
-3.370915509268516963e-02
-3.547479542675396891e-02
-1.210502837512260343e-02
-3.485297733588303692e-02
-1.535064620706694249e-02
4.071381331538526105e-02
-8.271206348137785658e-03
4.089046240928288778e-02
-6.263183635219243817e-03
-1.789758009585826898e-02
3.651057888382612526e-02
2.902824393811565679e-02
-2.364440240662075976e-03
2.599419054157860870e-02
-1.220166423325255711e-02
6.688483221782209887e-02
2.427063430513951708e-02
5.684589071506500335e-02
4.562246439054504915e-02
-1.124637193935845714e-02
1.497533684145087307e-02
1.433502977462526584e-01
-4.782923495566179795e-04
8.457909915398917344e-02
2.912604278182823192e-02
8.268399035756585080e-02
-9.529131969194838681e-03
1.114064340047088431e-01
1.312977081313309313e-01
1.089944271428716638e-01
1.159563803192691089e-01
7.605663598696491001e-02
6.828071699562801578e-02
7.849773821033464993e-02
9.157841358402107890e-02
1.456396761911381010e-01
1.132490305245032886e-01
8.779679271299689614e-02
7.109412687083888072e-02
1.659949314286943145e-01
1.377346280233287534e-01
1.339183689074545103e-01
1.067401823123040883e-01
1.350451247179785264e-01
1.544566712589282020e-01
1.444818736203089815e-01
8.402402555041549315e-02
9.700401325209610792e-02
1.212748789007744021e-01
1.143735203961036284e-01
1.574202056407792150e-01
1.429292576900272616e-01
1.431514187732081389e-01
2.425799551851167968e-01
2.119815857050777186e-01
2.646972806691134106e-01
3.087777189198445127e-01
3.668154841070873085e-01
3.368322339537765941e-01
4.346675317720606335e-01
4.670287545053056211e-01
5.797002326198884559e-01
6.420794044462106998e-01
7.038033671253468571e-01
7.334843512094761930e-01
8.030361460530862638e-01
8.835449973414061242e-01
1.019171405330033142e+00
1.029954511713641052e+00
1.148477556444882586e+00
1.231762468928653931e+00
1.318878900292736578e+00
1.301096037058329991e+00
1.250368610007550396e+00
1.362164990835320832e+00
1.317806717509692360e+00
1.322045220061309312e+00
1.330487330316827421e+00
1.284646977889920993e+00
1.238752722352598257e+00
1.152380659380758621e+00
1.089901160803216307e+00
9.855317912915235734e-01
9.576384818553189682e-01
8.779851660283983783e-01
7.995244105507091081e-01
7.259531519451923876e-01
6.277036980348696948e-01
5.915880110306512840e-01
5.304389714548490842e-01
4.406619301664881916e-01
3.814116174188559860e-01
3.316582924736692917e-01
2.685312612744770178e-01
2.804020449541212989e-01
2.381463152364136082e-01
2.031303183892440023e-01
1.721953771756264961e-01
1.206861365412065512e-01
5.964811679302384900e-02
1.723382098012056773e-01
1.619733968875679553e-01
1.108282602245475867e-01
1.079458940539641532e-01
1.747349885856050444e-01
1.253911202329234531e-01
1.383290981138920461e-01
5.339597170839258111e-02
1.593191575757990641e-01
1.151284959657671025e-01
1.578847149252826654e-01
9.267323435385302344e-02
1.493340326171913313e-01
1.075702536709038787e-01
1.329265644602188878e-01
1.706882443189788046e-01
1.415862144855883076e-01
1.675664542336330887e-01
1.622227449979639913e-01
1.125268964978697050e-01
1.063105957546273267e-01
2.589326405403794551e-01
1.121979502014380514e-01
2.091565007426255396e-01
1.652234828137098821e-01
1.919481788903109054e-01
1.862665526459152121e-01
1.934360110969653435e-01
1.851266855189958038e-01
2.209255645229392384e-01
2.020317298540953432e-01
1.747144113437259505e-01
1.918048603334037427e-01
2.451085699305566579e-01
2.098382639773304914e-01
1.447854653332410479e-01
2.327939696788141333e-01
2.189350286746443441e-01
1.880736560638073263e-01
2.177998873094138255e-01
2.444199342022620458e-01
2.268794471733137641e-01
1.973274355217862763e-01
1.946751709284651188e-01
2.708042147562757518e-01
1.957587096492134360e-01
2.096840257167769672e-01
2.175723009791621365e-01
1.814597190956753758e-01
1.586545033386280168e-01
2.117739311479908682e-01
1.720172962107795467e-01
1.608543373715330127e-01
1.616720578522506946e-01
1.018665240291278251e-01
1.592923164212710352e-01
1.954810798758908619e-01
1.500221809224848435e-01
1.328027576598765913e-01
1.835626331210011286e-01
8.330297859019408779e-02
1.398572270654155347e-01
1.396539418309187264e-01
1.248696310921426772e-01
1.443455393731407632e-01
1.024577857270112941e-01
1.018682110849911948e-01
1.001991539315266466e-01
1.217910544492403629e-01
8.703652992274074629e-02
1.355527378191710985e-01
7.910180668796776282e-02
9.874950931535519949e-02
1.377844041279500664e-01
1.197731835364747865e-01
7.586655823678797872e-02
6.419738905847299781e-02
8.518354703868263877e-02
4.435233809127556159e-02
2.383761803974777244e-02
4.765723121551238700e-02
4.852403191110747638e-02
1.175284950327358802e-01
-4.186392545814494881e-03
4.760032626298874719e-02
5.171204677612774303e-02
7.238272774997903114e-02
1.521616841026031397e-02
5.685802133837333794e-04
6.706923759182994993e-02
-1.355629039904025779e-02
3.404093007438151880e-02
2.284431940811918610e-02
3.851355463235939941e-02
1.896141385185794864e-02
-1.322435723545431832e-02
-3.196805462249233121e-02
-2.283695419923204711e-02
1.105256432321063964e-02
1.446033999062632316e-02
3.400176579243618241e-02
2.425994673219546843e-02
1.691956821650836620e-02
-8.641793576802846849e-03
4.949751740674801503e-03
2.756889049554484689e-02
3.461282109252013239e-03
-3.197711032345935955e-02
1.050887547347627293e-02
5.537031998119693044e-02
3.471548276512859132e-02
1.776435090070347181e-02
3.338839128160613068e-02
-1.739541737665281293e-02
-7.589996311165787823e-02
1.651034183040104089e-02
-1.307845817767738783e-02
4.127402405681733499e-02
1.453844354850376483e-02
-6.001899804367150787e-03
3.608884321530347883e-02
1.176234856466726666e-02
9.627857018708725623e-03
6.272799485424022936e-03
5.522202559997477223e-02
3.508237923286938037e-02
1.673547211904107684e-02
4.970633716170078098e-02
8.136217460409711499e-02
8.693402095276969721e-03
1.572281074027897033e-02
1.856859488524082585e-02
5.011362403108257646e-02
4.885285617406148750e-02
8.209885695062427158e-02
8.221858544067529861e-02
5.951927716220634101e-03
6.618029181530421523e-02
1.077829160453238899e-01
9.162282849647644667e-02
1.157523635314422344e-01
7.105922050621989172e-02
1.063244641620972597e-01
1.286683794550655402e-01
1.079678850406147889e-01
6.767475598642491708e-02
1.060991934078880095e-01
1.156024771403256074e-01
9.652155836780282328e-02
5.352734608763573543e-02
1.710820845984007132e-01
1.100788125685444596e-01
1.715162968150675538e-01
1.365757944386348510e-01
1.429781863702505873e-01
1.484534858237699650e-01
1.586744329447208890e-01
1.428099520946630452e-01
1.506621733060711510e-01
1.172281025544921751e-01
1.481395819097882649e-01
1.693212237103183526e-01
1.246702339974859880e-01
1.732378288827111368e-01
1.868180633446285543e-01
1.595993615573589042e-01
1.261090657532596415e-01
1.766273157896865176e-01
1.625332929322181319e-01
2.327018254721360258e-01
2.406996198918774921e-01
2.156807956117909875e-01
2.874060914110007081e-01
2.198625655838865045e-01
3.275891090344140166e-01
3.569257206470932697e-01
3.605957142781305302e-01
4.625901366835001860e-01
4.619137193044456358e-01
5.618125023312511290e-01
6.484839949193504927e-01
7.153318675390497594e-01
7.845374018617730094e-01
9.080500386180337946e-01
9.583755762644441401e-01
1.018657230162272942e+00
1.077603338140200817e+00
1.131304698045323409e+00
1.199608700542968531e+00
1.289932793111397080e+00
1.315793100639744528e+00
1.310060693932584730e+00
1.383051578619048261e+00
1.362358446065345507e+00
1.362872299027367395e+00
1.311893107181368423e+00
1.276310292675632896e+00
1.265344248272578076e+00
1.174113066436164754e+00
1.214648359252991972e+00
1.102385798000703909e+00
1.033699121244846308e+00
9.597378837800430995e-01
8.331067162912507706e-01
7.302215976590639146e-01
6.403542529573280628e-01
5.980238646615874121e-01
5.638608667218870663e-01
5.038394579413603136e-01
4.337241807341833955e-01
3.621182187787697626e-01
3.850456562986716014e-01
3.119527684120410038e-01
2.214304037589083507e-01
2.500969774057510975e-01
2.414639904753570487e-01
2.001984817941493688e-01
2.113388291772597960e-01
2.086699488348539577e-01
1.945638407291326311e-01
1.842642652093783862e-01
1.989983166006094872e-01
1.534363760730783899e-01
1.247175528633973490e-01
1.666652027981050666e-01
1.745537540357303408e-01
1.763734795223760865e-01
1.502721144278379439e-01
1.752153121825639759e-01
1.136341405059162063e-01
1.737529459580149371e-01
1.964637157329681694e-01
2.122607398518165656e-01
2.092806361387321290e-01
1.606193387573955633e-01
1.869293826839500960e-01
2.095653154946607866e-01
1.717995004854180607e-01
1.844289699273482797e-01
2.096216054609570389e-01
1.827824963392384872e-01
2.679612678467990228e-01
1.828942507856382016e-01
1.786566956148851748e-01
2.268850334261262591e-01
2.728165614209895895e-01
2.207854591406181455e-01
1.688742259567584114e-01
2.063027678218770644e-01
2.671225038411764174e-01
2.091904987542301531e-01
2.836606404986714569e-01
2.717993488822533776e-01
2.714911474997823704e-01
2.473469012888555307e-01
2.177295901539058609e-01
2.605382416710178006e-01
2.521463454447503971e-01
2.802646611554289735e-01
2.987775868271460022e-01
2.121324235491618693e-01
2.895727994716354448e-01
2.063443259519701090e-01
2.248092122483293376e-01
2.465019072211565854e-01
2.358409785787396185e-01
2.634843849110743985e-01
1.578293298441756920e-01
2.812484566630973348e-01
2.167253872422525152e-01
2.327603040572808757e-01
2.813406995014323675e-01
2.742180699049430737e-01
2.109139847293053094e-01
1.762675811643709123e-01
1.940644391304919558e-01
2.269037556810206691e-01
1.723059134070465404e-01
1.720970993325871834e-01
1.582493348027891322e-01
2.221866594553598140e-01
1.738188889716575924e-01
1.683272737984491396e-01
2.004122918497796280e-01
2.269581936264676858e-01
1.638906264980861949e-01
1.744725811704252727e-01
9.414369623150899147e-02
1.980761177335212397e-01
1.653373349256820612e-01
9.983702340624137084e-02
1.241449527644675199e-01
1.136066501819366775e-01
1.807057118215705249e-01
1.404046020723370702e-01
1.252250615169543668e-01
1.008347398580471399e-01
1.348465596680815393e-01
9.823184628460683576e-02
5.878037590127886680e-02
4.601335303100280438e-02
9.622386880407719778e-02
1.203706092242896319e-01
1.204402772555135809e-01
1.268833653764945002e-01
7.448440777780228339e-02
3.794711483542364400e-02
9.318265763560681925e-02
4.322860409249826286e-02
1.047858503193299928e-01
8.035419886762600050e-02
5.970464413938010584e-02
8.046052632300665364e-02
8.902906439181618170e-02
6.327877345325472191e-02
8.230847280887296225e-02
7.825138223868052800e-02
8.718479216634456019e-02
3.712563587315699520e-02
2.445845391009261391e-02
7.593518234869128802e-02
9.021640398583548326e-02
5.097411874292756551e-02
7.043001345447764960e-02
6.194175938758414435e-02
3.570895969328972963e-02
7.462027135279611367e-02
6.547951003182359009e-02
6.458456091095179930e-02
7.991489083531828908e-02
6.810155314216972955e-02
1.079087053499100390e-02
1.121640223962576122e-01
2.274519910770718412e-02
6.589311630553609800e-02
2.435741235324831791e-02
8.815336457451408703e-02
7.605709407142915990e-02
4.652184949503947176e-02
4.281764010211350224e-02
3.419575877507982642e-02
9.572733103889613515e-02
9.106996287813336199e-02
7.215699257763698304e-02
8.928344982369129657e-02
9.059535436652671470e-02
1.392471696912774837e-01
8.688377824401144478e-02
9.515453162147857746e-02
1.079967902155282711e-01
1.310591144862341961e-01
1.233060781572548337e-01
1.089153366933025280e-01
9.357580838955012470e-02
1.510490025030292172e-01
1.289564650471905494e-01
1.710049891999562144e-01
1.055051747316011201e-01
1.408500393278602492e-01
1.168464250099717772e-01
1.306055001643469937e-01
1.259653932755526451e-01
1.641641523671220904e-01
1.930534132626541555e-01
1.744117145820993642e-01
1.670664293708171988e-01
1.690029889422038356e-01
1.216947043179568422e-01
1.981270133746432238e-01
1.891474753471344694e-01
1.460329111395655133e-01
1.603135905151444329e-01
2.088317084418253589e-01
2.405012530483542355e-01
1.861541354190144881e-01
2.046936556713407074e-01
1.623260563700012760e-01
1.829731477197655554e-01
2.307241113136191957e-01
1.653843801486607479e-01
1.530597664329682028e-01
2.095311081274088272e-01
1.930290359194704319e-01
1.810069262829096248e-01
1.773050798635567304e-01
2.122068203693488753e-01
2.296253849711949457e-01
2.935739254663811137e-01
1.757577111324751806e-01
3.145374317086325755e-01
2.464142350269368786e-01
3.472283630536966981e-01
3.531499994283118227e-01
4.590689404432928278e-01
4.917092967218895105e-01
5.273582351218535358e-01
5.349809303873154231e-01
6.086071448622775160e-01
6.731837277282931575e-01
7.441999267887275948e-01
7.828198941416893986e-01
8.731047031960668114e-01
9.452846412841333645e-01
1.014389830310092222e+00
1.150474418317123382e+00
1.233750824422081616e+00
1.319430758414229521e+00
1.338236662350151818e+00
1.276479205227643021e+00
1.425692422542900406e+00
1.440787538823201652e+00
1.384388833207939040e+00
1.400791597406333411e+00
1.393535832503253857e+00
1.320156078441329317e+00
1.304585863757969477e+00
1.263154098237171841e+00
1.240267244193891782e+00
1.128525280933449393e+00
1.078769831964789816e+00
1.034966638164288577e+00
9.100808697864037899e-01
8.247290769823480971e-01
7.528082533056557057e-01
6.677249795789051978e-01
5.702707866247128665e-01
5.884629839522614869e-01
5.448267208292968400e-01
4.539102053128187819e-01
3.850820739221815225e-01
3.743840258742290872e-01
3.416280570494916180e-01
3.310475020613870001e-01
2.740793420566520755e-01
1.964321119946821070e-01
2.186638010376613928e-01
2.307729592289297360e-01
1.972211761104246952e-01
2.909257114269343525e-01
2.157232698439627561e-01
1.882063557741438520e-01
1.701122523112850726e-01
2.535541139688280432e-01
1.674117253950191675e-01
2.083883461275840565e-01
1.813170922605913116e-01
1.664026955747697489e-01
1.955377147994137865e-01
1.944407512258139181e-01
2.281914185159453490e-01
2.584835990048824361e-01
2.539940591677287141e-01
2.904762493155408354e-01
2.316505573348871527e-01
2.877814839397982993e-01
2.279158408863455887e-01
2.323628109959765542e-01
2.690011385218166184e-01
2.156521202937325965e-01
2.689710554662066433e-01
2.767244242913787788e-01
2.701943565672065839e-01
3.174935580181759143e-01
3.019646868880812574e-01
3.099414936925712349e-01
2.580085775187928587e-01
2.978610468420566093e-01
2.608166751292772534e-01
2.890708923311218759e-01
2.991187017937575465e-01
2.998919105433524579e-01
2.472684318805661863e-01
3.119217574832282569e-01
3.110118106685419992e-01
2.612443614070761866e-01
3.259139697410202707e-01
3.063558217067488543e-01
2.502445867279575187e-01
2.551536439666024503e-01
3.315680583623841216e-01
2.752743958465003749e-01
3.320736945269461282e-01
2.837321825830788624e-01
2.599218950786743587e-01
2.820676008385545330e-01
3.060036905108378669e-01
2.733703680944681857e-01
2.931873614943883988e-01
2.732848674473632999e-01
2.802700440373489532e-01
2.188390889822522944e-01
2.039298855232175300e-01
2.723766039253132654e-01
3.095532578631406961e-01
2.234876075068462087e-01
2.348688277800320690e-01
3.173534437036353295e-01
2.193888641226279246e-01
2.295152283851941977e-01
2.323916181994055141e-01
2.720937801409796797e-01
2.138925472393428950e-01
2.160454114417905969e-01
2.178256518519924856e-01
2.035618256786675961e-01
2.004825567470520653e-01
1.773362817380813306e-01
2.042276301960526952e-01
1.332795568165689171e-01
1.548987831649548397e-01
1.436266740804550135e-01
1.720058119957391662e-01
1.224542448138299239e-01
1.766932326013545274e-01
1.575487304067399452e-01
1.668395517979009146e-01
1.128872829145126655e-01
1.188423756851548496e-01
1.290607236013605053e-01
1.207995925948329996e-01
1.517169295632143089e-01
1.298100169364591050e-01
9.910802954938645326e-02
1.497167523326564664e-01
8.054539283216144430e-02
6.650056885698202302e-02
1.077696271040197440e-01
1.209306623423722499e-01
1.217207571292198698e-01
1.370462457996844408e-01
1.151172842002031460e-01
5.500527290113223222e-03
9.446316452081049420e-02
1.314499503469433173e-01
1.056521390894991363e-01
8.742504822930045882e-02
1.062059797455313093e-01
9.262731076602384594e-02
4.110618750268647814e-02
8.985383805304547611e-02
1.072664275785842614e-01
6.234178749539728837e-02
1.005320205461774086e-01
1.097360547560539273e-01
1.261384248391302365e-01
1.413555504329623846e-01
7.561959011701135935e-02
5.803073018981148856e-02
7.752643208266253583e-02
9.810431063029896592e-02
5.726388714594608798e-02
8.895062690294647245e-02
1.230621352501215515e-02
5.998485538552782159e-02
6.921304206510162094e-02
6.973044477588845325e-02
1.446160189780429928e-01
1.077651750524347835e-01
1.387587651702035241e-01
8.022850583897436771e-02
8.383371254228930147e-02
1.366026718588104760e-01
1.410885028313759448e-01
6.328246944484816616e-02
5.509642699910387298e-02
1.022046742733508928e-01
8.255955407511282595e-02
8.596415988178726653e-02
1.289323856633917964e-01
9.207579346224313566e-02
8.806923190631997522e-02
1.903816212602049418e-01
1.608272468516534492e-01
1.399661866064166316e-01
1.528301076318075991e-01
1.344749332210488646e-01
1.773129915914954668e-01
1.630957673548067977e-01
1.428295333835613024e-01
2.012476546298055669e-01
2.402869678997504033e-01
1.363175972527191915e-01
2.080410072862267090e-01
1.646728620292002843e-01
1.486165316392669133e-01
2.413633107479679629e-01
2.138275193053438550e-01
2.374296813517058347e-01
2.274723628605454795e-01
2.039171988456761064e-01
2.135917683457467520e-01
2.092246472972467686e-01
1.820925884944938900e-01
1.868800298477063249e-01
1.606434516105008092e-01
2.049440986882283544e-01
1.695378407050260605e-01
1.848606905085766750e-01
2.342625985520914444e-01
2.017254132471355543e-01
2.377799399776230616e-01
2.011083062124026377e-01
1.678018439137072826e-01
2.451106738994421608e-01
2.656284216548217003e-01
2.584034742296280052e-01
2.222523612378831670e-01
3.139859956345474323e-01
3.200800155335948305e-01
3.455095834407355126e-01
3.222846945603325408e-01
3.968281032637566152e-01
4.538467451592617108e-01
5.029361985937219615e-01
5.759777224141625629e-01
5.812015404862428403e-01
6.806036397042281028e-01
7.660079149258460784e-01
8.870372061180278322e-01
9.051933901658610893e-01
9.822449682021789918e-01
1.085891412975453107e+00
1.128771626805992634e+00
1.170689655245535477e+00
1.266780842024796128e+00
1.300382818318946976e+00
1.402512462800652893e+00
1.416438578447610785e+00
1.443498077219810716e+00
1.419957082306904539e+00
1.448784203139751980e+00
1.476175552217382503e+00
1.424045947089073394e+00
1.261781892449021392e+00
1.311722482111231880e+00
1.221144066789558336e+00
1.122975595618655786e+00
1.096788154946851224e+00
1.025448414593596258e+00
9.430936965964468177e-01
8.538310458138925751e-01
8.002856556991305714e-01
7.220723132897576280e-01
6.116131016081711724e-01
5.504156191637777917e-01
4.768443225601964874e-01
4.459900263766617412e-01
4.020032247774149026e-01
3.359039718807038666e-01
3.382129988350681682e-01
3.691570206434997559e-01
2.883383463186536266e-01
2.487941653728185654e-01
2.313309241640711944e-01
1.980068815117538295e-01
1.815046675486200467e-01
2.334957938537444155e-01
1.674477621093143076e-01
1.900534370826953423e-01
1.886134309337871573e-01
2.241439292919265580e-01
2.163159527204834010e-01
1.546842930945515893e-01
2.311745507950563883e-01
2.110447389454511713e-01
2.365970350407814726e-01
2.469973801776539357e-01
1.914380285868345077e-01
1.988237020629277096e-01
2.550362341404006084e-01
1.863862612544569530e-01
2.762409116670228038e-01
2.324555737336753969e-01
3.054318489081089827e-01
2.671240357797851628e-01
2.265949720419879743e-01
2.491133585937479744e-01
2.939897046819235915e-01
3.083080085014479610e-01
2.286591347872572455e-01
2.423555699825842846e-01
2.669213172535384593e-01
3.357007068640220360e-01
3.444335368710249590e-01
2.447897062449299332e-01
3.031521824496830053e-01
2.983946081267481176e-01
2.716403096208677148e-01
3.486622183918990925e-01
2.823242769198042179e-01
3.591739269252246514e-01
3.167464802715455052e-01
2.257894701213324362e-01
2.539919233152338474e-01
3.273860422225490785e-01
2.861495812364555080e-01
2.738260605443378903e-01
2.925555210524019012e-01
2.789641438050517452e-01
2.424874459923279657e-01
3.207883128928691874e-01
2.544219785086103136e-01
3.060936323290353034e-01
2.467539159880720590e-01
2.444265809271696788e-01
2.667052546309318095e-01
2.929765340454967282e-01
1.950061213443596841e-01
2.731669603700264126e-01
2.736862002577147845e-01
2.255191601662342449e-01
2.186202156639966421e-01
1.819150220154911457e-01
2.719065583730386204e-01
2.277033682181129892e-01
2.114075971615690663e-01
2.784325309591955677e-01
2.117315850626655394e-01
1.591558060213050241e-01
2.804191290685190685e-01
1.921425226477667669e-01
1.247264896359455283e-01
2.044874691802529287e-01
1.948401783762358508e-01
2.422255026347556184e-01
1.520927060776088302e-01
7.409398635860400817e-02
1.450269880449467919e-01
1.607172997088796851e-01
1.641166617067876810e-01
1.453343668633118313e-01
1.783129251090071477e-01
1.288006170781324233e-01
9.830252114584211998e-02
7.315638171559241121e-02
1.253587464637269111e-01
1.918438387119083544e-01
1.026170108705893730e-01
6.937344486268139099e-02
1.010741966210662035e-01
9.834305928208794678e-02
1.092585217977773554e-01
9.970324323480284079e-02
1.410269765270787123e-01
9.532337276684363370e-02
3.872227777120602205e-02
7.722110796182288239e-02
9.976541456168235011e-02
6.600965305864445187e-02
8.267717912094216248e-02
1.101733289034322605e-01
1.098444904418151707e-01
3.613538920944980859e-02
8.328491755449426992e-02
2.839730832401894320e-02
4.573249780600696646e-03
6.651726261397411522e-02
6.901351304017996902e-02
4.446004467488588741e-02
4.404366252980699420e-02
6.720791180006634169e-02
3.517939379445067516e-02
3.819887686459980808e-02
7.119643076209453136e-02
5.855519998741075260e-02
6.021334384276471469e-02
4.901756358169864769e-02
7.167890901093944278e-02
5.402867822284448951e-02
5.605534889148367644e-02
5.657180734502600949e-02
4.482178996048656605e-02
4.030505807331781487e-02
4.745993059560583982e-02
5.577880928202257060e-02
7.286485777491921723e-02
6.371541669722236012e-02
1.208231649360634041e-01
6.343728956814786990e-02
6.210869496392747158e-02
5.901518078837479642e-02
1.097467943102305166e-01
1.122092217720356278e-01
9.374493291837274200e-02
4.184540811124739385e-02
1.222158597183609363e-01
8.029221775127480532e-02
7.172936319917277981e-02
9.271422854635269495e-02
1.000278591051836224e-01
6.493378662954921166e-02
1.020482840638847477e-01
1.104831333016698669e-01
1.144937283803661859e-01
2.032271164735037217e-01
1.077545757120817044e-01
1.804371038905241420e-01
1.619236392807238134e-01
1.141661084229745604e-01
1.919283961924866944e-01
1.487023862615305114e-01
2.039479451327941562e-01
1.357339923739791510e-01
1.305353826521025162e-01
1.613562300794416093e-01
1.596776814980400416e-01
1.991209797081869848e-01
1.760432362997232658e-01
1.912483540313683616e-01
1.676406294654683438e-01
1.325272974094124923e-01
1.526455410075152341e-01
1.762715089438368354e-01
1.955039725193838951e-01
1.591431617998900760e-01
1.432581326451700943e-01
1.159152881639498867e-01
1.813169094671540638e-01
1.932648539062149506e-01
1.567468099464786602e-01
1.976028697943597867e-01
2.318520378468739429e-01
1.914455368775428989e-01
2.124026472532303811e-01
2.275612119116542376e-01
2.127987074412671931e-01
2.251834672888616828e-01
2.775903069655984434e-01
2.960762518600010829e-01
3.891600242900126183e-01
3.760362254001027305e-01
4.716969583535709498e-01
4.583474481671083733e-01
6.288953660050131678e-01
5.849297486342910357e-01
6.844592668871878338e-01
7.422092740852637149e-01
8.496268773659931828e-01
8.999691136324843299e-01
1.009025504430622222e+00
1.009070852121461526e+00
1.195632909343002481e+00
1.220338717653136840e+00
1.297559283761893223e+00
1.354620409923009028e+00
1.325866587105528627e+00
1.373949813339025772e+00
1.344724614416014541e+00
1.356313032317439937e+00
1.385769299734262328e+00
1.348603122137782773e+00
1.288379421374397094e+00
1.251891356342383244e+00
1.207018977794008796e+00
1.134739127001770820e+00
1.062675936779778674e+00
1.000379162528161503e+00
8.772240039002923151e-01
8.222448500854608877e-01
7.360248092955680166e-01
6.960405111743037665e-01
6.084685929161168794e-01
5.297530013928914983e-01
4.596363500660943791e-01
3.795653844794695808e-01
3.540489859035323983e-01
2.953147305672915723e-01
3.041675065556700974e-01
2.468121090400423323e-01
2.193273628378022977e-01
2.247394893767903634e-01
2.113809618258491729e-01
2.329956123632543064e-01
1.629831901854429943e-01
1.494369264920868690e-01
1.588983301011493987e-01
1.641803484575070082e-01
9.834549979963831678e-02
1.714086983014190824e-01
1.706050753347105875e-01
1.343622210760334335e-01
1.615894901148335894e-01
1.500585415697487657e-01
1.289720401934022209e-01
1.315674442596319327e-01
1.938272067958759504e-01
1.720835731709046135e-01
1.588527922256788849e-01
1.647900212319035607e-01
1.904852543433762646e-01
2.283090535784449426e-01
1.522435516966635927e-01
1.698842792376854260e-01
2.471987026862268177e-01
2.020432164358753613e-01
2.267029972128495330e-01
2.626826221106424164e-01
2.161234237789149137e-01
1.944625989264480159e-01
2.763039203101007590e-01
2.126993487216873868e-01
2.548616601771030443e-01
1.960308100215024107e-01
2.512911334083598458e-01
2.242987583967877285e-01
1.967290505341603157e-01
2.889515006937760644e-01
2.559167717742416026e-01
2.042210136442839663e-01
2.740847118955283546e-01
2.926131911665965091e-01
2.675874131106641407e-01
2.857034199664599816e-01
2.366087405469914640e-01
2.357014024046005796e-01
2.777943890771332747e-01
2.040721697555299974e-01
2.028575575293695699e-01
2.439951007799814331e-01
2.758295084270971920e-01
1.589489892512701563e-01
1.965791624846725261e-01
2.175572340005174077e-01
2.191560445895611720e-01
2.356852164302552233e-01
2.425639422953733970e-01
1.950282718366133095e-01
2.456687678550582565e-01
2.078821343041329373e-01
1.904863006222787813e-01
1.495307251525435921e-01
1.681744887989724269e-01
1.618473198362391230e-01
1.514127022954231128e-01
1.742311880279305836e-01
1.504807071992758649e-01
1.623305075854308832e-01
1.440179933787477939e-01
1.622520451658415463e-01
1.486617357007752604e-01
1.823013898048377046e-01
1.690839762932600798e-01
1.343313452134797803e-01
9.121516072612219361e-02
1.360518105867797867e-01
1.012038531208409309e-01
9.569969628183530586e-02
1.011856432979780923e-01
1.166740294589420218e-01
1.552266690796412149e-02
1.014503546123032285e-01
3.487100445058123610e-02
1.096819816559243682e-01
7.838761021787744865e-02
6.826233261109454498e-02
3.823211293423788015e-02
7.295740094062273806e-02
2.480433931190501387e-02
5.481432920651722884e-02
3.583711927207407222e-02
4.158018677742070929e-02
3.652846999794470695e-02
4.500018839844557861e-02
1.729288743293411201e-02
1.500076329406285075e-02
-2.508444153018908954e-02
6.915050404875906775e-02
3.665469420428159320e-02
3.646602488562371291e-02
1.738048260627718736e-02
2.438403430725963675e-02
-7.832445827171987535e-03
4.885663509103592428e-02
-1.466780418815965756e-02
1.183703084665569533e-02
-7.006083248897284482e-03
6.136499945039616127e-02
1.540931732378750946e-02
-5.250088471708427851e-02
5.326452717722422736e-02
-2.200077708281912570e-02
3.056106873578292096e-02
5.970855208484987520e-02
-4.391966584301865151e-02
2.716101960210909674e-02
5.541302147720739146e-02
2.518698187882775080e-03
1.412233858767408118e-02
2.332188236673839871e-02
6.327772220545320458e-03
-5.786733220184053089e-02
-3.506346167003538544e-02
2.753795211156082057e-02
1.200844257510039897e-02
-4.604948244624360032e-03
-1.521517766415514047e-02
6.472797484370193533e-02
3.244280101585654552e-02
6.237519111582235515e-02
-2.980156787154969456e-02
1.046478924750304101e-02
6.833027188467240276e-03
2.727780309628029254e-02
2.052354841056838741e-02
3.257205601950438623e-02
3.394711832509859223e-02
6.135536458608103344e-02
2.900986277709774463e-02
5.563171627984672685e-02
5.464655489662458010e-02
1.960108322208346798e-02
6.024787985139977431e-02
8.374636447001101991e-02
9.641558033578676024e-02
9.265633611019621907e-02
1.137083931451585705e-01
1.038726771783905212e-01
1.370949000625136249e-01
7.397719624538057204e-02
4.051695681329218340e-02
1.367009510531075334e-01
9.966883001598059177e-02
1.735943065476600322e-01
1.176024182441150756e-01
1.441205260393669252e-01
1.135162445091995320e-01
8.952487323264510244e-02
5.067970062855198937e-02
1.253696252258598431e-01
1.083430246056800994e-01
1.749341918865269518e-01
5.610025409106193101e-02
1.062104210336246579e-01
1.295194358224969200e-01
1.141544727328879516e-01
9.617758294909634076e-02
1.304367502455345829e-01
9.460839542599895624e-02
9.185245936300040492e-02
1.230209355947107508e-01
1.951568980964148436e-01
1.818199563833340915e-01
9.197695405118515299e-02
2.103822434445068168e-01
2.484165808529514297e-01
2.455950950955504974e-01
2.454080331906869084e-01
2.527121918201373774e-01
3.356504829824973890e-01
3.369458875353669725e-01
4.379413143748336901e-01
4.967905529203758830e-01
5.677068725735030519e-01
6.819895558507188538e-01
7.210036786718809765e-01
7.664318263889413618e-01
8.487910599508643461e-01
9.475069918539150704e-01
1.013279023974451576e+00
1.090490109879506120e+00
1.139272049105263918e+00
1.198954762849937961e+00
1.271878653638622847e+00
1.340790864501026469e+00
1.335945426571904848e+00
1.361115342519305660e+00
1.346899601493112053e+00
1.332027463194116246e+00
1.316372854304186601e+00
1.269701995166049535e+00
1.192864017687736089e+00
1.203056242851108681e+00
1.096683438433335267e+00
1.003269291058950463e+00
9.752003859458664436e-01
9.304069959763524578e-01
8.062695295049749911e-01
6.842750454183349484e-01
6.452980867237970708e-01
5.646648320960938605e-01
5.253136517821687113e-01
4.086338223825368710e-01
3.793032510757236020e-01
3.331740749672138513e-01
3.039711391029456533e-01
2.300617580533825812e-01
2.213436932621102304e-01
1.831797155444627734e-01
1.732221491919781198e-01
1.091005928778057132e-01
1.902354235530458182e-01
9.760930026643091506e-02
9.720431830925271854e-02
1.133831619125467705e-01
1.180894670279502567e-01
1.358588658457010323e-01
1.367991806787714204e-01
7.306273138412550106e-02
9.092764746958950650e-02
6.003014466437835150e-02
1.334175981568130609e-01
8.868484815527949428e-02
1.411072578850124937e-01
1.381522351831553086e-01
1.371971032338664132e-01
1.607023723251156389e-01
1.521475046179792123e-01
1.571375684568697417e-01
1.061483455149806743e-01
1.481212364490724631e-01
1.698475987140674048e-01
1.406671507337857174e-01
1.940898840703491612e-01
2.149615006061972311e-01
2.167117628383832817e-01
1.656160213745986598e-01
1.540149762190888560e-01
2.192947192431425052e-01
2.100044742423725908e-01
2.300733523972947892e-01
1.684846682720400612e-01
2.076245330914279208e-01
1.612318539394429762e-01
2.390478015076520635e-01
2.086185640867670166e-01
1.991326622488752141e-01
1.934462185632601083e-01
1.937619689711147786e-01
1.877819819149079694e-01
1.757882851005755642e-01
1.888104103102227205e-01
2.358397365616099195e-01
2.317498551978528498e-01
2.130043541495956760e-01
1.805553948957344390e-01
2.280319647678536732e-01
1.808604770279639007e-01
1.868135498496614200e-01
1.843665923757947245e-01
2.075004342271016267e-01
1.775419290152186191e-01
1.891485289931360836e-01
1.589687459712048889e-01
1.862252918284124092e-01
1.489829445483163151e-01
1.989898101371136985e-01
2.243254921899757171e-01
1.729120343310923125e-01
1.458474987746602447e-01
1.333335085628192529e-01
1.039894752108318221e-01
1.162082762277533987e-01
1.344180884851437774e-01
1.332472555343515441e-01
1.656520490867840201e-01
1.224110477471781477e-01
1.439146359327939384e-01
8.148573196205752267e-02
9.859747323965439847e-02
1.058154370285051826e-01
8.475349834355032363e-02
4.349995593350205331e-02
8.958270981008259470e-02
2.013835922627444514e-02
5.822780005480202720e-02
2.337701448499104884e-02
6.851238180756288876e-02
7.610413367040241850e-02
7.002969114184540156e-02
1.324025022536737956e-02
5.342034762532771319e-02
4.871770798273582920e-02
1.739688058760742451e-03
5.421513089880131836e-02
3.348401996918642931e-02
3.543181172398365830e-02
1.256360745626450282e-02
-1.933096102584846293e-02
-3.728694280867111965e-03
1.194195628496414613e-02
-5.262033878712657486e-03
-6.330345858109744095e-03
2.239123425922744104e-03
1.920652219283158768e-02
1.638413675748420784e-03
-4.232895863248367641e-02
-1.547276251444108103e-02
5.181698671164421122e-03
-3.406907767711048890e-02
-3.700070236562445769e-02
-1.987511316370764100e-02
2.397795699893456867e-03
-2.214562653352014632e-03
-3.917975775820616013e-02
1.426005269613160598e-02
7.235905154072955203e-02
-9.355475706767141242e-02
-8.592690375856554263e-03
-9.411945203565412477e-03
-2.357003087220803372e-03
2.870570552347592730e-02
-2.443757266024378441e-02
-6.699024466206135453e-02
-3.869819343474499573e-02
2.127720500108474383e-02
-5.502355199055784102e-02
-2.409491997767415628e-02
-5.733644538409332636e-02
-4.082559488351386601e-02
1.438821755941434299e-03
-6.237770539728896418e-02
-6.094578708972048231e-02
-1.022017128595783253e-01
-2.857995898719611905e-02
2.760294586845250808e-02
-3.753897155154080345e-02
2.226669606757242237e-02
1.755753142326814398e-02
-3.021269569365764990e-02
2.966345469676793384e-02
3.889041041010499189e-02
6.468177729539753562e-02
3.438747029109145981e-02
4.962789495605553214e-02
6.052428212353065662e-02
2.456494970095082775e-02
6.849300730305510343e-02
8.840231322961064619e-03
8.626179054478669284e-02
3.914278095076281078e-02
1.047771056110519128e-01
7.987035292013919263e-02
1.046267300886985774e-01
2.936267125322646748e-02
1.272325323247605333e-01
6.406394710637469680e-02
4.021353161929751285e-02
9.308943784023449020e-02
1.098996662685952086e-01
6.611260120504627857e-02
1.134427516273081027e-01
1.377140498491573606e-01
9.654891075958949020e-02
2.010108167656227823e-02
1.217347560595696265e-01
9.625511551371376817e-02
4.915834117160154670e-02
7.861211797660780376e-02
1.198067192641314727e-01
1.037937159871341469e-01
1.941708856429045366e-02
1.274469573714193393e-01
8.293418078961781181e-02
6.581609074431053752e-02
1.432565534039340616e-01
1.232342528021801165e-01
1.130189483499034198e-01
1.431539308077426353e-01
1.276026769954832496e-01
1.489957755943981110e-01
1.674252334778328355e-01
1.323879708367413088e-01
1.020453440742074558e-01
2.027038220276923819e-01
2.367808961540998069e-01
2.699022229201810674e-01
3.308573835788022333e-01
3.549742041161303985e-01
3.892631545611257571e-01
4.574883829422669024e-01
5.261163956958008203e-01
5.998818343937357689e-01
7.089943077705722629e-01
7.787626940046892265e-01
8.146283918328742768e-01
9.527596741746585662e-01
9.771852478037583722e-01
1.049398317179818907e+00
1.141120450608926307e+00
1.199172965331920082e+00
1.286072081398387690e+00
1.287527172606625081e+00
1.303513378315545257e+00
1.333586076948045651e+00
1.330974497296980141e+00
1.349355466437141438e+00
1.267836457534820438e+00
1.372125635151698386e+00
1.261898173514614641e+00
1.164190753470602191e+00
1.088930860850990001e+00
1.100815099651015316e+00
9.761165040408612548e-01
8.886672633019927492e-01
7.827977128321762512e-01
7.433841057337658986e-01
7.389551595004261175e-01
6.293456894776360278e-01
4.905288180315326985e-01
4.996199204821503148e-01
4.236597226141913253e-01
3.795576974355526767e-01
2.742564785720245646e-01
2.544697425467869478e-01
2.589438813502923376e-01
2.155610869974701471e-01
1.367092518299156678e-01
1.746752723726287537e-01
1.245951191736621722e-01
9.053929047720743473e-02
8.192380390124830158e-02
1.500978583200212046e-01
1.242958858057053306e-01
1.325959157525562482e-01
1.041417988261717498e-01
5.760560453218828425e-02
7.294902757391408255e-02
1.261935709477284562e-01
1.032428126868343565e-01
1.443009097167170796e-01
1.462153926239822821e-01
2.117004572594030076e-01
1.341740107706448915e-01
1.337181410827048000e-01
1.812148290800872918e-01
1.716660639486873863e-01
1.288056106125681499e-01
1.459083067607987727e-01
1.500176748260839132e-01
1.604842546340020937e-01
1.320044222122862820e-01
1.511482429648533243e-01
1.728313915574849202e-01
1.694037088619129716e-01
2.411874742484680367e-01
1.804291891013810600e-01
2.576924533040669818e-01
2.193127648694294107e-01
2.163011379881943641e-01
1.673398565903985169e-01
2.363838874652445798e-01
2.600835115753338256e-01
2.050452938497167865e-01
2.305222094624066187e-01
1.962700640576557631e-01
2.420465284770591530e-01
2.298117070462634692e-01
2.284355571433343557e-01
2.938500890883121719e-01
1.284104372111716519e-01
2.258299690592166786e-01
2.343573421399572643e-01
3.004617574773285060e-01
1.948534617371076305e-01
2.388901181752708103e-01
1.569233307892918261e-01
1.847884377303132264e-01
2.261153065680132912e-01
1.853905647760131781e-01
2.525114180363141614e-01
1.883486274807965322e-01
1.875169655762859711e-01
1.702808289418289989e-01
1.407404912992828161e-01
2.314016828919893409e-01
2.312546228748742494e-01
1.790421639990147917e-01
1.620967461476052474e-01
1.863405572541992627e-01
1.707273282021550820e-01
1.249590027162998662e-01
1.442020424263020795e-01
1.938952311839216569e-01
1.731146371953220797e-01
1.943222165974760884e-01
1.110054271403950465e-01
9.675970688875716597e-02
1.052153142229825811e-01
1.124867992835189290e-01
1.104197584538465365e-01
1.206578936985305134e-01
1.248976559115903828e-01
1.153702055343901883e-01
1.445917554777513270e-01
1.119395762807538636e-01
6.019028133692941318e-02
1.136459578662169789e-01
5.898511325092038737e-02
7.173930731534308713e-02
5.699451079508018048e-02
7.667035576361695692e-02
1.419483369283612295e-01
6.639256970617191111e-02
8.504827834575418022e-02
2.010345867931181627e-02
9.399525182640389165e-02
6.360619545032325517e-02
7.181614905296637708e-02
5.319020949065988990e-02
8.734017851574644303e-03
-6.238532560933221505e-03
9.007481488058992347e-02
5.912589685047834470e-02
3.447616488435718829e-02
6.404993815939860613e-02
9.299000676130111942e-03
1.366240227838762950e-03
1.391541230313981733e-02
-2.034429253895099834e-02
2.561225986336585630e-02
1.701887007250079548e-02
3.861326563606718582e-03
-1.457664000066552501e-02
2.125814220426566412e-02
1.235896087405642316e-02
7.380573271833775623e-03
2.128296591321720416e-02
1.471504024933272849e-02
3.171625839132077157e-02
1.760813084625419481e-03
3.860702553335366299e-02
4.175174316691699500e-02
3.414231940037090046e-03
8.201981915109317345e-02
3.595706390632184835e-02
-4.607559159654675551e-03
-2.123490022849315942e-02
5.334988434278091496e-02
4.109089353915967857e-02
3.139561597434081808e-02
2.440467512923363835e-02
7.019757102127720250e-02
-2.638554505860821880e-02
3.513390118322184258e-02
3.631032959768317955e-03
4.666522355451643844e-02
5.266347145586698641e-02
3.436054331889495939e-02
6.877505438875433641e-02
1.635774198788455258e-01
8.231420580868964443e-02
8.198874265386092708e-02
8.399155806708265282e-02
9.104212109377168849e-02
6.571887130435725977e-02
8.293734223192227029e-02
9.285976351140842744e-02
1.534196198167838143e-01
1.388092416249772643e-01
9.896018413199178521e-02
1.479771567821622780e-01
7.166861969310953095e-02
1.183609628117170132e-01
1.451657581836753030e-01
2.147168608808992518e-01
1.187942706509502178e-01
1.866708110276530941e-01
1.300378338825065039e-01
1.158238077429181445e-01
9.458611217685838901e-02
1.594439368281419245e-01
2.091884258063383961e-01
1.300317881027240330e-01
1.692286260143792964e-01
1.416026658923474346e-01
1.269158950629729887e-01
1.852047812736679622e-01
1.961459934164222207e-01
1.313920056802723724e-01
1.762210068483690273e-01
1.546431867754078648e-01
1.509000312181260350e-01
1.637254182762770405e-01
1.657191822400534142e-01
1.655059760472498143e-01
1.897280144033675897e-01
1.637239120981263674e-01
1.934871411405608699e-01
1.957512383036217329e-01
1.598816602869939096e-01
2.253684773969521216e-01
2.482832497213663114e-01
3.136348909501525117e-01
3.091338314140885113e-01
3.799431999802526660e-01
3.857606005549077954e-01
4.307531932098047633e-01
4.990238630566051770e-01
5.570190642823680260e-01
6.312461140129390635e-01
7.040082233139816070e-01
7.798124134762570714e-01
8.726226811692022745e-01
9.214744685209190767e-01
9.955722999234393189e-01
1.179942178385731788e+00
1.146024340114144779e+00
1.185456177063498595e+00
1.311428194032793870e+00
1.313564024820770060e+00
1.365215840578544837e+00
1.363315868854388047e+00
1.365782819350100930e+00
1.435147670785718921e+00
1.361028507417297417e+00
1.322768386353241787e+00
1.321878492014104900e+00
1.223858684799141727e+00
1.197907673129781525e+00
1.110889657143883769e+00
1.017114359190038897e+00
9.861555474664722709e-01
9.394270804445163936e-01
8.057243019534338080e-01
6.913063467094152648e-01
6.846097314321051286e-01
5.640615165778318785e-01
5.344804880485209964e-01
4.500114781023766275e-01
3.980892609890285816e-01
4.150706518519667876e-01
3.447136322296701638e-01
2.741375447139055010e-01
2.496674718856913555e-01
2.031066970208665334e-01
2.283985550539607279e-01
1.861880376260540981e-01
1.486164747465053559e-01
1.479044801447313706e-01
2.007134977758139316e-01
2.023359612500029714e-01
1.946564452561218295e-01
1.577749742717927672e-01
1.410150215034105259e-01
1.761145645201760701e-01
1.898303266342133977e-01
1.127435367587083098e-01
1.906473816719782555e-01
1.692460748409262417e-01
1.985101099553771842e-01
1.645360505119276839e-01
2.427145147969982375e-01
2.246366994234877124e-01
1.776143247389784796e-01
2.767447407677782190e-01
1.843651488985146303e-01
2.439806615832345316e-01
2.201373368571985789e-01
2.296246013743134806e-01
2.414131409874747114e-01
2.476767421391118107e-01
2.673884985680466952e-01
2.199077589816720579e-01
2.794676355175941818e-01
2.724177986079056590e-01
2.417603496459511669e-01
2.588651041857877866e-01
2.086820233767029686e-01
1.912789029516008543e-01
2.569482721266077019e-01
3.064999659825213274e-01
2.674556965316273183e-01
2.676012594209624118e-01
3.073198654577564692e-01
2.860544534711782494e-01
3.225142994219474257e-01
2.868378553007310261e-01
2.950049196289587505e-01
2.731770256021679444e-01
2.748625941354154723e-01
2.930293852241551145e-01
2.456515647895902155e-01
2.890672618574728348e-01
2.529133418950270662e-01
3.010543714477963984e-01
2.246261414129934741e-01
2.859647095558829899e-01
2.413406864401637097e-01
2.205239570177168484e-01
2.523496140931186793e-01
2.915494553576916115e-01
2.734349934278900163e-01
1.720777006413026222e-01
2.542013743706505458e-01
2.331880814522892253e-01
2.716441072568069326e-01
1.771388418418856636e-01
2.216990206863536095e-01
2.274307144159301575e-01
2.166093898317334454e-01
1.786962000083352764e-01
1.929656100065669788e-01
1.589249701196064068e-01
1.968190418959069321e-01
1.850506094276720970e-01
1.421018500469274914e-01
1.936815668964204928e-01
1.707364178114066933e-01
1.984745321546939056e-01
1.581352517273274527e-01
2.006078079322856089e-01
1.203217370282939902e-01
1.430165461742606836e-01
1.515658541945328619e-01
1.514507341062290569e-01
1.471437532549386695e-01
1.149820488673355678e-01
1.561551964489450162e-01
1.186259954474323669e-01
9.432184309827645885e-02
1.343127724385215771e-01
1.271932118341075335e-01
3.764981820774608579e-02
1.133261706809797764e-01
9.896386758825803653e-02
8.460527773558421116e-02
1.151804708214727441e-01
7.556251796555019107e-02
1.088392201120603336e-01
6.219503117538958958e-02
8.366506453342875682e-02
7.333282892540440856e-02
1.191797283753114889e-01
5.765716400373525202e-02
1.012825298722722228e-01
5.549366893266293593e-02
2.452210860735404979e-02
5.095476625776584889e-02
5.304241742591254277e-02
5.300259223079859666e-02
6.692486297127651917e-02
1.040523380888421917e-01
7.369831740103946482e-02
9.259942355519093504e-02
1.144217484213733704e-01
5.713891389535555310e-02
5.987909430707927944e-02
6.531711173380294611e-02
-1.112618193838010860e-02
6.299426139758533549e-02
1.824814935024395013e-02
2.478726816324115442e-02
9.427494202221309294e-02
6.193206106117889881e-02
2.839843497788034285e-02
1.125362360173887410e-01
4.438922571717740517e-02
1.068359455728685042e-01
6.734346120716042106e-02
6.662764462352127603e-02
1.276523972746850810e-01
5.601054182119689917e-02
6.023817073403907318e-02
8.401022708727018395e-02
1.053726390097297211e-01
1.344961061934512037e-01
1.096500932229661357e-01
1.183875792612752442e-01
1.145210421418249441e-01
1.515345651501938118e-01
1.148191171335732064e-01
1.121594787417772854e-01
1.004160044314613975e-01
1.187644941881779437e-01
1.098198057763263985e-01
1.409285785680981506e-01
1.308116557676975433e-01
1.804756578080524421e-01
1.720026596336943214e-01
1.865171626105299185e-01
1.671576222477607898e-01
1.412424212415869518e-01
1.851796242576884688e-01
1.804288450020761492e-01
1.772912503308362586e-01
1.574819216343376627e-01
1.811979889274971944e-01
1.859948390445811950e-01
1.757603188492325441e-01
2.275900289474271643e-01
1.370739129232195763e-01
1.678022286033599153e-01
2.350747229854694698e-01
1.735329271436953924e-01
1.581316421705504516e-01
2.051059647638084626e-01
2.161784967182142081e-01
1.998552583608393107e-01
2.592389512421391373e-01
1.310440663411023832e-01
1.730067488903805628e-01
2.153199401474407138e-01
2.046762736403584526e-01
2.009024202432135031e-01
2.084114438052253881e-01
1.796976789574884215e-01
1.853309199539599494e-01
2.786021237168204157e-01
2.872520483878847064e-01
2.830226743612552220e-01
4.026020129141524295e-01
3.428308547804466144e-01
4.238978262950138243e-01
4.305616665360676443e-01
5.103947250396384527e-01
5.444830485632043970e-01
6.003280945777113020e-01
7.159617564517599675e-01
7.753888890337652384e-01
7.596477251932379771e-01
8.926942850569837828e-01
9.358220624017757894e-01
1.060352061434131077e+00
1.136993401889081712e+00
1.179620332146909201e+00
1.252966076698456055e+00
1.306442596846872917e+00
1.298929433635964248e+00
1.390175765944267283e+00
1.396315286940110312e+00
1.441929332089399995e+00
1.463694701314959712e+00
1.439488878997513766e+00
1.372180919254670783e+00
1.326393489344001919e+00
1.265617049830729979e+00
1.240773535887871315e+00
1.136545245017286820e+00
1.098225363952412215e+00
1.009240030023834889e+00
8.907645402705632875e-01
8.574463519260601130e-01
7.925298626933044988e-01
7.692699183501597870e-01
6.148240635160983070e-01
5.717930030363900240e-01
5.440971231630490346e-01
4.302913553172530992e-01
4.545273311921037007e-01
4.098687482568313944e-01
3.555400131832777699e-01
2.929555564654844346e-01
2.882532652054333178e-01
2.572370471100282052e-01
2.131493631910267306e-01
1.787236837229398689e-01
2.077785756529278993e-01
1.928655210527113750e-01
2.500776544398123358e-01
1.800392764672777146e-01
2.354800372524387675e-01
2.291170978818361237e-01
1.817809581331610858e-01
2.033404142431672335e-01
2.065391853868483729e-01
2.067673379037757442e-01
2.265947509202844434e-01
2.193481358192415631e-01
1.876293396611964925e-01
2.025563873985849472e-01
2.636486398260748376e-01
2.002848708844442160e-01
2.990058628524402962e-01
2.295657383440466714e-01
2.777679233925422486e-01
2.681977506274977885e-01
3.356360337563627505e-01
2.673355838152897124e-01
2.354238242559705263e-01
2.550612363905615521e-01
2.760433543889137531e-01
2.578757221261904764e-01
2.584538065644934046e-01
2.641906482566763747e-01
3.177533327028428944e-01
2.347996218542222624e-01
3.209578080708083703e-01
2.974202836841884912e-01
3.083857348725261849e-01
3.086178431492260787e-01
2.861627783276494141e-01
2.914508868818718179e-01
2.566623820657989441e-01
2.701623533274601363e-01
2.930348815350570790e-01
3.503149391260436674e-01
2.364437289965115319e-01
3.116647028372326322e-01
2.809083062448166634e-01
3.475562448258929238e-01
3.338030548826852462e-01
2.765047346437535247e-01
3.127477713889613709e-01
2.817028076921408442e-01
3.344315797680963986e-01
3.047459122172073709e-01
2.762356842462891926e-01
2.823647081029484474e-01
2.499280084129281432e-01
2.399143983006048475e-01
2.727994066061680267e-01
2.435084427400599771e-01
2.006193157825032769e-01
2.622997530082827877e-01
2.773703953852914017e-01
2.252166264546068830e-01
1.958733006639687135e-01
2.070710853776993599e-01
2.455776651821344747e-01
2.176564807751940056e-01
2.236647040736205183e-01
2.223834750828626028e-01
2.535320363251201692e-01
1.799429505326978485e-01
2.076152992545343134e-01
2.398390189722207355e-01
1.925626592073017285e-01
1.713321954551132453e-01
1.441183628096934510e-01
1.434561182454383022e-01
