1.514711896865579721e+00
1.432519245647308592e+00
1.411307009614948926e+00
1.431563416073327488e+00
1.361402833276063484e+00
1.327409195758447513e+00
1.200228407320492074e+00
1.121894951700610932e+00
1.103740253762424128e+00
9.802745447318778060e-01
9.319469122500765312e-01
8.972703209988877049e-01
7.276053116981109348e-01
6.856866851909225735e-01
6.545996262827779022e-01
5.726453237870966495e-01
5.410463427260030489e-01
4.164141803435115197e-01
3.552005881906870055e-01
3.069148505135461114e-01
3.410667959289990780e-01
2.946730582837586709e-01
2.596477991497119220e-01
2.603353295957020475e-01
2.239104661701105115e-01
2.453124645913999924e-01
1.928930012399890925e-01
2.533722471550693411e-01
2.087598940442530748e-01
2.514154730313556962e-01
2.212048372895341619e-01
1.797260676114663946e-01
1.864963521400453961e-01
2.356964974768587240e-01
1.763058508585565454e-01
2.087249646986678309e-01
1.946761320675817197e-01
2.071429981187631886e-01
2.306840955546532457e-01
2.259555135657793090e-01
2.535424654536243549e-01
1.720650871236978074e-01
2.258180459704952903e-01
3.022490982736532050e-01
2.514977720893644131e-01
2.711571190966850509e-01
2.959435773551615800e-01
2.843672228954464698e-01
3.103557831071190320e-01
2.887922089385489555e-01
2.616198059302170531e-01
2.787276636737316959e-01
2.913921478787876440e-01
2.312120268286481373e-01
2.864441523055356598e-01
2.849519622312493006e-01
2.395581965608667985e-01
3.358419833933203869e-01
3.186284269043517248e-01
3.330769196761395601e-01
2.941024354446820088e-01
2.356920754334901058e-01
2.966833220880482624e-01
3.038628977552458310e-01
2.980685540362582597e-01
3.138147065860203977e-01
2.281248226713375460e-01
3.125612162940084593e-01
2.675573615514724168e-01
2.903595201285777416e-01
3.446491165538557166e-01
2.322467925715099579e-01
2.379197746795980173e-01
3.318935465207638602e-01
2.856645690001752280e-01
2.497984189778590103e-01
2.425159652095208729e-01
2.603365358854211609e-01
2.744178874003666557e-01
2.782489115834189120e-01
2.743394774076270970e-01
2.134212578448028974e-01
2.218511005909312161e-01
2.417363055844527486e-01
2.305507110864784825e-01
2.611055891644407656e-01
2.013848476780247532e-01
2.193720471966510988e-01
1.983442680243613643e-01
2.271900548349119753e-01
2.051191942529873580e-01
2.277263810478197537e-01
1.215762429887352197e-01
2.251575959127750104e-01
1.753366473258125557e-01
1.482509105024459595e-01
1.576382512433818772e-01
1.813285497930233747e-01
1.873753877131301981e-01
1.497986288034055535e-01
1.449821134381901744e-01
1.486419375067531412e-01
1.641434941566333738e-01
1.699154154950973383e-01
1.129256746278320817e-01
8.716048247782989811e-02
1.130683102531922918e-01
1.210541427124751657e-01
1.269031764562664200e-01
1.308915752123952503e-01
1.134277264010436215e-01
1.378246765546567443e-01
1.357361412166571413e-01
1.098567443997571502e-01
1.138346112614306571e-01
1.112453184720664096e-01
1.149120476651011857e-01
8.634067469384557048e-02
3.778483511941721495e-02
7.894654755665858614e-02
7.199121238145181345e-02
5.241695990163147689e-02
8.495261931884487416e-02
5.831747861662055221e-02
-4.447386797763235033e-03
6.494632711128411895e-02
8.678202106196410137e-02
6.935070395985826197e-02
9.646072988034434803e-02
6.884413127036823066e-02
6.579070051540225617e-02
9.678140002061080827e-02
1.175922339224337310e-01
2.437842146488742798e-02
2.692925400549376139e-02
5.781037381361019134e-02
2.960709378266134645e-02
8.851424880236374859e-02
6.860108253341035134e-02
3.354119616401075171e-02
5.944095939063685774e-02
6.208372970498621246e-02
5.940105753043722209e-02
-2.295817646777829901e-02
9.346851727265860499e-02
8.212853778360645896e-02
9.681993007929219630e-02
1.863763482904766400e-02
6.026031540526020913e-03
8.596800067088627983e-02
7.702592069360507387e-02
6.557159095221823386e-02
3.078279911699399046e-02
6.290833710967673464e-02
8.237168835408721634e-02
6.592044402259564229e-02
8.993399103902691150e-03
2.376542875463539400e-02
4.229160784547263130e-02
1.266098113094116517e-01
7.720008894786958842e-02
1.147522132896082320e-01
4.949102699912956427e-02
1.510832286226046761e-01
8.358301102488527312e-02
1.420082049867179563e-01
1.356879005359065138e-01
9.549034503886491554e-02
8.665715620170183486e-02
1.134011504965174166e-01
1.037998630463392580e-01
1.864938777432935679e-01
1.069285711068417577e-01
1.079653305805521185e-01
1.171678408720801950e-01
9.935273774500832933e-02
1.615997239046986778e-01
1.484286611094964847e-01
1.753903298747842565e-01
1.195986745364469722e-01
1.512905472143858954e-01
2.133849486506771975e-01
1.272119355423653453e-01
1.729715418299307417e-01
1.882970717065017285e-01
1.839034089256002258e-01
1.506719514058188492e-01
1.219947564238482440e-01
2.234499353709912262e-01
2.442123838314885775e-01
1.269061596966461758e-01
1.426185462101947077e-01
2.229731606324743542e-01
1.675790520809325446e-01
1.540200745739818133e-01
1.616662144361514786e-01
2.091144043693428101e-01
1.448409983883644503e-01
1.729797140438341096e-01
1.520820422981154774e-01
1.795403170257258429e-01
1.798269178817090697e-01
2.322141134845324417e-01
2.141943075672711472e-01
2.493167066841866786e-01
2.448353213829916886e-01
2.631679740141921742e-01
3.274227664055117115e-01
3.589156719414990371e-01
4.234707976680711083e-01
4.609744205181364740e-01
5.764819133586012168e-01
5.849340589434075532e-01
6.845260290873274034e-01
6.886442399110060952e-01
7.925164668147373082e-01
8.230768156541187208e-01
9.131881449657792693e-01
9.753814354996117597e-01
1.060768424365804208e+00
1.134326479220602701e+00
1.177347562179588580e+00
1.297742832249142664e+00
1.285804236885693230e+00
1.324536279987426735e+00
1.443477367718182913e+00
1.419955544890994181e+00
1.373857135678938413e+00
1.406569465009391173e+00
1.374633872886041663e+00
1.309816893377704794e+00
1.306191100942480476e+00
1.203986338715436366e+00
1.209432153872623594e+00
1.114776237491993394e+00
9.885519550516080889e-01
9.552359963746948068e-01
8.323884935796982409e-01
7.681288177453010624e-01
6.741804926473846660e-01
6.175596009254765706e-01
5.512480567166886392e-01
4.749347203383310068e-01
4.418984053832648029e-01
3.834917964066422158e-01
3.791142728737222911e-01
2.298054974248426585e-01
2.427460802822213326e-01
2.568385577342744419e-01
2.123923835715709196e-01
2.020714263493916252e-01
1.721720595684625155e-01
2.309473454838306405e-01
1.855372225799803432e-01
2.301661360818700597e-01
1.540157056979260808e-01
1.651420134333304590e-01
1.256099826191189872e-01
1.589489051157332855e-01
1.587822436948122806e-01
1.857361295438706983e-01
1.519576033283735750e-01
1.506896088740518058e-01
1.586589229134845180e-01
1.664237071222723352e-01
2.126844106644444343e-01
1.548174071256422368e-01
2.231133938220850321e-01
1.728839543691007563e-01
2.372561789486597739e-01
2.571326027427371930e-01
1.599361105534989058e-01
2.277030530964349597e-01
2.148220317889734388e-01
2.260886134006124260e-01
1.783026657608902943e-01
1.976087184314334055e-01
2.755229703874226832e-01
2.395761901326530496e-01
2.336045148304993491e-01
2.893771650406191664e-01
2.799948913133131212e-01
2.297443740143873536e-01
3.093261455098113011e-01
2.813328529956946045e-01
2.635747226091835205e-01
2.278264066281224520e-01
2.730603267205093942e-01
2.448469267724510678e-01
2.539644278859152782e-01
2.740385956141604962e-01
2.716861127393283559e-01
2.705479923081730576e-01
2.291248786444724794e-01
2.874200330502157397e-01
2.041279027464200091e-01
1.651563769451367403e-01
1.763739537026807469e-01
2.159804332528672821e-01
2.977265622485297247e-01
2.334583242321329744e-01
2.384482781655632988e-01
2.417699657523933177e-01
1.682689237673198890e-01
2.308075692871833506e-01
2.174247791944869945e-01
2.029890481703921223e-01
2.099281349463599788e-01
2.011870875080435661e-01
2.020642141079825871e-01
1.505065298301256904e-01
1.893706621056219230e-01
2.102039235215987512e-01
1.620015527113066178e-01
1.936048089007890993e-01
1.944532387521642480e-01
1.602480551024010047e-01
1.645682490599389147e-01
1.435538580966960465e-01
1.585879282981265959e-01
1.433417393590459277e-01
9.378905164810637241e-02
9.881452743092256075e-02
1.579633466399169017e-01
7.828138521619257273e-02
9.775166915924700384e-02
6.750510288171919504e-02
1.590971768314284607e-01
1.380076726564281875e-01
1.109948151122004401e-01
7.024991917246435624e-02
9.773200636992455947e-02
8.660985383920316583e-02
6.026056112088058053e-02
8.871706723044404941e-02
5.927085975353967029e-02
8.738422843884612046e-02
8.979808446772372110e-02
4.541607787592108481e-02
3.269702971488160081e-02
1.110426102978522012e-02
5.200767261236368538e-02
5.587219662552025956e-02
5.821608009143231649e-02
2.170562677084279107e-02
1.274434866793680739e-02
-7.759157106730724118e-03
2.813087032523188188e-02
4.520343001787470449e-02
-4.534536592098359353e-02
-1.295626199646572954e-02
2.795787013751115102e-02
3.265771718122660594e-02
-2.027392451112352764e-02
2.762560532637118801e-02
4.204237279528640070e-02
2.598203955686772398e-02
2.957488568993953820e-03
-1.374867893328116444e-02
-4.172401050074627665e-02
-2.708002730163611496e-02
-1.251014243540800146e-02
2.758311897095790804e-02
-3.836006257067951092e-02
3.749332092577188635e-02
-1.572962971272885702e-03
3.552814268799291825e-02
4.409892720114445830e-03
9.386158959972776966e-03
-5.397325945162081973e-03
-8.507166768287392072e-03
2.791893830464958065e-02
-1.243144178109394267e-02
-5.672521210591734142e-02
-1.632188113868150020e-02
3.285760182296178222e-02
1.931419554781501485e-02
8.783666718947452656e-03
2.826443436531965794e-02
-1.870414501241440125e-02
-3.598008762177525716e-03
-4.783026685870127304e-02
-8.452073943843244064e-03
-4.718163229175972861e-02
7.180007415557804196e-02
6.568030940379812610e-02
1.878489563623076536e-02
3.589107501577437631e-02
5.298077565107573578e-02
1.418881296292536995e-02
3.421995774997668716e-02
7.534274286843314905e-02
4.395051916194309127e-02
2.532347419698233182e-02
9.287187075302952288e-02
4.455667496666135957e-02
8.097831168295713256e-02
7.355105931919805884e-02
9.326571693880483793e-02
5.790884258866021983e-02
5.347311762962511650e-02
1.340685525809699463e-01
9.149693176633205693e-02
1.421160690740502219e-01
1.179723867429100931e-01
9.949789360968820662e-02
1.249564940288720172e-01
1.018711897009181161e-01
1.613618690940572531e-01
8.151970220706339365e-02
1.466006754297890513e-01
9.869980682467571764e-02
1.533235026121982369e-01
1.098233064587437191e-01
1.070007488822620478e-01
1.380044765477436430e-01
1.239105643773599774e-01
8.394548326754878997e-02
1.458811052937841468e-01
1.518303101898499929e-01
1.230905889356318506e-01
1.267969993130404482e-01
1.181606617334642895e-01
1.306378547287651015e-01
1.412823952909142977e-01
1.062816910765933265e-01
1.580542969767936845e-01
1.767749748026725409e-01
1.823413113346700476e-01
2.071339702228091328e-01
1.685860270002813854e-01
1.599007380335638051e-01
1.797213520910636020e-01
2.009434107765782906e-01
2.159057362476402009e-01
3.255272707389049724e-01
4.197710381699422677e-01
4.225205681783284484e-01
4.413678747931040203e-01
5.717446855383447879e-01
6.405463809695980393e-01
6.803085798797942063e-01
7.913340308517160526e-01
8.683442397272175262e-01
9.516617397530563460e-01
1.006395738637690940e+00
1.050329346986281109e+00
1.088809448052449502e+00
1.163762648472736361e+00
1.281423593386264770e+00
1.317496294671536949e+00
1.342554462118550784e+00
1.389354981513275522e+00
1.405562645030559166e+00
1.349897151254942029e+00
1.365461195078135237e+00
1.290622776372160718e+00
1.227430098241083067e+00
1.195064242609067851e+00
1.190445844771018002e+00
1.117702417584673258e+00
1.028458360541299577e+00
8.974682140855347878e-01
8.643895572758675261e-01
8.018810244942033982e-01
6.947359416287501865e-01
6.547564200589918171e-01
5.535891400137040730e-01
5.098249710032234372e-01
4.374052977210605708e-01
3.686211246197283464e-01
3.503511373175995924e-01
2.923796048934517722e-01
2.403018181919230056e-01
2.545079131354280322e-01
1.960026096195577328e-01
1.855388172446379436e-01
1.215395700587804939e-01
1.522119832634272751e-01
1.121004209984659411e-01
9.935694886488638522e-02
1.255650555231321019e-01
1.406864763182923417e-01
1.136319554893234773e-01
1.866383206733328859e-01
7.049331450902998619e-02
5.801804137473384054e-02
1.019048967959303720e-01
1.067981441030165235e-01
1.893099128829118238e-01
1.565915692343864407e-01
1.136661195568639260e-01
1.392064508856299399e-01
1.200080832167551292e-01
1.563222113266101720e-01
2.160266405878107365e-01
1.502210687071611206e-01
2.179978820803901152e-01
1.718311643785974674e-01
2.028623982207213849e-01
1.606723969939056473e-01
1.823262432022585700e-01
1.746220742180965846e-01
1.959975660173338685e-01
1.856742155623012924e-01
1.965389170171009114e-01
2.879691617238929746e-01
2.352925820500449683e-01
1.722395498506841260e-01
1.774014297765966752e-01
2.184877509373502891e-01
1.986233828817471903e-01
2.177591002631010797e-01
1.915089562641148491e-01
1.973668349494689667e-01
1.681395862483249792e-01
1.594025870441249104e-01
1.381868191047601335e-01
2.585073195864737161e-01
1.869811515446978267e-01
2.035089955487677793e-01
2.180451390626831909e-01
1.732428134879432646e-01
1.853801461825259622e-01
1.894662957338318632e-01
1.832149898528204202e-01
1.933768446710940614e-01
1.646261028101164148e-01
2.071384314119424641e-01
1.697592960202717050e-01
1.385623003507691631e-01
1.903667789390466325e-01
1.646006340451725003e-01
1.557836878277255588e-01
1.251670433205959443e-01
1.693036759831560434e-01
1.890697805172360524e-01
1.718165737066909005e-01
1.011398993827372084e-01
1.573899508306353945e-01
1.187916640341338814e-01
1.399071979274393585e-01
1.533974511610403102e-01
1.272748300138784594e-01
9.740301735491761759e-02
9.232733790335614921e-02
6.621691980505420294e-02
9.745565400760647368e-02
1.231425594203438278e-01
6.415558149580993796e-02
4.668862226089115497e-02
3.591201627936062984e-02
1.195386690097960669e-01
8.660729912648990059e-02
3.361257707543787582e-02
1.643598339748497672e-02
5.077746517690993888e-02
9.497385165355631820e-02
6.408910643952772657e-02
8.872569879186972819e-02
4.889365899805354909e-02
2.219142247193237050e-02
3.684523567986354442e-03
7.470113097382066747e-02
2.164850393481387164e-02
-2.592935486078071922e-02
1.183652294344468558e-02
1.275580903467445071e-02
4.120100520660231747e-02
-7.285251123743265167e-03
-2.662349692657316885e-02
4.057131190024855505e-03
3.958091008515900178e-03
-5.749940502204560488e-02
-1.828832310746539985e-02
-8.489610669724492742e-02
3.948648833541124059e-02
7.642891000361730358e-03
4.615635850165166615e-02
-7.321031715808654083e-03
-2.524040814414345649e-02
-1.568677256829546091e-02
-3.616837618068319271e-02
1.248991468223054763e-02
1.241175930338589417e-02
-5.665056693556409784e-02
-3.539785120262918527e-02
-1.202747343506191113e-01
-3.204372697803198333e-02
6.840994358573534995e-03
-3.851723787417619949e-02
-1.420073018202944876e-02
-4.447372323686007989e-02
-5.360762886163907004e-02
-3.114161626733866900e-02
-7.299086348210928610e-02
1.729992086579627136e-02
-3.768414547912246615e-02
-4.148298814211615060e-02
9.202092991036393832e-03
-6.198458491534551695e-02
-4.987343130399533864e-02
-1.178708921340997778e-02
-5.477386229960351516e-02
-6.453336177939340834e-02
-9.912162826903742063e-04
2.451075061079007605e-02
-3.549825165984621389e-04
-1.410247583380790093e-02
5.431123909029403340e-04
3.250263436962705366e-02
-5.946885213870837378e-02
4.053026562193067645e-02
-3.501831933602934932e-02
-3.072311374490382246e-02
1.224887946420226414e-02
2.204119437004199711e-02
6.489709453558679952e-03
4.102597742177430812e-02
2.823801938782026510e-02
3.937149790135541227e-02
8.449181236854930166e-02
4.261421747367628160e-02
6.579188686542046527e-02
9.098207311450004497e-02
5.946468698607119963e-02
8.927211465793141731e-02
9.244692697478927579e-03
8.829630401767901704e-02
7.342779100885074572e-02
1.305601128867954486e-01
6.029117747161540780e-02
9.609871130479784307e-02
5.317303453198019003e-02
1.122090245006466536e-01
6.433476736075148528e-02
6.345805442703303378e-02
1.191118501791630924e-01
1.535780831058772555e-01
1.114734681212600775e-01
1.105768594280217149e-01
1.107944606280510114e-01
1.281333390979975673e-01
8.832870765659914247e-02
1.218706087627441370e-01
7.033769512413248770e-02
8.235582743582893495e-02
1.054275075806839213e-01
7.691478710622731696e-02
8.024235407955038202e-02
1.067448134549127126e-01
1.201150151253266851e-01
1.347422618060923338e-01
1.468114501447047859e-01
8.718943141067575509e-02
1.558076971931728616e-01
1.420905067809460076e-01
1.499760820108170245e-01
1.575909266400545294e-01
1.968538890164385213e-01
2.254176230939143322e-01
3.137524405165503794e-01
3.595385744560104513e-01
4.677805760401083646e-01
4.242346806794786707e-01
5.437086861626209133e-01
5.505007066768441426e-01
6.699066126106488772e-01
6.644175977291428836e-01
7.622716213503611948e-01
8.339581354541982794e-01
9.237343165876711337e-01
1.028940074708748265e+00
1.073296323971865807e+00
1.178854941431806136e+00
1.224145260066323182e+00
1.262862151987296233e+00
1.311464497030277565e+00
1.318499586945832913e+00
1.365654022590473859e+00
1.356690458681792721e+00
1.336815821042424579e+00
1.284391754281355880e+00
1.240181894804397000e+00
1.178919141945425464e+00
1.148612030063111966e+00
1.103593184398493188e+00
1.072071305987040812e+00
9.292478515494981828e-01
8.681492245837960642e-01
8.064957107568088146e-01
7.783600130293057973e-01
6.691611735692730711e-01
5.516580531742354410e-01
5.168252172700963376e-01
4.376582257306876889e-01
3.302639105553016874e-01
3.128215703239721757e-01
3.087431383157251963e-01
2.378030575740511521e-01
2.191567219706885838e-01
1.487619903045707404e-01
1.519227912782502299e-01
1.753057374405178059e-01
1.388634350283515229e-01
1.413767061260571278e-01
1.205703022059183838e-01
9.918266805489937832e-02
6.173939807648615163e-02
7.127776998579402057e-02
7.585367339942404585e-02
7.589270150250577995e-02
1.198483716834884416e-01
1.062705009898323172e-01
1.272863784995755809e-01
1.498439780437637037e-01
1.375953823331851622e-01
1.994569324428147605e-01
1.296591658044425888e-01
1.858660350547657603e-01
1.756563009898459704e-01
9.241958183060973442e-02
1.418751674297751841e-01
1.587525046882808655e-01
1.389808960001777116e-01
2.057602397681867756e-01
1.430732330300279465e-01
1.618501660951123244e-01
1.643416094946811845e-01
1.825683240252930772e-01
1.656434445951371903e-01
2.371387880321319253e-01
1.889451014397368345e-01
1.638840469972379921e-01
2.249036715857115898e-01
1.774330071164561817e-01
2.104027504829833195e-01
2.259461230483777450e-01
2.725215013350974491e-01
1.550704071622529545e-01
2.010671672109534402e-01
1.886066967221139978e-01
2.236626758349525290e-01
2.309116283888200671e-01
2.198443851969537066e-01
1.759712249260202976e-01
2.265333935864225767e-01
2.050431817968834114e-01
1.684788949251557755e-01
1.500528000361827097e-01
2.091299850034000762e-01
2.425629663970867433e-01
1.640277621060842461e-01
2.098920254588243772e-01
1.989969301800532386e-01
1.645821060850981565e-01
1.368931518492868815e-01
2.439229511028791486e-01
1.965456093434008733e-01
1.951140685156248500e-01
2.117017950436121954e-01
1.887363883953596666e-01
2.012856721694830375e-01
1.483394943996998172e-01
1.310898971908282806e-01
1.188257530726607308e-01
1.249321236348485686e-01
1.000518616639253788e-01
1.204341145294310078e-01
1.170808959412601158e-01
1.323333075004499704e-01
1.482625405079214254e-01
1.006849646342073828e-01
1.387208229565519424e-01
1.289747758056140614e-01
9.207220691743905894e-02
5.868565296053157576e-02
1.221684117215117993e-01
1.235525420000892494e-01
5.269561199851226230e-02
9.695819719645534795e-02
7.908852785339405556e-03
1.016383071309432881e-02
5.613035046093330094e-02
5.594721253375792985e-02
4.218375157255624397e-02
7.225617646767086566e-02
3.816254681713059094e-02
2.039863172672856662e-02
3.480921499981060041e-02
2.582273423734318674e-02
1.205938493772242548e-01
3.769333108803335497e-02
1.541160840790526537e-02
3.409344036145670054e-02
5.373786395450590170e-02
-4.957214882774073350e-02
5.563178672998371488e-02
-1.325408745452524156e-02
1.289071619168793981e-02
4.039822411093302312e-02
1.489393915798937693e-02
1.795955269475597166e-02
2.272068435904506245e-02
4.321684501086718588e-02
3.549680168872486330e-02
-2.022447796639358433e-02
3.307008291450115600e-02
5.579907375507010131e-02
-1.264529638142914206e-02
1.760617672053020263e-02
-8.640940102810863721e-03
2.126984188703043635e-02
2.722729444274090901e-02
-8.815405907273551542e-03
-1.293080358155392073e-02
-1.809716880397004013e-02
1.517113996441917662e-02
-1.030696372027578925e-02
6.226956279912118641e-02
-2.325795534207554180e-02
-9.905440967557885973e-03
2.826282892258986587e-02
-1.816742940326595418e-02
8.570147557586234310e-03
1.799513993924944932e-02
-2.303646348535814958e-02
-9.645621448567476622e-03
-1.785755865610436088e-02
1.366386313947521788e-02
-2.038239799745063946e-02
-1.924339945487397313e-03
-4.863141762538956969e-03
5.288542059311647503e-02
4.903199553620811446e-02
-1.198160464166406897e-03
-6.852046199114111141e-03
6.448083411277867605e-02
8.301685303371036245e-03
6.931388241204530787e-02
4.207790215163433045e-02
4.386304214467595664e-02
-9.773350458820165981e-03
5.601453619184656313e-02
6.848160083819188060e-02
3.992833962577371082e-02
3.153130668735290576e-02
6.026644202453904781e-02
5.187075292607735977e-02
1.029489404914699924e-01
6.144298951158212035e-02
1.022414028273847947e-01
1.180957376446400975e-01
9.436324639812930515e-02
1.201150667383269616e-01
7.975722910464128068e-02
7.255696479300982604e-02
1.379725701234346957e-01
1.139483421583243755e-01
7.233820251175332450e-02
1.271969157060837408e-01
1.416234263106647406e-01
1.451726168763960156e-01
1.306655099203713477e-01
1.171479828129195766e-01
1.069856942126755639e-01
1.493765042251086750e-01
1.854934865712453973e-01
1.566129667024073746e-01
1.373542979629764904e-01
1.778838897153763032e-01
1.819746445189780737e-01
1.507469121175863125e-01
1.669858362434178123e-01
1.048080571643594944e-01
1.223630402440816084e-01
1.541035924323178874e-01
1.619647241319213393e-01
1.584596363447723644e-01
1.852704993544934120e-01
1.383550452918568263e-01
1.340718600337670319e-01
2.065866459358008111e-01
2.238130223410221831e-01
2.150700697147744089e-01
1.915503840868017227e-01
2.407375834888458022e-01
3.123139779822313722e-01
3.543044606236732674e-01
3.967464007545165039e-01
5.023270124581713514e-01
5.379261476856399549e-01
6.372563372402649806e-01
6.526960174766037737e-01
7.422286971866998151e-01
8.331624412346022579e-01
8.348476783567405635e-01
1.003112726524574505e+00
1.072826364715423031e+00
1.094671917697948693e+00
1.147708396608217996e+00
1.290117594208090468e+00
1.326023461679458393e+00
1.386257891903777129e+00
1.379192906933436324e+00
1.373752626369620033e+00
1.347558718089076235e+00
1.410728291916930388e+00
1.399098945442596387e+00
1.353676962415362617e+00
1.263029169100874149e+00
1.252363134011938106e+00
1.178368861105483445e+00
1.129761139399322767e+00
1.056938235791640146e+00
9.238758009726556475e-01
8.597973495886312989e-01
7.984872659810524631e-01
7.245598785956127719e-01
6.956926257629281185e-01
5.489563035430872207e-01
5.148392284861094126e-01
4.662266461544081753e-01
3.779913424317793424e-01
3.050144880987051277e-01
2.911022216439849708e-01
2.704131179246962446e-01
3.242930069167201390e-01
1.747229603776819518e-01
2.247764415976597485e-01
2.033382692219603272e-01
1.512898579281565792e-01
1.878869288328973985e-01
1.513530373466946688e-01
1.190454005764687295e-01
1.792633019648471049e-01
1.314688800417984638e-01
1.498299612235127198e-01
1.634779312441915766e-01
1.109183142254964172e-01
1.704904838692643532e-01
1.955098288785623861e-01
1.670953940533181636e-01
1.661526431307752405e-01
1.806915459365270871e-01
2.564854027844840068e-01
2.313573205994542137e-01
1.840666020723189522e-01
1.458075264915070501e-01
2.348582220878478177e-01
2.115827261122154579e-01
2.065302430159690894e-01
2.025015238821480934e-01
2.847038991976495459e-01
2.694120982652368768e-01
1.654836669118836534e-01
1.890225127300198538e-01
2.153398789349542097e-01
2.458580810535697381e-01
2.638686938789010505e-01
2.605916704958223251e-01
3.029654053791054902e-01
2.188201335745497134e-01
2.972250524744542988e-01
2.086387929206074687e-01
3.170059002807106840e-01
2.993938999932782008e-01
2.499051662192495749e-01
2.819119078777930776e-01
2.351408529988778251e-01
2.714052985892157488e-01
2.343550722342287729e-01
2.688996020835133782e-01
3.250946060139250915e-01
2.368865723448727867e-01
2.777103633916641057e-01
1.851101535023375599e-01
3.066525517882570107e-01
2.819334157756860915e-01
2.350723295993362993e-01
2.562214128752788866e-01
2.380675921947859597e-01
2.303750526113080288e-01
2.537741825634490245e-01
2.020205651419609283e-01
2.429347017502468675e-01
2.214390641340973076e-01
1.906906600863079726e-01
2.390865622999850670e-01
2.063550970752509872e-01
2.533883368601874131e-01
2.238586510078393599e-01
1.909783908288071319e-01
2.366029605920487722e-01
1.417554801873603387e-01
2.381958517898954131e-01
2.201449923319352409e-01
1.772023506113388214e-01
1.699948982360143801e-01
1.200895751735749500e-01
1.765049165033273915e-01
1.331186619803180204e-01
1.732507321783859078e-01
9.024278310673876369e-02
1.513872464966539155e-01
1.681849372325235348e-01
1.532257561681609759e-01
1.644485216426855578e-01
9.701617857376992893e-02
1.624376163340822410e-01
7.241046625905647738e-02
1.114893483085522830e-01
1.135960355097040686e-01
5.557481633746136351e-02
1.081607303913454943e-01
1.174476467905905541e-01
9.454600322121418932e-02
1.248033056583894573e-01
7.656016794686759663e-02
5.168459554019032287e-02
4.321757489574553496e-02
6.884075838614808762e-02
9.507166198760000353e-02
4.323432880839175874e-02
1.200907897022732151e-02
6.746141121673006336e-02
2.417027667682086767e-02
7.297460596002718070e-02
5.369871179475349532e-03
1.077722096432635474e-01
7.562622768522320182e-03
7.871891482922488414e-02
3.189820893644718797e-02
1.564926603353588436e-02
8.015882033929883077e-02
8.897815351717260068e-02
5.018332167878940264e-02
6.847799134442461577e-02
2.199812229258673105e-02
2.014731430684698482e-03
3.778375447633777751e-02
3.453102104675276340e-02
8.468539452735188156e-02
4.758505603114361604e-02
3.473614089187427451e-02
3.403615605851154774e-02
8.878448451571085975e-02
8.580433556779436255e-02
2.528422883813195160e-02
6.942550049432737180e-02
4.324553185762191471e-02
5.261139425548468085e-02
5.501358119391376589e-02
4.880851534452657764e-02
8.468335942217934675e-02
1.751082683050922406e-03
7.638998510773756245e-02
8.538320476748038901e-02
6.307970431132609024e-02
8.053147066453153480e-02
6.093632604742565961e-02
8.136429871726097440e-02
7.497850627474998697e-02
7.032422169675237034e-02
8.504731582941438273e-02
1.199465822958856731e-01
1.301604537973097830e-01
9.897716927646291185e-02
8.581365601304927204e-02
1.040992901438844986e-01
9.670211592174743354e-02
1.061028952317584623e-01
1.127421422008644536e-01
1.171715901181505093e-01
1.539559405779996060e-01
1.360545783602972181e-01
1.321588440632950612e-01
9.230895715508172228e-02
1.318655929153361162e-01
1.380009423498916865e-01
1.344825086411059745e-01
1.362927301128474267e-01
1.784225394474559523e-01
1.128792814533400579e-01
1.265728455976975197e-01
1.617829870807372394e-01
1.142631014380219023e-01
1.376634645015780978e-01
1.849670082143335947e-01
2.071783178951329407e-01
2.126076299638332001e-01
1.688688819643082151e-01
1.805184625968413725e-01
1.596757190977723395e-01
2.030708905953963472e-01
2.500569384608103407e-01
2.398310797053448129e-01
1.609990621871427163e-01
1.848166628041431059e-01
2.102881685178766002e-01
1.332820095913632708e-01
1.720038634391700960e-01
1.761356765797603696e-01
1.569375349963197941e-01
1.473618429281366160e-01
2.150357826104999370e-01
2.148762078813615806e-01
2.567564427559245743e-01
2.413972798208684489e-01
3.134175313979256083e-01
2.731676184183757794e-01
2.874054332225069452e-01
2.983515126657174665e-01
2.925043199530574789e-01
4.045682261572298710e-01
4.006571068570306537e-01
4.456334539104739312e-01
4.825986371554104037e-01
5.899714814484162684e-01
6.479158619558174070e-01
7.824899456122316188e-01
8.044550146569710014e-01
8.494656907351924024e-01
9.564679332518685184e-01
1.037072025245435514e+00
1.127035681860503402e+00
1.198293424340197699e+00
1.251415695447290810e+00
1.264693669146550459e+00
1.316328040099150609e+00
1.417044852971413693e+00
1.396947723590790558e+00
1.438687086582980390e+00
1.461243046500897647e+00
1.405402416588080072e+00
1.449414441200625570e+00
1.358300922552754253e+00
1.301439657223364410e+00
1.282355468906370310e+00
1.164079871610704142e+00
1.139293630989804296e+00
1.059259710941550692e+00
9.595630905316107073e-01
9.088277558501057785e-01
8.110609906927523927e-01
6.931144890307321393e-01
6.807096969735417780e-01
6.324464185249356607e-01
5.434939746131078886e-01
4.727988692512440361e-01
5.039594291867738329e-01
3.776695146569209460e-01
3.233218167714424496e-01
3.337069175284070877e-01
3.343373099239080881e-01
2.200730579332689230e-01
2.403374802780501862e-01
2.084589085833014888e-01
2.877566537667833879e-01
2.276234792207298963e-01
1.998311273021337597e-01
2.117555875049096925e-01
1.815029865310931190e-01
1.944620701424914777e-01
2.424388180387421765e-01
2.533092924702411430e-01
2.344950653448615030e-01
1.825176205693302967e-01
2.154296299133900694e-01
2.273741971393811734e-01
2.388029318646351928e-01
2.550988454795739546e-01
2.143249827867342860e-01
2.387568626760956936e-01
2.862377590024090535e-01
2.575065816557657872e-01
2.331917170216589730e-01
2.700539074594272559e-01
2.303226972563593156e-01
2.830731061845727092e-01
3.144449604484619853e-01
2.651684580741595076e-01
2.985276966120652964e-01
2.774410734333629946e-01
1.978817755795304334e-01
2.805639324176075200e-01
3.177715830768567118e-01
3.008249320863888299e-01
3.036227007979488413e-01
3.165188338863191841e-01
2.884952961628656776e-01
2.947234895073205796e-01
2.665604284603391716e-01
3.272758732250432567e-01
2.677173186595096510e-01
3.360192897411241608e-01
2.694713979129815806e-01
2.845469586744364121e-01
3.026731190890525336e-01
3.147406461385720555e-01
3.368289937007283852e-01
3.130886965491836982e-01
2.710679327302527031e-01
3.097576841134691561e-01
3.293512160917326792e-01
2.828352832353112079e-01
2.946758228647652356e-01
3.096039467806458445e-01
3.014123160347926267e-01
2.492310296343085430e-01
2.609519286061157128e-01
2.409742201924043314e-01
2.075700586048126184e-01
2.542203529121939143e-01
2.285915480911585307e-01
2.516557366917756555e-01
2.102680328114515940e-01
2.515571388175136813e-01
2.595235397725395021e-01
2.534441015996584667e-01
2.266041995354190763e-01
2.286850140136635900e-01
2.124173851124063483e-01
2.426868361803131424e-01
1.905432401715051460e-01
1.772474150917321967e-01
1.532858834283147842e-01
1.174071605226680859e-01
1.762927593502803536e-01
2.247890991269211325e-01
1.501197797518053489e-01
1.773420239521674713e-01
2.004068042298171870e-01
1.258251673382098368e-01
1.882573032445895300e-01
1.259085679730761742e-01
1.356519393029634868e-01
1.411150465616847482e-01
1.640487086172462972e-01
1.056809066025327509e-01
1.336302763245679204e-01
1.115270832059015588e-01
1.583037812918139942e-01
8.033844978700613315e-02
6.132847587907123282e-02
1.554234169303239654e-01
1.339226805348167626e-01
3.638632522028560634e-02
1.400860651903389764e-01
1.127985848080628462e-01
1.109802628250677881e-01
6.956901220098105076e-02
5.520089773622277596e-02
1.202836334564302556e-01
1.025383753313846291e-01
1.151366846626711016e-01
8.053017250749067157e-02
9.687126757050108783e-02
3.191883087610807024e-02
7.083318781416231280e-02
8.124863254811745539e-02
2.451203040676072295e-02
1.216441577766142479e-01
2.431082931164706487e-02
9.563400550850779946e-02
9.041849414575868493e-02
1.518498577266370053e-01
7.124081125993311780e-02
5.702358409477680662e-02
4.403617249716913068e-02
4.870693698542186145e-02
4.866661279477389745e-02
7.800650728543435941e-02
6.944488241153015662e-02
6.308532824344974255e-02
-2.327100386200139925e-03
5.838365275106701530e-02
1.455820514796856563e-02
1.340157806856588640e-01
4.714703475327729210e-02
1.092097167809905206e-01
5.513924121413703999e-02
4.737693170067196202e-02
8.869694855972685976e-02
1.022642462308903377e-01
9.998048020784133794e-02
1.221845612066574938e-01
1.216426870447061825e-01
9.231709719796207803e-02
1.108670453915696352e-01
1.136261755420548136e-01
8.592075453660354134e-02
1.022509177960181648e-01
9.770135317591900626e-02
9.131369799510880014e-02
8.319514798420787893e-02
1.549593927204400978e-01
1.549337007817990775e-01
1.125643802924413961e-01
2.158892919007908417e-01
1.528602202662720511e-01
1.503327611137163511e-01
1.521803701249684615e-01
1.363839813533158085e-01
1.259515065009734758e-01
1.216744970257083586e-01
2.011451772810120553e-01
1.882544369544126572e-01
1.684792123485080451e-01
2.296602003620283328e-01
2.299186805604632733e-01
1.834273231896294543e-01
2.273219375786849072e-01
1.844445770960995434e-01
2.155327936286710044e-01
2.333902738406535005e-01
1.790423550656680685e-01
1.937422396873834385e-01
1.743514285168552835e-01
1.975448787913326454e-01
1.407068763344822560e-01
2.513477774473313886e-01
1.747653857247985498e-01
1.488752408715021680e-01
2.049908437649442250e-01
2.050341066181171623e-01
1.929091839674005049e-01
2.117787872029511242e-01
2.197842453148116659e-01
2.150039216227276895e-01
1.785593719262997259e-01
1.750213825741143980e-01
1.867229101786734846e-01
2.185016098810473872e-01
1.923675738662069257e-01
2.483564566809217111e-01
2.944028442750190599e-01
2.900385032156117537e-01
3.080949094926153653e-01
3.259819780504119580e-01
3.690730495138964673e-01
4.252275197778808691e-01
4.846151067883399111e-01
4.436755243294367990e-01
5.532611915159352245e-01
6.435606470318906425e-01
6.913624966691231943e-01
7.782043241234961606e-01
7.927041141294515203e-01
9.129513833078021223e-01
1.001791223230118488e+00
1.089950797785833814e+00
1.143465130923744022e+00
1.193537031195108788e+00
1.234293518052033800e+00
1.318954506023877205e+00
1.384343708526922789e+00
1.369974694735740517e+00
1.415875727169317200e+00
1.457960673571528920e+00
1.407193152657412183e+00
1.431601617139047766e+00
1.419806200433069820e+00
1.326278265044343208e+00
1.298455610150192285e+00
1.139076470318934664e+00
1.147773511121172652e+00
1.122140037031523541e+00
9.882670454256504700e-01
8.937571708702106710e-01
8.063143652178478282e-01
7.337931969386213282e-01
7.010625621782216044e-01
6.523377037723235849e-01
5.735188019620259814e-01
4.671691777901424425e-01
4.413030484489275374e-01
3.437424494432528288e-01
3.219600960503278264e-01
3.381723193503179403e-01
2.391170831384750173e-01
2.209839867611335384e-01
2.607723439999680703e-01
2.451707214487086617e-01
2.335688173553967240e-01
2.297968760354756890e-01
1.807893914611737873e-01
2.053684601202279136e-01
2.017965031130131148e-01
1.491273596795846534e-01
1.267594552045477885e-01
1.777338696264755824e-01
2.310681528918291650e-01
2.432173403867481098e-01
1.593533678802923070e-01
2.077725240296143527e-01
1.958126340664931297e-01
1.874328513929149065e-01
1.918175803316636563e-01
2.501025351762163340e-01
2.255738914237304660e-01
2.293925812258900965e-01
2.066763901780040436e-01
2.303412690456161926e-01
2.211587302031618463e-01
1.951933405983412029e-01
2.584846762982634383e-01
2.696325419731545048e-01
2.559030523364590470e-01
2.702432803698434083e-01
2.673871673917005420e-01
2.453001582733302932e-01
2.872959009646186002e-01
2.906812272157501265e-01
2.616280329054432308e-01
2.879920060942031679e-01
2.983755714825801486e-01
2.441238178446408502e-01
2.575697480030321729e-01
2.169289464853935978e-01
3.075979958460445252e-01
2.943860592126197884e-01
3.067738553362556742e-01
2.793351965176476548e-01
3.067353300799802174e-01
2.541186626197185494e-01
2.823841306141962604e-01
2.931592580583931018e-01
2.766933479169548238e-01
3.149285082836738026e-01
2.999935790202230002e-01
2.600697149337037328e-01
2.913714800731174170e-01
2.363884720429957342e-01
2.934660816829038343e-01
3.006173835943137806e-01
2.081202150528550232e-01
2.383909857512594987e-01
2.611526453781166102e-01
2.687581241220840522e-01
2.323517718945933286e-01
2.459815063487413578e-01
2.434956194245926908e-01
2.672424187304944798e-01
2.266120339626112867e-01
2.307363601982941881e-01
2.061616352491743853e-01
2.587343193348274895e-01
1.747987522977426933e-01
1.568098968065985976e-01
1.699481974182331101e-01
1.601747245722299484e-01
1.089268548495129774e-01
2.034991301618246096e-01
1.620770779536228334e-01
1.748450701448167888e-01
1.463070176108140497e-01
1.527181244202581722e-01
1.444346726481874899e-01
1.248973941851413694e-01
9.768549124542909301e-02
1.416983006382712129e-01
1.747644591641896172e-01
1.237234430092442744e-01
7.535139697902389078e-02
1.075351757617552667e-01
1.078001240732353039e-01
1.117216813605599462e-01
7.866524488808127047e-02
6.061798707407005382e-02
9.165219203980695672e-02
8.765402201865560294e-02
7.402229175796312677e-02
7.762315134685354723e-02
-1.025060036518384531e-02
8.473301513901013160e-02
5.406282182339520320e-02
5.569726355506009197e-02
4.315935904975506943e-02
6.447695092150589058e-02
7.870858339937118753e-02
4.310126167307269662e-04
2.462591490985417686e-02
4.501715082371758603e-02
8.212638261361872305e-02
6.698879832812149049e-02
7.855786709090692432e-02
4.418064454553804338e-02
3.198380058849185220e-02
4.944787909496919237e-02
8.442432754179264587e-02
4.302636513883567604e-02
2.471633944211908823e-02
8.290388276756530117e-03
4.580996235179385367e-02
2.202966071357576050e-02
5.096175854610210387e-02
6.043229624348162715e-02
8.145943410571543364e-02
4.320683312650638180e-02
1.828545787701869874e-02
5.010252758442327453e-02
1.997007776560497799e-02
5.114434186751035116e-02
-1.325399659455993133e-02
1.159176867719793544e-02
3.238541431330271836e-02
3.366278678150021880e-02
5.528195331641982263e-02
-2.036944561637166196e-03
2.520484725889306568e-02
4.565997789875699681e-02
1.105873669487074384e-01
7.095840925144866057e-03
4.956251324464433505e-02
6.471259217674898978e-02
5.639120896259301047e-02
8.818260377429495978e-02
3.663231699308239914e-02
9.158489356918865509e-02
8.682037582658662378e-02
3.621165024927429366e-02
1.200707043440783495e-01
4.873896192129854865e-02
6.087703344397621397e-02
1.380445496517469506e-01
6.035486971722926058e-02
7.387920381598145347e-02
7.319577901840206013e-02
9.160327778983187730e-02
1.107062401728889228e-01
1.137642815835993165e-01
8.256000393011178606e-02
7.332856526519182516e-02
7.516636617861806313e-02
8.138187800873199207e-02
1.148503504693240695e-01
1.184428911355715625e-01
8.653520869328147624e-02
1.183230008588259247e-01
1.411514599839888418e-01
1.557396025631175296e-01
1.500620840386484023e-01
1.464765287742493816e-01
1.528343584199236271e-01
1.504219461782724809e-01
9.800888493903334164e-02
1.177745191255656909e-01
1.193558977351659722e-01
1.161980535185282576e-01
1.968358834980028782e-01
1.568496777708673906e-01
1.797522737639964674e-01
1.291561190725294683e-01
1.498704870566339442e-01
1.642950340892646577e-01
1.525961643189665540e-01
2.297810972267887164e-01
1.763889158332659912e-01
1.517394228056582750e-01
1.880511055569155099e-01
1.799596962236240938e-01
2.618410900715606449e-01
2.010342883836374883e-01
2.755906123981091138e-01
2.280350475292327039e-01
2.203097284340371775e-01
3.090179524109000764e-01
3.381000461864453466e-01
4.601871452693623854e-01
4.668020044056154227e-01
5.698834655296780571e-01
5.631390801109176225e-01
6.806545967821082677e-01
7.609633002003912683e-01
7.990814080675979758e-01
9.034458415568218381e-01
9.609609224726235466e-01
1.045280313896271629e+00
1.091725191216885937e+00
1.184983320797941220e+00
1.248977298118298274e+00
1.288198775636571369e+00
1.339331916317199722e+00
1.340542447525298719e+00
1.419558698950445397e+00
1.364936633232310070e+00
1.428597911165541801e+00
1.342817248465532298e+00
1.265709307493550373e+00
1.248310577844616853e+00
1.203899896911311940e+00
1.203795148551498606e+00
1.089192542950204068e+00
1.003994042625100835e+00
8.960513805288438105e-01
8.582561119114395787e-01
7.831786924383450366e-01
6.610784447125575003e-01
6.279018500150380655e-01
5.978985281063209367e-01
4.673145660911893207e-01
4.077902512445140681e-01
3.986234942764222411e-01
2.714625184359614196e-01
2.707123937713063477e-01
2.293918150404569978e-01
2.419938492135209618e-01
1.470339475276763730e-01
1.332587137112695996e-01
1.784260312804182569e-01
2.015325507275822492e-01
1.907278925036854367e-01
2.078285075140577087e-01
1.147764910369909741e-01
8.986274692937905317e-02
1.351332716998799310e-01
1.490482248708915880e-01
1.608452193995650870e-01
1.577121811137658924e-01
1.441872673704805985e-01
1.544812099035036412e-01
7.969941245935879826e-02
1.573853812136901953e-01
1.982798384657489810e-01
1.206185328922187161e-01
1.754203144869070918e-01
1.423959931406802437e-01
1.832615973224514527e-01
2.040038604081221285e-01
1.401943749980487930e-01
1.380192831691198219e-01
1.722064520727415449e-01
2.137839731644842756e-01
1.538510541299275003e-01
2.034246264381671665e-01
1.736214149351010816e-01
1.892212529415570332e-01
2.018755403754969313e-01
2.442765088784288330e-01
2.765239257829704145e-01
2.402035515826553003e-01
2.406392027880390472e-01
2.158931903244778461e-01
2.294714947794356530e-01
2.405936751418334962e-01
2.453509257101516294e-01
2.074385870777338270e-01
2.198643843644951246e-01
2.049998959524056696e-01
2.122036125680819008e-01
2.302876771638916742e-01
2.830125269426658763e-01
2.337568236625401086e-01
1.964459539233322782e-01
2.052089479151031348e-01
2.163623776656692921e-01
2.149810462523684684e-01
1.917977955141308977e-01
2.051632670709712669e-01
1.491504391464141543e-01
1.907747453154120254e-01
2.394489603683376822e-01
2.322216779786306362e-01
1.705926177773101071e-01
2.169462222352034342e-01
1.573059373451989040e-01
1.357649556939378721e-01
1.329955771177465662e-01
1.701910767875995101e-01
1.255328572441777035e-01
1.872928435549398585e-01
1.737496798847474044e-01
1.624250838737793523e-01
1.845596541816665603e-01
1.111818480795162406e-01
1.393635427219530598e-01
1.236024393481839484e-01
1.011193053094237293e-01
1.663612725879734522e-01
7.371836666527667448e-02
1.288486757209226230e-01
1.056520699444078171e-01
9.985571063357245869e-02
1.264911674788725404e-01
1.027073946318579345e-01
9.353455113125488940e-02
7.133940192551428694e-02
9.349206952224781153e-02
1.470095369345233299e-02
5.914924104047234593e-02
2.789994580556473536e-02
2.143854682533730127e-02
3.994011131871377102e-02
3.954278952856741386e-02
5.796696438057750284e-02
-1.778096795166311805e-02
6.028911084483681848e-02
6.898079688958158595e-02
3.136227621751045552e-02
3.022301979093543201e-02
4.045665171735460947e-02
-4.321527292885236210e-02
-3.614127376997656321e-02
6.945410099716671504e-03
3.636660983648759560e-02
-2.495290662871541346e-02
-2.163764083618925638e-02
-4.720400715417640003e-02
-2.422931851112287982e-02
-3.561079414172281521e-03
-2.779125466151957310e-02
-5.279939127027931389e-02
1.309674351161006778e-02
-1.458783538915231145e-02
1.379671813575349820e-02
7.555931717967381833e-03
-1.156666977313480782e-02
-6.122583726563003703e-02
-2.752533005668813745e-02
-3.677024287863733115e-02
-5.244320840801619532e-03
-9.589716553867796978e-03
1.480904415830937293e-03
1.665825966559182636e-02
-5.788781179685124206e-02
-1.434401249319929017e-02
-4.040660673461991814e-02
-5.581589355316304846e-02
-5.258787586429837513e-02
2.183042579412093620e-02
4.697809053311831351e-03
2.366691284877107948e-02
-2.499105476504630274e-02
-1.382431148953867581e-02
-4.387285496944323682e-02
-5.710354142531873928e-02
-4.499327141198265767e-03
6.171690578898822443e-02
-5.490231763730727549e-02
-1.796649353056276044e-04
-1.612774071417497068e-02
2.008182075997015648e-02
-8.811360088221449616e-02
-5.851387705001365180e-02
-2.240489806693512012e-02
1.454455701662120404e-02
1.749151514047270900e-02
2.867580779191853529e-02
7.282417872896126965e-02
5.079490536928280009e-02
5.021082850910120465e-02
5.779426504801033621e-02
-3.397587476882905216e-02
5.980607354346695326e-02
8.664615469876965625e-02
3.782166035174758245e-02
5.086017682946229745e-02
4.422717090944902618e-02
3.646252703018438429e-02
5.374259065797162144e-02
8.202052601904746831e-02
1.342965979594855086e-01
8.817091822939088219e-02
3.158430636126965257e-02
1.295873388161311035e-01
1.075124596675172683e-01
9.737678710121358550e-02
1.110935689352909594e-01
1.028001351477779990e-01
3.848717843680010686e-02
1.125773010787848027e-01
1.264204031652645666e-01
6.949912133612434761e-02
8.022412745277135437e-02
9.689758012649182795e-02
1.118132998303832393e-01
8.792576588225350931e-02
1.012177156132095246e-01
9.141793833824821136e-02
1.072951831593074168e-01
8.421335795660850332e-02
1.227503483721143207e-01
1.134191755996608320e-01
1.678161753561778768e-01
1.061568420468815555e-01
1.758544451166077494e-01
1.594265243718258340e-01
2.036253715617701299e-01
2.093716657208843090e-01
1.989354987109158701e-01
1.938058724588525017e-01
2.474500722274070585e-01
2.602788661922235125e-01
3.429746667602995291e-01
3.140076544812236969e-01
3.991266374021168462e-01
4.685469614691829543e-01
5.819684965267548638e-01
5.650575513683292472e-01
6.941867638171485000e-01
7.560454651631484113e-01
8.373751592686857759e-01
8.841110462638964718e-01
9.803354029321011964e-01
1.073519280995226755e+00
1.107998510370522771e+00
1.221610457571300712e+00
1.262467312588634094e+00
1.306057684309280376e+00
1.303055730728878814e+00
1.318141089808410271e+00
1.357943342474801529e+00
1.357927471396269237e+00
1.321582600571772792e+00
1.283119746335829703e+00
1.246321709361424501e+00
1.221047814184175406e+00
1.148582127683387188e+00
1.038990771649529021e+00
1.032744940170995163e+00
9.670182562189046926e-01
8.086031580898810356e-01
7.695618795605614348e-01
7.379374804561192880e-01
5.305923296647997445e-01
5.730002971282390778e-01
4.616417485488994998e-01
4.061010641467922566e-01
3.743510478758969584e-01
3.383306133280595818e-01
2.184216394207066647e-01
2.409413880585928591e-01
2.206066072999394168e-01
2.311774291261381453e-01
1.199960596914202426e-01
1.118151942874144600e-01
1.073082263198056330e-01
1.394070970500337070e-01
8.783107426351519087e-02
8.887164198630455314e-02
9.740137581075614115e-02
1.538270749283560668e-01
1.531422293179402205e-01
1.656314769035813483e-01
1.304948350516079436e-01
7.007767662330366409e-02
1.205740523235968031e-01
1.301550257546993383e-01
1.037987952330653996e-01
7.873607932086514050e-02
1.180969829981849684e-01
1.738375436048918976e-01
1.193351068870646681e-01
1.752624078941378560e-01
1.723538691554250546e-01
1.318345590660098543e-01
1.233665919359706042e-01
1.848685837557257627e-01
1.950547703766587482e-01
1.947619838352258881e-01
1.684028591753711779e-01
1.912958736928957182e-01
1.699954582019458371e-01
1.714498529014446548e-01
1.927235227129237005e-01
1.903694326543047266e-01
2.335425333860005892e-01
2.147270457547181544e-01
1.988013565965407459e-01
2.156467622727188949e-01
1.719445406726110015e-01
2.259412531319713036e-01
2.069995226221436058e-01
2.030880227512266156e-01
2.075584640590757979e-01
1.957409212112296015e-01
2.395987053331315730e-01
1.697698733022328654e-01
1.902533028557580330e-01
2.553863740165254193e-01
2.012792474985387325e-01
1.839747041725617316e-01
2.482823996842190017e-01
1.691866809362281843e-01
1.863616213888411588e-01
1.601585233946750397e-01
1.558382170556069368e-01
2.464153597829524256e-01
2.216741845106955100e-01
2.129393933068536582e-01
1.779133797055443833e-01
1.356173056893585360e-01
1.646049176554174043e-01
1.757650025785251757e-01
1.279970567620894173e-01
1.749500018489388853e-01
1.241515963753947460e-01
1.457163047837578829e-01
1.353472959986236068e-01
1.954335254970837044e-01
1.048128532909066435e-01
1.443704587038980858e-01
1.115707013232588168e-01
5.264591262743592570e-02
4.361886631223313437e-02
8.786733749658534598e-02
8.440147559266697463e-02
1.006272947534718465e-01
1.004412147166688918e-01
6.163855669353267980e-02
4.168294977806946688e-02
7.525059045657894741e-02
1.164012327271726766e-02
5.138695484075735814e-02
5.672999341373601012e-02
-1.443860207533863294e-03
7.926881975092742172e-02
6.422394256835653459e-02
7.163361791549352486e-02
4.993924312956319472e-02
4.689637257762004074e-02
3.799819863698460087e-02
-3.639181129402117160e-02
8.646621610998717067e-03
5.107656441462457564e-02
-9.334302036834551952e-03
-1.351968024900411514e-02
-2.037842602050872129e-02
-5.195543170528157256e-02
-2.658941669668006547e-03
-2.509728836042431424e-02
-4.975934801802958662e-03
-7.797421975541000971e-03
-5.221373107848566175e-02
-1.046192569090761970e-02
-5.326483817304195068e-02
1.414633291935597781e-02
-1.383335951036721023e-04
1.276222852016694470e-02
2.213884375070057642e-03
-1.725094729144040565e-02
-2.587312671592939192e-02
-1.543953882493079299e-02
4.453562035221439452e-02
-8.872660210669652825e-04
-4.302561290926719406e-02
-5.269322143739799125e-02
-4.424613514294246930e-02
-4.421969301593817181e-03
-2.870671676523196825e-03
-2.900962544284545197e-02
-8.134783021318067742e-02
-3.694821606001786468e-02
-1.535760093049625546e-02
-4.889957541443376576e-02
4.057673389042537604e-02
3.440838714040606039e-03
-8.428033750803691493e-03
-4.058247270105888593e-02
2.832395588945734594e-02
-5.811201231395357603e-02
-1.324358628433162932e-02
3.472983525588800580e-02
-3.764004790633573849e-02
-6.071487068003526832e-02
1.538686628148850516e-02
6.810961899668170616e-03
4.547551353956291731e-03
-1.900192887220555557e-02
3.306096788437677680e-03
4.670168244713083366e-02
2.668910480353629822e-02
3.234871596407078165e-02
3.366599054750414599e-02
2.763744209347346326e-02
4.666321098614229640e-02
1.212755870759412713e-01
5.651626175588865542e-02
5.184429684856252385e-03
1.472748445033211784e-02
1.448680054523599631e-02
9.181725724938955002e-02
6.331712863033560346e-02
5.988149531468735243e-02
9.785484005609182412e-02
3.059009787159648608e-02
5.525010906124381421e-02
2.814343303932514972e-02
1.074182139585851403e-01
6.747034116670885817e-02
5.290157519607082554e-02
7.064541436365981419e-02
8.760374670868614766e-02
7.168132214778674682e-02
1.406905952671281268e-01
1.122554597750392569e-01
4.278560499966811009e-02
8.264900070199454607e-02
1.386971472096976132e-01
1.032097955900360686e-01
1.000876628321403089e-01
1.120491790897566176e-01
1.626823657502074472e-01
9.997235286074554472e-02
7.831321342653083106e-02
1.365827767140585236e-01
1.290922382719235373e-01
1.635742841600490438e-01
9.053831832082501196e-02
1.373268825865875953e-01
1.198958520085680879e-01
1.038704786879345032e-01
6.135131327126861628e-02
1.555907816549253198e-01
2.182010733091235832e-01
1.984893490006696126e-01
1.973218711769489375e-01
2.297597606677224680e-01
2.535570672987066954e-01
3.370975562099901568e-01
3.662216731344239418e-01
3.955253477876186641e-01
4.185678343372026822e-01
4.891657343384789858e-01
5.830932990020477602e-01
6.507953161039290446e-01
7.249682502620184987e-01
7.998891343514440422e-01
8.910934325739878759e-01
9.635854733923829851e-01
1.015818621272694733e+00
1.114087046282476123e+00
1.168276499222977272e+00
1.240546644910907270e+00
1.279448834739539409e+00
1.341801888786188446e+00
1.324157679269139631e+00
1.367664703563074680e+00
1.362911119771274215e+00
1.343879201725284522e+00
1.297417694204150429e+00
1.316788268220341562e+00
1.276741823294248679e+00
1.213486606483512142e+00
1.128928995898523802e+00
1.013095182375395975e+00
1.006167351348983940e+00
8.983157429153905138e-01
8.009615264742065976e-01
7.388736013107987111e-01
6.723688289749707447e-01
6.217584648600851249e-01
5.853309887416126012e-01
5.087683989231326365e-01
4.812813078331388827e-01
3.246973046952302822e-01
3.238965552964358507e-01
2.357534076081637675e-01
2.660953754724121878e-01
2.082672096461810618e-01
2.038399127656452814e-01
1.409265288586239728e-01
1.975988512254638341e-01
1.447617212905110418e-01
1.476745739059366902e-01
1.615725971319652288e-01
1.696582249496162709e-01
6.806448124404236577e-02
1.328934943625233456e-01
1.236852435784876747e-01
1.427206039912979896e-01
1.293313121915445618e-01
1.448719544671834003e-01
1.340252895261712651e-01
1.547537077254413362e-01
1.150244449549838455e-01
1.625115301298842296e-01
1.796578518786838274e-01
1.624081227506654068e-01
1.551710518718530385e-01
1.512774232588136314e-01
1.869288180243212916e-01
1.669874209189888825e-01
2.436105068143361307e-01
1.589431975794673157e-01
2.311154600536244330e-01
1.791510047321761279e-01
1.812015225857496192e-01
2.421663711653230244e-01
2.074281684687801219e-01
2.068282085808944293e-01
1.853494618984241893e-01
2.139660419710883721e-01
2.110173716468014549e-01
2.694976776051017930e-01
2.249777286832879142e-01
2.116634312877704038e-01
2.144670694460038829e-01
2.115392566820752940e-01
2.492768576793549518e-01
2.180089062430541347e-01
1.788484172365062408e-01
2.462003587937328930e-01
2.137435121167356733e-01
2.414203093228988461e-01
2.394515058373022920e-01
1.935691146423620113e-01
2.135181493873128666e-01
2.546738550793612443e-01
2.404437159327792173e-01
2.064041296394655833e-01
1.675170938232564688e-01
1.959416691174019065e-01
2.260353217197099418e-01
2.409289950412556447e-01
2.055766765505221139e-01
1.645767704126679942e-01
2.609887825375528658e-01
1.625972962131802257e-01
1.930176635165572752e-01
1.845425939360539891e-01
1.493495114553843039e-01
1.363888206579957907e-01
1.554174244604411836e-01
1.755104430760894563e-01
2.007623210012280113e-01
1.320717473698478084e-01
1.642391484629805165e-01
1.380606930767928064e-01
1.841117643372493229e-01
1.479957572111264552e-01
1.653427758394442060e-01
1.317870413086936476e-01
1.719501181707280280e-01
9.041302431174412513e-02
1.201396072817074445e-01
1.431359285825721528e-01
9.492800359440430047e-02
1.212536710771771331e-01
9.574226667081377207e-02
9.561505770728752351e-02
6.424659090164333564e-02
1.237715952805994585e-01
8.301471439199827052e-02
6.669197703791522602e-02
8.105232359728842262e-02
7.197855212899453847e-02
8.936104332766303671e-02
4.327874270379891003e-02
3.778582364658679416e-02
3.708908020235802266e-02
6.196378192302315346e-02
5.991910372020383280e-04
1.901047713617255372e-02
1.836001748155629415e-02
1.053072260828401691e-01
5.193939241591646883e-02
1.135995120747373688e-01
9.371214354002935232e-02
9.659277548630580690e-02
7.177644327874736427e-03
8.064728176286004024e-02
6.919900502024585454e-02
6.705064576814827315e-02
-1.488219334800683011e-02
9.626177662578444885e-03
8.203260992928337880e-02
2.505920817288604524e-02
4.367334095304765962e-02
1.170501054145909638e-02
1.259025614185597074e-02
9.438182463626083527e-03
-2.292235418458318449e-03
2.287758901440228518e-02
-1.049126431601862808e-02
4.088333830828314724e-02
-1.955953943771069833e-03
9.664876588740416857e-03
-4.710297032180213450e-02
-3.309753753220816795e-03
3.755093410676255128e-02
2.027469664471600458e-02
1.569861794449874115e-02
1.070409318456168324e-02
2.852054185686837828e-02
1.754046981779265602e-02
4.488180236678387947e-02
4.103269749654532561e-02
2.851180451406657226e-02
6.035206633487787131e-02
2.338705514311621714e-02
2.000896169953468931e-02
4.069973991547996134e-02
8.585357888840111640e-02
-8.016619982793394411e-03
1.218984360784804155e-01
8.029558808028472439e-02
1.067350492373378423e-02
9.321136088793854912e-02
5.677377410556943421e-02
1.280800119060704345e-01
1.400686171770815502e-01
1.414097469052877643e-01
1.274687176040623926e-01
4.454914043911247651e-02
4.625584299493989276e-02
8.875430998094110957e-02
7.093896769637018929e-02
1.378093917892183884e-01
1.179600732838649579e-01
7.822994621678874827e-02
1.188501375027078005e-01
1.197714768381282907e-01
1.304473549259976828e-01
1.846690963147541720e-01
1.894347461916661146e-01
1.594081723814461948e-01
1.485571208193679771e-01
1.347838747622395750e-01
1.535524193790648861e-01
1.572892187891897775e-01
1.658025034006943843e-01
1.500463016754808587e-01
1.134564759614664770e-01
1.896410870437148510e-01
1.309870518927075955e-01
1.849817716847357574e-01
2.357718664014848142e-01
1.104021052910000578e-01
1.303700221458479469e-01
1.316489612174146784e-01
1.487549125064196731e-01
2.052445315094076073e-01
1.592743956575206898e-01
1.903768977185787969e-01
2.033514842516440657e-01
1.283600623095100535e-01
1.820354420343358870e-01
1.930679145067839275e-01
1.803549656907046383e-01
1.708615559533251393e-01
2.150319132228680763e-01
2.663050694814851904e-01
2.364571232675885815e-01
3.085443679438175657e-01
3.440238048089722112e-01
4.138063344151883260e-01
4.008151283711320900e-01
4.593777922548812898e-01
5.760604881401175659e-01
5.534554953269107402e-01
6.593922240976266558e-01
7.122327441761786559e-01
8.100094157676086537e-01
9.137343762497940336e-01
9.348536897241214172e-01
1.070897820445129378e+00
1.121824302724806932e+00
1.108802878362450173e+00
1.257505521656013148e+00
1.323643598391380793e+00
1.354145672307710324e+00
1.420789458307081921e+00
1.374796994308237874e+00
1.437825962031336502e+00
1.409101468221547471e+00
1.442651621091183278e+00
1.364097973329514657e+00
1.375116669814557158e+00
1.296272582309613952e+00
1.185279533868825563e+00
1.123922711580284561e+00
1.145355232404669188e+00
1.004086715990688994e+00
9.190981951357439783e-01
8.479563769139858431e-01
7.815041750058201453e-01
6.858035256141119529e-01
5.945196742837963733e-01
5.068250561596472359e-01
5.224037165363294433e-01
4.474730479616509382e-01
3.628507709636937806e-01
3.417410377352730344e-01
3.372515253131625479e-01
2.967645500632172806e-01
2.396964967202609709e-01
2.341122022851180873e-01
2.006415735039631665e-01
2.129013408180552847e-01
1.599529329756281260e-01
2.067688383498175186e-01
1.974993591415155902e-01
1.814430134226679703e-01
1.887985594475342088e-01
1.898338446098463694e-01
2.352195874079471005e-01
1.277035069442546966e-01
1.429606845828002848e-01
1.905065026704687581e-01
1.613455675497852959e-01
1.997108368193847294e-01
2.412908020193194059e-01
2.236946000251572308e-01
2.888710446641899465e-01
2.461972441160306946e-01
2.123760296952283411e-01
2.015468514703026570e-01
2.573235384293686145e-01
2.188434358711123795e-01
2.860324168643688658e-01
2.409142624739017413e-01
2.590429813899549627e-01
2.846139022164188570e-01
2.932665804595971926e-01
3.228684169847727548e-01
2.129573374123058804e-01
2.147153610813144486e-01
2.734977632052872365e-01
2.691264940368544578e-01
3.255686042801886892e-01
2.353225576057942636e-01
2.152848008795683887e-01
2.192336812297853155e-01
3.107844983259518412e-01
3.182722628838376422e-01
2.393293956945068968e-01
2.869800221935813189e-01
2.909339128695440091e-01
3.011927250762029828e-01
3.405552864913559130e-01
3.075918397120323000e-01
3.306600858085676498e-01
3.071704184853207842e-01
2.861082160339331049e-01
2.295240516943792275e-01
3.107472717153727526e-01
2.942423889427132067e-01
2.221651421280796956e-01
2.474160558295409040e-01
2.650245007966019473e-01
2.959083727145291332e-01
3.126267151149783596e-01
2.069332744403840352e-01
2.222597053598746875e-01
2.177919768075282092e-01
1.975120545771765213e-01
2.211563666221206537e-01
2.656208865537857400e-01
2.351308196304037756e-01
2.358806339143196817e-01
2.345608989324342586e-01
2.385137024791226801e-01
1.856623874706208877e-01
1.613090592502030574e-01
1.750587863974598091e-01
1.792155780403156262e-01
1.758003958904734709e-01
1.484038214140547818e-01
2.272855172193335160e-01
1.491176658092535079e-01
1.968773689359263612e-01
1.860594611652870989e-01
1.252816665561858334e-01
1.237971397849304545e-01
1.299967969062641171e-01
1.162238229547314372e-01
1.403214467852492708e-01
1.541117980709555690e-01
1.450176357759215828e-01
1.629613228345184184e-01
1.529819372639649178e-01
7.139223112622558598e-02
1.030444796428123255e-01
1.735898694427325528e-01
7.411199603836385319e-02
9.563362976214428990e-02
1.715629609414764389e-01
1.486594288695192445e-01
6.195565003105224511e-02
1.000812261474832987e-01
1.281029981588174271e-01
8.458617192009820762e-02
4.631464629232345809e-02
9.473448405158969854e-02
6.812380923398610177e-02
4.676392131201313057e-02
1.408192437256789442e-01
6.434270972087825780e-02
5.524573702153721261e-02
7.062912961769686471e-02
9.179637160438117172e-02
5.579839176434775450e-02
5.174380762516703203e-02
2.484274794141796625e-02
9.850943671431480753e-02
5.413308483385959047e-02
8.010360258556364910e-02
4.413512713793709547e-02
6.207580080415107948e-02
6.053609922562458445e-03
6.324324953395242532e-02
7.775547404593204093e-02
3.791242027661434477e-02
2.299060687392948804e-02
2.108064205953634820e-02
6.835388025621086383e-02
6.363645568103144801e-02
8.081658821736079079e-02
9.282861531459284110e-02
9.849046230515447198e-02
7.030516902082006858e-02
7.935643780582493645e-02
5.390522487139214058e-02
9.223448747613621768e-02
5.270631362372361212e-02
8.534204081748908433e-02
7.282331733668252760e-02
8.125250340995393561e-02
6.090732086833409997e-02
7.461349577850252823e-02
9.606930005051939059e-02
9.533225045228033157e-02
8.457053652327935211e-02
6.509123485894585670e-02
5.047818754426402349e-02
3.673282297956557974e-02
9.342990108489929169e-02
9.669019782412623110e-02
6.599165407571272457e-02
1.023945880074918491e-01
1.257475421826686479e-01
1.664777901878828348e-01
1.354119276976730457e-01
1.175158001940084795e-01
1.772983435819889264e-01
1.928596712362612708e-01
1.739774777299526454e-01
1.100695796630342393e-01
1.870347799439198710e-01
1.517618849660770930e-01
1.698739727739050076e-01
2.008592803111027558e-01
2.241036917246689575e-01
1.647617791552793698e-01
2.078092247564252704e-01
1.472728898710299883e-01
2.015664025806453707e-01
1.711888638517370664e-01
2.419545241770554855e-01
1.605039995731124547e-01
2.483929934681963769e-01
2.055619216552213580e-01
2.000031402017372339e-01
2.346094250691434513e-01
2.035710676635981153e-01
1.682721625791787634e-01
2.106591349541701297e-01
1.724577782736273213e-01
2.109414578718574185e-01
2.148118331125862812e-01
2.238837364633658733e-01
2.379517392765908845e-01
2.511110184463920536e-01
2.241557217831479376e-01
2.024972104078443247e-01
2.823091896748982088e-01
2.165274920093264999e-01
2.862509217781852300e-01
3.434472021378321971e-01
3.288554552601503089e-01
3.751335937114714802e-01
4.358011336667119706e-01
4.126881599763973507e-01
4.678829096266319820e-01
5.485837348875831632e-01
6.236760883645960929e-01
6.411738277493557181e-01
7.341807987105852806e-01
8.605151281309166844e-01
9.063876914086829162e-01
9.776477449012045406e-01
1.053705817112870591e+00
1.112713620612349130e+00
1.158668419280140194e+00
1.231122372757380345e+00
1.338925308370768175e+00
1.369705050369658395e+00
1.394664124151347773e+00
1.393824276174593590e+00
1.455619241597206237e+00
1.442520095996988605e+00
1.421877865921038708e+00
1.452806061615043332e+00
1.345552126029017526e+00
1.294923237213983391e+00
1.287276237638883325e+00
1.222563965545175435e+00
1.112200009100565934e+00
