1.394084703958853755e+00
1.349316709561925842e+00
1.357656572975527887e+00
1.309474872621297026e+00
1.215213581777600416e+00
1.212361122373282640e+00
1.136440101096654276e+00
1.040755889275703172e+00
9.715061090189290871e-01
9.879955194557463738e-01
8.737966032830408736e-01
8.224257509473076322e-01
7.209079600707453128e-01
7.134968324453782040e-01
5.615594729885234893e-01
5.170798800516113181e-01
4.432166376835201538e-01
4.356049127212173744e-01
3.531576309235536781e-01
3.327606081362359802e-01
2.877110077024054857e-01
2.673764417218785772e-01
3.026572230269880537e-01
2.106046847259847588e-01
2.656803315093682061e-01
2.201395997231670176e-01
2.065865708363592845e-01
2.176019023071437686e-01
1.982281568473434341e-01
2.591824373866635223e-01
2.066428663088888673e-01
1.777160268162541190e-01
1.669948315039588294e-01
1.587345661736036528e-01
2.299570016729617916e-01
1.859287021846221521e-01
1.787848147278286726e-01
2.411048210779940804e-01
2.455209450155744211e-01
1.915012151363836845e-01
2.734674130640072920e-01
2.473582825091533988e-01
2.285832737100557399e-01
2.370193351115971458e-01
2.452469546142245771e-01
2.202931828099031208e-01
2.733957649651828636e-01
2.249571446809804920e-01
3.097401196099963672e-01
2.596527318348140767e-01
3.249438720651323109e-01
2.692537609385892705e-01
2.773958316677812008e-01
2.681571694561325492e-01
3.595538625522269882e-01
2.421651764995410017e-01
3.034308830395024970e-01
2.789097535441847353e-01
2.986473693157411513e-01
2.584585348441338915e-01
3.088157319572355508e-01
2.931590189593780149e-01
3.568034154078872366e-01
2.383201239494628920e-01
3.112211438904761707e-01
2.766692418334166792e-01
3.498472963123975821e-01
3.343453984582619443e-01
2.508488845852522298e-01
2.868517312689145005e-01
2.959095574119575689e-01
2.650899385776055994e-01
2.473457225677784810e-01
3.251411882514361196e-01
2.876355488543811956e-01
2.930853290430359692e-01
2.746775836116535086e-01
2.035156207672879913e-01
2.411719800644580580e-01
2.566100370522029217e-01
2.748720044569808452e-01
2.914638998750732068e-01
2.783283515896432525e-01
2.488032591727405984e-01
1.782328080799435999e-01
1.976401017307973240e-01
2.762529364724198300e-01
1.993714826048711419e-01
2.011434737040843912e-01
1.475359137967288403e-01
2.300504897938288884e-01
2.087529178322884982e-01
2.327864372947059113e-01
1.751891211114558478e-01
9.464196161128379803e-02
1.552712707717308349e-01
1.212517394242633717e-01
1.550415839698081610e-01
1.672840956728904038e-01
1.774138675481950200e-01
1.449022863885826851e-01
1.417217497657801695e-01
2.028407911478412040e-01
1.334809190466759998e-01
1.206934607249126878e-01
1.652257547614992550e-01
1.070381675978255565e-01
1.481542475124082159e-01
1.208640737560722489e-01
6.007521392512876757e-02
1.480188642868995874e-01
5.102202522883975827e-02
1.052689065817388747e-01
8.090038652727066237e-02
7.146664402995162035e-02
8.810873531369305123e-02
8.875003170161915866e-02
1.092792883059441333e-01
1.433460292574365580e-01
9.797906863466041005e-02
4.759294771873795460e-02
9.985582772630116621e-02
6.935416486641100831e-02
4.255083488864522256e-02
3.759935895377258808e-02
7.435686875831885867e-02
5.845226241587411775e-02
7.062498613888146259e-02
6.722126510660780818e-02
5.430523390836013153e-02
1.729926047153883262e-02
1.221647561020872130e-02
2.312144182703857256e-02
3.762829496027575438e-02
1.227755623174751551e-02
4.975404467494834448e-02
1.267890857595478926e-01
3.057621756402779944e-02
2.664988738755272660e-02
4.256330669404663480e-02
4.601056701767267804e-02
8.525199950349496292e-02
1.059426315592639778e-01
6.238557964959845492e-02
3.039455165790932306e-02
1.778568775871182395e-02
7.802926889724604020e-02
7.631894102786279666e-02
7.902014083272013156e-02
-2.615959290128460485e-02
4.851346250726763787e-02
9.998608617623844230e-02
6.907224591892591192e-02
3.972019567835875092e-02
5.335354758769048078e-02
6.192847203921818255e-02
1.734001141983712579e-02
7.951280419863218651e-02
6.071238928741727603e-02
1.297749462563053680e-01
1.042074752709810093e-01
9.050284912689390837e-02
7.664906477227800830e-02
1.189840898889180376e-01
1.398866291615170343e-01
9.934181684955492586e-02
1.105320387406097671e-01
9.974866124787162835e-02
1.466600109881059655e-01
1.383626840607996011e-01
1.342042271007732879e-01
1.674761534009475139e-01
1.416354273351372872e-01
1.760267079269266510e-01
1.374389124587749589e-01
1.487336021283777177e-01
1.809745726225846507e-01
1.603199780603568603e-01
1.369734561899642045e-01
1.712306816911022267e-01
1.480164084993930151e-01
1.585131717124102224e-01
1.969698126443897301e-01
2.161796734919697593e-01
2.158247564613311187e-01
2.046153129604300625e-01
1.937146494611187708e-01
1.532888205643700985e-01
1.934893770361330312e-01
2.218209173702823944e-01
1.701046665225280086e-01
2.145505200862484196e-01
2.054922490962844961e-01
2.135088105685752913e-01
1.753691742114681928e-01
1.795157416601912970e-01
2.057333546284465520e-01
1.534924384293267496e-01
2.121832331371323599e-01
1.849404848857081618e-01
2.118751067532154420e-01
2.597284751550476001e-01
2.526485893244758141e-01
3.099267394065602366e-01
3.826231124177585929e-01
4.276311444513035687e-01
4.644545540057322119e-01
5.123610971843761686e-01
6.000734791350336161e-01
6.468398207932414268e-01
6.873289481231363851e-01
7.875698753585530509e-01
8.533957273911164654e-01
9.517567387696203030e-01
1.056428711817534394e+00
1.045326074398482241e+00
1.165309763150949918e+00
1.215833528013404274e+00
1.218616507032842522e+00
1.284789437231107279e+00
1.288269226312750648e+00
1.300892049432341491e+00
1.356462933027111628e+00
1.322510546930687036e+00
1.341266020832497130e+00
1.174900764375034656e+00
1.224345281358035553e+00
1.194372772476119060e+00
1.076700511474755650e+00
1.006168336752151005e+00
9.742681126480225995e-01
8.878519316650840265e-01
8.481951501825453210e-01
7.821104706937334061e-01
6.960436712223360134e-01
5.921298689452482167e-01
5.451940592174939759e-01
4.973297034404854378e-01
3.753918222438706875e-01
3.960210658593067978e-01
3.373193426860641164e-01
3.012386794317116756e-01
2.671276882540326580e-01
2.594727441079023866e-01
1.790769712339956299e-01
2.213833029428469990e-01
2.497673475267085663e-01
2.050648567883504303e-01
1.598683602497310008e-01
1.439474223563880217e-01
1.543958637584713911e-01
1.638501431272344211e-01
2.237786763464952589e-01
1.629050102713406889e-01
1.499507783644787318e-01
1.332177712656766044e-01
1.967001584035028838e-01
1.300786098797692414e-01
1.632812682210889876e-01
1.607955799689426701e-01
1.724967155809273844e-01
1.877013476290786131e-01
1.842673639805992580e-01
1.766435466435986867e-01
1.942698955250156401e-01
1.566862432574897268e-01
1.945641205047415612e-01
2.608750088332685291e-01
1.991202858956144794e-01
2.808475710803963188e-01
2.752123041865988107e-01
1.817584402608237448e-01
2.170245930168216153e-01
2.309929567369382875e-01
2.596983926767967299e-01
2.450040898673919720e-01
2.692963022300435272e-01
2.506119119872526335e-01
2.660821473370114654e-01
2.409524290129108348e-01
1.857094515979992033e-01
2.391448177269864250e-01
2.421544410031751249e-01
2.216072489440064353e-01
2.640768094567638169e-01
2.660219550226448071e-01
2.135878348762840773e-01
1.978579804636425299e-01
2.469430342109897314e-01
2.647704491720992426e-01
2.233211339326011402e-01
2.529038639213734285e-01
2.936543056164742094e-01
2.073156108842236778e-01
1.951776221218606833e-01
2.267711200103356417e-01
1.816640250427886683e-01
2.660399606267545569e-01
2.752668286836945089e-01
1.703131348547638757e-01
1.609701664779894237e-01
1.829899432661135639e-01
2.196461372411263602e-01
1.909299790413746534e-01
2.255096962487712076e-01
1.282413939527529412e-01
1.681947120170603494e-01
1.494063794337330831e-01
2.361056763810917003e-01
1.949638133060024592e-01
1.079156382470080472e-01
1.896626000553577607e-01
1.765809090514904311e-01
1.586833117433121554e-01
1.261526215936066009e-01
1.632487093826978652e-01
8.534652675642569186e-02
1.172406676521944580e-01
1.293877088062669600e-01
9.074328736850581500e-02
1.398184902906903782e-01
1.556451061335405173e-01
1.187001580013911789e-01
1.006309460057196598e-01
1.204014973466654287e-01
6.206863666609886698e-02
8.075521237088623128e-02
1.003860445782809724e-01
1.230281326732266811e-01
8.990082614894517876e-02
1.347778095841890289e-01
5.645219258511555149e-02
1.149434183473625401e-02
-3.212356578965661416e-03
-8.179147223036115077e-03
9.490581008794421458e-02
-2.529449167413156535e-02
7.382540415242536125e-02
1.693841591456894669e-02
5.304980897435578047e-02
-9.881678407367963657e-03
3.252251916625332334e-02
5.684232394830195101e-02
8.318898192994578222e-02
-1.801396791235393424e-02
6.080026212211578698e-03
3.579133523285274454e-02
2.330171136443389898e-02
1.732752640298237598e-02
4.609916926053097413e-03
1.730612364437346395e-02
3.756605086574570790e-02
1.736952123331955006e-02
1.151367436602230773e-02
-1.381563294632919686e-02
3.292848887369621835e-02
4.513504903386409556e-02
-4.217961006283067749e-02
1.227558734048036018e-02
1.942774658001679422e-02
2.464682769434284326e-02
-2.940170468459367414e-02
2.482450062121444728e-02
6.429539736783129733e-02
3.652102810477973749e-02
4.032320279422654807e-02
-1.231958178735427512e-03
6.950899868602908316e-03
2.198765925044536898e-02
-5.106651559369574517e-02
2.227901561700641742e-03
1.612392275653759532e-02
3.962039209201183299e-02
4.795913756717748444e-02
4.073172901974373566e-03
1.337164559582441209e-03
-1.877217933703021618e-03
5.989278231056249097e-02
1.941898054943500332e-02
1.280472651928911965e-01
7.451722468675162081e-02
3.844543287387094943e-02
2.841079217971211740e-02
8.651810234727676241e-02
7.747072787922132386e-02
7.771911317207268188e-02
4.236806237731396280e-02
4.561762651237181998e-02
3.474109068765916103e-02
1.018661356625674835e-01
7.655781635429977083e-02
7.131146964988779868e-02
8.551163045458289036e-02
6.215406850951551987e-02
9.084136173237948586e-02
1.535359370337259222e-01
1.013713512850400178e-01
9.499267030766481157e-02
1.196066726890121085e-01
1.213558910653780715e-01
8.253674084088918894e-02
1.282805362330733667e-01
1.490326693006052139e-01
1.101715864837559539e-01
7.965845363333860785e-02
1.269879325930491909e-01
1.569127575765899008e-01
1.110066614984834138e-01
1.457810094762923558e-01
1.203332879251819698e-01
1.511146005946890636e-01
1.381668542277125766e-01
1.178776482644047496e-01
1.213235753480876589e-01
1.509294148537082825e-01
1.393456362178894514e-01
9.815831486357343150e-02
1.709858654042711312e-01
6.117030200986797034e-02
1.327247271236191017e-01
2.090222359473647429e-01
2.538407874535320574e-01
2.459254187721361673e-01
2.311526048082395701e-01
2.995089752548871775e-01
2.698557914132896363e-01
3.359368466546260867e-01
3.666623696775833108e-01
3.465467767227035090e-01
4.889788383806445982e-01
5.386455941782667400e-01
6.221501125277897337e-01
7.014757624624518018e-01
7.581780300530774896e-01
8.457822289309102626e-01
8.811848997530620231e-01
9.587420276348413983e-01
9.673497227582420477e-01
1.090145976226095659e+00
1.138012107074560575e+00
1.193001001612300493e+00
1.215752565098690674e+00
1.269198813313613172e+00
1.301681164324214324e+00
1.288204800868075317e+00
1.286120538655394219e+00
1.256808134045618086e+00
1.208851800104700169e+00
1.141504558040234540e+00
1.119346154057797804e+00
1.080419918805006985e+00
9.424386859822758700e-01
9.408005001860711980e-01
9.031438005686451831e-01
7.922387400572877825e-01
6.871392555830370119e-01
6.459588791132138130e-01
6.065316921253349758e-01
4.552516157122180607e-01
4.168706736003661151e-01
3.579470610154913413e-01
3.395964911727015756e-01
2.844298187604650252e-01
2.428790301403621343e-01
1.985649049353327422e-01
1.826983195623551881e-01
1.457020711409058866e-01
1.375970966335979262e-01
1.700278289624278794e-01
1.644181911061338153e-01
1.299622738301451641e-01
1.003955373593497236e-01
1.453378290508233195e-01
8.687709759858694425e-02
1.193736608177344005e-01
1.138218253284269954e-01
1.153684095743649773e-01
1.093366342440748040e-01
9.599248100113508264e-02
1.303460062733539648e-01
1.756057809328421260e-01
1.832401624179136879e-01
1.290245132559015018e-01
1.280437219467250864e-01
1.506719056992795736e-01
1.106794414811813343e-01
1.486485005383446356e-01
2.090698385209985855e-01
1.669038196784721206e-01
1.689763508389415247e-01
2.046935589881361262e-01
1.528701889421763271e-01
1.841827537939650927e-01
2.317785422888472280e-01
2.247772996608349283e-01
2.032136069918772936e-01
1.969211289040347090e-01
1.679589764622542725e-01
1.913804925069461094e-01
1.961537942127009049e-01
1.974732719190159802e-01
2.156455654584101544e-01
1.742167849825521642e-01
2.177837124745275466e-01
1.870337684365049880e-01
2.446394207384956498e-01
1.776696348139076287e-01
1.980073220202390738e-01
1.957377168393830136e-01
2.040640828382323801e-01
2.210036633965711816e-01
1.885305762238404514e-01
2.124536548660622692e-01
1.713157963687725605e-01
1.699628681256903084e-01
1.981250665599717242e-01
1.852031824529793702e-01
2.140663020238306180e-01
1.432936224747891341e-01
1.888321858912929418e-01
2.079326818213749206e-01
2.008295880729283611e-01
1.433978896676261217e-01
1.461370334550471384e-01
1.755460605197290136e-01
1.071045637273304041e-01
1.457425903475347284e-01
2.039910379829321663e-01
1.604009279389786990e-01
1.608936488697885470e-01
1.433008110463658280e-01
1.125171597071356749e-01
1.218425975289582353e-01
1.430617207557431103e-01
1.442720232585102125e-01
1.213341940052681811e-01
1.339225602999131459e-01
1.070199261088849441e-01
8.898521729934297242e-02
8.628250467195419660e-02
1.102526863907407062e-01
8.176692856341968851e-02
9.984350008401521315e-02
3.759777999774172041e-02
5.333561694777196049e-02
7.417237102310969554e-02
2.724813106793648465e-02
5.152683812151143128e-02
8.123145812562168611e-02
4.182330794053893547e-02
9.543827989398612210e-02
6.113931232682465883e-02
4.103770190186058209e-02
8.357671232678970386e-02
3.075704344607674279e-03
1.211721173012343666e-02
-5.103472988131890764e-02
-2.746196371875217479e-03
-4.609083462839950324e-02
3.287397519730050205e-02
-5.392223972504484736e-02
9.381726418280840474e-03
-4.472862690866605262e-02
7.180749401038549751e-03
2.280097511282131589e-02
3.224130694230394750e-02
-6.274395686023875873e-02
-1.331037074890718819e-02
-3.182695337512633782e-02
-2.791077401656586951e-02
-5.348360752399962392e-02
-2.045107230203572005e-02
-2.169285938668542163e-02
-4.624169372143630691e-02
2.545393013344208338e-02
-2.489891678659637148e-02
-1.426832099284714578e-02
-3.022531593240997475e-02
-6.460471583104983317e-02
-2.861436571873076512e-02
-6.113538443836986913e-02
-4.372933384135490459e-02
-4.929576196074596933e-02
-3.109938552838631409e-02
2.358479526038056995e-02
-3.339396443380895918e-02
-5.385822536788752168e-02
-1.066146569100579339e-01
-8.201642521034169242e-02
-6.827052253675716664e-02
2.936915955231732267e-02
4.392096578603510437e-03
-4.921631478010408262e-02
1.047752877071068262e-02
-3.625943016041427436e-02
-7.728030773464837633e-03
-2.083741969353799725e-02
-6.979140397848487831e-02
-6.060770544970869866e-02
-3.394771211999055016e-03
9.598642518778011112e-05
3.299961680317520935e-02
5.191629708781581726e-02
9.651811641456300994e-03
4.263080795136005297e-02
-6.566376686903338533e-04
3.543971719131729786e-02
1.765411908733144353e-02
7.051245496405314506e-02
8.131722954877518283e-02
6.178672595138991197e-02
3.532118698322965489e-02
6.829920065669589646e-02
1.206416797038142863e-01
1.218082926662928112e-01
4.738370605372133754e-02
8.938337072597198063e-02
9.760955123289075108e-02
8.423468059150451825e-02
7.543318591361554415e-02
1.006163771546196156e-01
1.615012013260928303e-01
1.272205470351824574e-01
1.216801840514395439e-01
8.411521666736523906e-02
9.053824184311157208e-02
1.004011718269346987e-01
9.028739373761586473e-02
5.726813913186618726e-02
4.621347441996636468e-02
1.444939919025989283e-01
8.242716899123889163e-02
1.561734290250332835e-01
6.689958868217693588e-02
1.584710904203511517e-01
1.489287583060169284e-01
9.516320888772383801e-02
1.457431039952326590e-01
1.444196183214341844e-01
1.454185947684292768e-01
1.183439850062369819e-01
1.698624896565796571e-01
1.311360771920419832e-01
2.333220351305383689e-01
2.683077926789279588e-01
2.116095652171180452e-01
2.424897219075137778e-01
2.751978074981547007e-01
2.841093001498727344e-01
3.777847424864604342e-01
4.385585213137208616e-01
4.386490787289660798e-01
5.371383318550200237e-01
5.933121109078158817e-01
6.410117691914920535e-01
7.167395140624750471e-01
8.350574376204384919e-01
9.227228837154691776e-01
9.446938970764968690e-01
1.052410202026114350e+00
1.073971377070101596e+00
1.162631785463647205e+00
1.152132552281890376e+00
1.240119379830045165e+00
1.285792148095717957e+00
1.246275436412244586e+00
1.230154415996281614e+00
1.274190843064491929e+00
1.255970772299780380e+00
1.145494128158782265e+00
1.100723303964094013e+00
1.085262134827199354e+00
1.065525971348995293e+00
9.277753798742583990e-01
9.365016050836562078e-01
8.609009208963104287e-01
7.263467923492940015e-01
6.913148594704991989e-01
6.275106870447096918e-01
5.535044481618444090e-01
5.060835987625754706e-01
4.204076911345684398e-01
4.290055080433126666e-01
3.220822640520740188e-01
2.537987346890606677e-01
2.128341204096335926e-01
2.432977956420460386e-01
1.670912155958725887e-01
1.757560291514489448e-01
1.428344146489571864e-01
1.227450769091217586e-01
8.276748662669819456e-02
8.926456263181256623e-02
8.699529280975039358e-02
1.175516410338932893e-01
7.441120728445682619e-02
7.116121338238121097e-02
1.263066316379901355e-01
8.606764995984614308e-02
6.252167770973729444e-02
1.512771879912115369e-01
1.293661061485244790e-01
1.344226318773955042e-01
1.268629959013378716e-01
1.176813040539903543e-01
1.049429061483543452e-01
1.562912273462392088e-01
1.719589632355632003e-01
1.405807871742143500e-01
1.756359591098018980e-01
1.145548672187329114e-01
1.700196893414114840e-01
1.865532417371369434e-01
1.902115947648610750e-01
1.850330462219097194e-01
1.722773220844181497e-01
2.332173226682294487e-01
2.017535926339345531e-01
2.155270116470997532e-01
2.050733511232762374e-01
1.635743321232335235e-01
2.167930974110845455e-01
2.346564723007011355e-01
1.940090709926227674e-01
1.987643084833487506e-01
2.292645325923830246e-01
2.347401298409120818e-01
2.166863316178287979e-01
2.196397654660201537e-01
1.856073089327622827e-01
2.027635033920959506e-01
2.225876690362370847e-01
1.921267088417935587e-01
1.793483002553327710e-01
2.348281719649957522e-01
2.001571274953770907e-01
2.216232624304531607e-01
1.968147366998003467e-01
1.748845638513159551e-01
2.143114770477995701e-01
1.662894591251731502e-01
2.268797983133874763e-01
1.863674638252547089e-01
1.874879375151410343e-01
1.596467552656384292e-01
1.830576554279340074e-01
1.890326503060147378e-01
1.941538694496804662e-01
1.040557616562046844e-01
1.867669145998620550e-01
1.627208600524220894e-01
1.988683982208414858e-01
1.690943765746386329e-01
1.453875590403831963e-01
1.595135368019496569e-01
1.777491316580883940e-01
1.017802970934016116e-01
1.505273755002470293e-01
1.068398604025695559e-01
1.461068819024460841e-01
1.196184859841028236e-01
8.625609917402035642e-02
1.140001095998707525e-01
8.855002555861810065e-02
6.357429100947356582e-02
3.046509709295443236e-02
8.493885871646336683e-02
5.887759644790785396e-02
5.748430718611517026e-02
7.523355769508979773e-02
1.891568920422544847e-02
5.508376655803121774e-02
3.491574332765781663e-02
7.547210518094887854e-02
3.263239003323377407e-02
6.329472000405397814e-02
5.447478038128061861e-03
-1.525331697757303928e-02
4.341143547349275017e-02
5.035394685243059498e-02
-1.827835239942137563e-02
1.401965863707212850e-02
-7.429786659164376583e-03
-1.873017215463040203e-02
7.049583697953931694e-02
3.808686607226795251e-03
-2.218338051761474528e-02
2.757988528080452043e-02
3.477584193695032466e-02
-1.379832484804719914e-02
4.609611664086765703e-02
3.192157760706033909e-03
-2.032049840476274349e-02
-2.415926494852543502e-02
7.902756985941210982e-03
5.764447772514610935e-02
1.688133208911604330e-02
-2.325251452948329245e-02
-2.087927425628296335e-02
-1.476582363212842336e-03
-1.658743483794034371e-02
-3.542291217543451498e-03
1.689522060227977712e-02
-4.003112766359595565e-02
-2.592328773285255614e-02
4.800226457426781668e-03
9.795697679395948265e-03
2.842508612572845761e-02
-8.558263580659392078e-03
-1.896439937223466654e-02
6.589279508198017665e-02
-1.937110734615425656e-02
-1.994862058573553323e-02
2.757048255044614385e-02
3.692119252417198211e-02
3.640805254933673907e-02
-4.120450967464914932e-03
5.900790682034463136e-02
6.729134897992489206e-02
1.467137060279123315e-02
-2.136442813897371229e-02
5.760755619055087789e-03
8.056361065767424223e-03
7.799695185156702015e-02
-6.432003362576314831e-03
5.751972732073531991e-02
5.897473741799677538e-02
4.936310845323581276e-02
1.123432007445121922e-01
5.760588103124622550e-02
6.687044486964817402e-02
6.921421213407479012e-02
1.193071351829441823e-01
1.122355529900511545e-01
1.570468910717970901e-01
1.155022312263054990e-01
9.795034442440869737e-02
1.023774376789569757e-01
1.546515611997633655e-01
1.210380788848295364e-01
8.654401137529194044e-02
1.181576660427239300e-01
1.030140842208978474e-01
1.599831092045176928e-01
7.814738556999778485e-02
1.305418705162664783e-01
1.853842470869985215e-01
1.502928529368893207e-01
1.730459188783539382e-01
1.470022100127144349e-01
1.269634136369806598e-01
1.117589335840061676e-01
1.290298485924973870e-01
1.697276600592758089e-01
1.553246093781759651e-01
1.673735475328345657e-01
1.258709816732174747e-01
1.412091497969522880e-01
1.545993598885016529e-01
1.416353417427221040e-01
1.480458931293401614e-01
1.905255898625016209e-01
9.727907346716757608e-02
2.077985022947352323e-01
1.772553196732215564e-01
2.338305044600746674e-01
2.018111871178858430e-01
2.438350608729450975e-01
2.976069678888668135e-01
3.573098321922909548e-01
3.321406165160088464e-01
4.340243489062977078e-01
4.556342720520428768e-01
4.700290501861960069e-01
5.840018051410759137e-01
6.121097939729083226e-01
7.314908208511078369e-01
7.860904719706250932e-01
9.038545935669288767e-01
9.426028375616286592e-01
1.012221218272572498e+00
1.057979891547091045e+00
1.132891967675763167e+00
1.194512710431915758e+00
1.211262647799476344e+00
1.309264686209562267e+00
1.273371629553107454e+00
1.334852394286109689e+00
1.276179265861019818e+00
1.286253409304437101e+00
1.289184731245857973e+00
1.250510556526530648e+00
1.195940885317723579e+00
1.109505703627076789e+00
1.091514300655577197e+00
1.023286361873283701e+00
9.159931235547470463e-01
8.634509018886838971e-01
7.529103549723371591e-01
6.991195679017790932e-01
7.121756543927205696e-01
5.408337222015364709e-01
5.262882146223464286e-01
4.376969201573818191e-01
4.236582135895785028e-01
3.728372645999836754e-01
3.632036085445490281e-01
2.486390780192090644e-01
3.426428998478054933e-01
1.614913341771540833e-01
1.888582383886852067e-01
2.919586993393871732e-01
1.610291724374696420e-01
1.180964453726092156e-01
1.726855558994021822e-01
1.415577224151305102e-01
1.514373632481434695e-01
1.404703283756569554e-01
1.928898199360600252e-01
1.417511037112385575e-01
1.581933788753660253e-01
1.715970523311665108e-01
1.264865138699387825e-01
1.287878705499974075e-01
2.019955941210709593e-01
1.895380805588744444e-01
2.156202663259912666e-01
1.882770192985131208e-01
2.305528071108068067e-01
2.106738948488773855e-01
2.030413277750330037e-01
2.169451320169057118e-01
1.195519908518977159e-01
1.961181319665859790e-01
2.022222416367048803e-01
2.294673904745535842e-01
2.290704836275746781e-01
2.143545536172345722e-01
2.153355351436151144e-01
2.160091753481637178e-01
2.227380269400411339e-01
3.421063811395418375e-01
2.451338533473569337e-01
2.633013002852064299e-01
2.620182118146536787e-01
2.947711988010299211e-01
2.603566655361495008e-01
2.328004560773556664e-01
2.518702903871258281e-01
2.218910787724221179e-01
2.780443200822986793e-01
3.102948375131773795e-01
2.507804380861072824e-01
2.553377917410874498e-01
2.735195349923776886e-01
2.376905130442389935e-01
2.055040587310008326e-01
2.439317789490505206e-01
2.158013689005231495e-01
2.913381280459207412e-01
2.515022338465805474e-01
2.357363182612834118e-01
3.075641700530868938e-01
2.169728923079714544e-01
2.844946777753326606e-01
2.553969517056238203e-01
2.462465780312373675e-01
2.774156152505829476e-01
2.291932982838473798e-01
1.728515688076279755e-01
1.987119788735083048e-01
2.260022866763077565e-01
2.092862576101029992e-01
2.244682919626104500e-01
1.730833004334867420e-01
2.172388419990320951e-01
1.843459783280435860e-01
1.965379256402698116e-01
1.936502576101458706e-01
1.481024814963830261e-01
1.352316235895669738e-01
2.188066921194715686e-01
1.996379986804936446e-01
1.067498432495036648e-01
1.376727410459522571e-01
1.381478742033689089e-01
1.083725513951557112e-01
1.322803800082420211e-01
1.762085256407721345e-01
1.302839348148118748e-01
7.606361257587855584e-02
1.230204780649940682e-01
1.135745976647469652e-01
1.232892268398069063e-01
9.654106137777071495e-02
1.681140188577672501e-01
7.584293170757878955e-02
1.157395133492427203e-01
5.491211927648179808e-02
7.108815324146380843e-02
8.636149649171109832e-02
1.148848792602478186e-01
1.157080198659847098e-01
6.539501890046690857e-02
4.426577030190700923e-02
3.972891904775724403e-02
8.957614852145201478e-02
8.233151154479718958e-02
8.206844851521204187e-02
2.063880379841529986e-02
1.904816079517196101e-02
3.601890981602672015e-02
7.822901920220068361e-02
5.774650063957020157e-02
1.259195925263847937e-02
7.919762519043874183e-02
5.840182213561537217e-02
5.520131269152618592e-02
7.102407706522741171e-02
6.451666044920843085e-03
4.631703899688151965e-02
8.793975576801517369e-02
8.244974474223169814e-02
3.484768414239040879e-02
2.508730285053388173e-02
3.606699217569607485e-02
3.447401347291076390e-02
4.897603093112554151e-02
1.386557406188195507e-01
5.079403426687220668e-02
7.774310234563405753e-02
8.827384375638119840e-02
4.375766798560433435e-02
4.705373765896569971e-02
7.626074033947154163e-03
8.206953948552653255e-02
6.195229617506764486e-04
3.864327403590123167e-02
8.367386390326991830e-02
8.457888330769089413e-02
8.027200506394308044e-02
3.789859112070896596e-02
9.107283044592190402e-02
1.170567912699564533e-01
9.260401197614773205e-02
3.572623523469358603e-02
1.215510576764025630e-01
1.168272439603008500e-01
1.140265789782816813e-01
7.473607620641226079e-02
1.221055713257873931e-01
1.370979052119225827e-01
1.452160811880899294e-01
1.167356045713511953e-01
1.480986537257016900e-01
1.397845334211874069e-01
1.454534376913990124e-01
1.742321065311299155e-01
1.452953917211124990e-01
1.243397703192670178e-01
1.283433846750574869e-01
1.460045561521772783e-01
1.681609835365697470e-01
1.830799258159930554e-01
1.925542922380087119e-01
1.536780272953814641e-01
1.331842617535377860e-01
1.503289483249213021e-01
1.635903704276625570e-01
2.593773070295197214e-01
2.504686294368262400e-01
2.119514024684605591e-01
2.066990943362796151e-01
1.995721715949964892e-01
1.789811850617851197e-01
2.303103628375413603e-01
2.034439415991607381e-01
2.216861996609043040e-01
1.453793276970526405e-01
1.689678132890937434e-01
1.232427646574629221e-01
2.411102202604312184e-01
2.248880847272475836e-01
2.013725708021356087e-01
2.562074787781563057e-01
2.199757061437796202e-01
2.932309952449859702e-01
2.867285751837003183e-01
2.835299326491021454e-01
3.097270114569609101e-01
3.236039745969852000e-01
3.991473245709421525e-01
4.090823087757164966e-01
4.765123105311396268e-01
4.854418757964910625e-01
6.107575524026545022e-01
6.738050955258587660e-01
6.794733544714615103e-01
8.151609178134127109e-01
8.066136544489341809e-01
8.842648267169904708e-01
9.974761768438012988e-01
1.053626822395008045e+00
1.149402198294365629e+00
1.188944880161350470e+00
1.219164027361896219e+00
1.289978105655601670e+00
1.250353425521320894e+00
1.392879435065647709e+00
1.384245336925395309e+00
1.394829442780608053e+00
1.292590307265489624e+00
1.281992739365981793e+00
1.306817938939329959e+00
1.170241732922230771e+00
1.157505917629696457e+00
1.110889190886527489e+00
1.102926464602059786e+00
9.948744263564486268e-01
8.991466489770388870e-01
8.462468537381080402e-01
7.211729415811252153e-01
6.625837470792926842e-01
6.628129325767930791e-01
5.318037354480396051e-01
5.335098483909382905e-01
4.384036601011788159e-01
4.381026091752003859e-01
2.890665316604099089e-01
2.813546448227339791e-01
3.816439087538900377e-01
2.551045413150003216e-01
2.089283707719280236e-01
2.083058985929182871e-01
1.974590290542832804e-01
2.205351484476430479e-01
2.078289596813881757e-01
1.810501123669091550e-01
1.835594694495461809e-01
1.999240927684891034e-01
1.725237770678531568e-01
1.438050687900450930e-01
2.251768665147879656e-01
2.446056928038672085e-01
2.188408714803901645e-01
2.220505391521771510e-01
2.708854702105836787e-01
2.293721784995534085e-01
2.584736190632231922e-01
2.637586268937657241e-01
2.107584621684306381e-01
2.707844761314740500e-01
2.528169737294252428e-01
2.996957285447373609e-01
2.504969688027373076e-01
2.411230502697214451e-01
2.397100887006174408e-01
2.935336139836440261e-01
3.394095105676318003e-01
2.878036031430457609e-01
2.938055393543470561e-01
3.367215543201534933e-01
2.383165104229431341e-01
2.938495625350858731e-01
3.288065864003768546e-01
2.854288781471257530e-01
2.789895614847607286e-01
2.948142207739700704e-01
3.135887937299593475e-01
3.207335581256398616e-01
3.235230429022344922e-01
2.665514837828598105e-01
2.732211569200837520e-01
3.232541429465920491e-01
2.706614433683903753e-01
3.474754330423306392e-01
2.690262243956817456e-01
3.075064675440305484e-01
3.288295423349051894e-01
2.972730227129221636e-01
2.824195453135674438e-01
2.983619052992371734e-01
2.524953795032829906e-01
3.421062067977383991e-01
2.753507516862452320e-01
2.351593222868232358e-01
3.276531406688286685e-01
2.548845423232457552e-01
2.218367860796910396e-01
2.081726905295208929e-01
2.525450960929316313e-01
2.548994454520189246e-01
1.660170324697791411e-01
2.197205600515023671e-01
2.239105115544448577e-01
2.341814214079708245e-01
2.594647266836262456e-01
1.984765490329772064e-01
2.382708887514491669e-01
1.790358104993896304e-01
2.110697241678665681e-01
2.646615843107768540e-01
2.158651796287591185e-01
1.864684428410138817e-01
1.672192558092021053e-01
1.763934341170949605e-01
2.047563803067810606e-01
1.876011109710804259e-01
1.059169292456791645e-01
1.739297061800026134e-01
1.860916300107674504e-01
1.350768380916180234e-01
2.303220760181873827e-01
1.987416180638022778e-01
1.746175035207424286e-01
1.176764041851662695e-01
1.617881660028552271e-01
1.353975002861096955e-01
1.043402595700040625e-01
1.230028393367701423e-01
8.956807606740638250e-02
4.955675255784929706e-02
6.598481554445928543e-02
1.158267758323431040e-01
9.705166663210701428e-02
1.405883605868711306e-01
1.356743743630756394e-01
8.519921227794308161e-02
8.439708971415968430e-02
1.524599829414311214e-01
8.183369429572909248e-02
1.077723780808301224e-01
3.544076200158599588e-02
9.165875922330456171e-02
1.424871868938381442e-02
7.172350408275285361e-02
4.723499396179281495e-02
9.647801495578600672e-02
1.441592814202971307e-01
2.645119541419882481e-02
8.143813550837417092e-02
1.047406629766123864e-01
1.009279779054532700e-01
1.111961205359160709e-01
6.012940945843733842e-02
6.366954002110970789e-02
8.479053646892981133e-02
6.223395480688107689e-02
6.754128773717338330e-02
5.078055758044612567e-02
8.521538299930300764e-02
3.502885072907389180e-02
4.894173180041139215e-02
8.529941064590301769e-02
9.122848072230890781e-02
4.869501702365582052e-02
1.731902631796012892e-01
5.737766603659594233e-02
1.522569323133322050e-01
9.540772042467246528e-02
9.839653842017730134e-02
9.511791816505771324e-02
9.883548079396074770e-02
1.262321467768522665e-01
1.394236202403320579e-01
1.209205159553554954e-01
1.328685813922693693e-01
9.994515130846033657e-02
9.733267353873617522e-02
1.131273201502773773e-01
1.022090766926891936e-01
8.075754780694022195e-02
1.288076980223571699e-01
9.436007703036916605e-02
1.138992452809474143e-01
1.556630535252001291e-01
2.107107401682265790e-01
1.473088918440035033e-01
1.798637214871905421e-01
1.971468547144718253e-01
1.833895345744380456e-01
1.141604607199175059e-01
1.340459952280632361e-01
1.170587100102626343e-01
2.009468158116682612e-01
1.746844251108903567e-01
1.527108939812988342e-01
1.939459856069207788e-01
2.114466108252044674e-01
1.913212412761646219e-01
2.398265728564294985e-01
1.744348414946414738e-01
2.252004773972044460e-01
2.031342910326852103e-01
2.074471610066064287e-01
2.097210743421087376e-01
2.510074444023988605e-01
2.422745881559094372e-01
1.573246863277049934e-01
2.278918990455586213e-01
1.938721494225414399e-01
2.223309002860441030e-01
2.150703525095767621e-01
2.064122634433652181e-01
2.352996892594345080e-01
2.152189360615167080e-01
2.383003337524040033e-01
2.734012007490096985e-01
2.521417554572996655e-01
2.536238113249584258e-01
2.621250361805643747e-01
3.094664251792790255e-01
3.397402489042521401e-01
3.446603423886588913e-01
4.536702826008471301e-01
4.336525182384717292e-01
5.069904208731725870e-01
6.105869153404978045e-01
7.168923663042574557e-01
7.050581187206381717e-01
8.394154851180832821e-01
9.112593780420310541e-01
9.166101659812974090e-01
9.595935469497618442e-01
1.118774874826021559e+00
1.146930993578419100e+00
1.199478543076849757e+00
1.229049937964268535e+00
1.331058802432252497e+00
1.306287443844823759e+00
1.340062790687210237e+00
1.335769839816613569e+00
1.396627264160556159e+00
1.375654005482873865e+00
1.290518190011194388e+00
1.230709718886577209e+00
1.178143401760989528e+00
1.203872187739993826e+00
1.127810863807717778e+00
1.021510354562658263e+00
9.383061688895675267e-01
8.801507660234668684e-01
8.426462656375840465e-01
7.294872758230405152e-01
6.834636095837536285e-01
6.079447421864733192e-01
5.218130957123703340e-01
4.890312319719073986e-01
4.237607423857369660e-01
4.068680549797008550e-01
3.768802724048250785e-01
3.564039801904583804e-01
3.006923687538206602e-01
2.469735972349700603e-01
2.661675154764199247e-01
2.699169491165521184e-01
1.981583533838189581e-01
1.904655933842665794e-01
1.783013881092130326e-01
1.680248690975744696e-01
1.825504573816471299e-01
1.843304321606824003e-01
2.183884273553352573e-01
2.589190847444414745e-01
2.322499772755258485e-01
1.342439276699015083e-01
1.548634263006445633e-01
2.263893176521815653e-01
2.067635853384013900e-01
1.689719329385762636e-01
2.124259331687186614e-01
2.393407480812872745e-01
2.423962164172062117e-01
1.974326370416121523e-01
2.585606056742021375e-01
2.363475549770173156e-01
2.334722562730723594e-01
2.117432491363162583e-01
3.343176428493819241e-01
2.126962264445058093e-01
2.742297168091878401e-01
2.594656755507561696e-01
2.109402418490387843e-01
3.255493640363313346e-01
2.290285821471826355e-01
2.309631542273070659e-01
2.832299255415651751e-01
3.118041841676131853e-01
2.539486389265520061e-01
2.962549710980431628e-01
3.133814587397554807e-01
2.891211710272770796e-01
2.647198136532775137e-01
2.655293208018953410e-01
2.772735604094307416e-01
2.959395143003022421e-01
3.058817548758123728e-01
2.843276701823061470e-01
2.797358236885312266e-01
2.970931587871080692e-01
2.556244008391503342e-01
2.317290707844623099e-01
2.870287840362371612e-01
2.992240646879213428e-01
2.165406578654977543e-01
2.305607170567855191e-01
2.256143298545526532e-01
2.159269123879446750e-01
2.517887151835753179e-01
2.161470142858313848e-01
2.392160095253096919e-01
2.214301051362013995e-01
2.360415467813764268e-01
2.084263138702621976e-01
2.197687935571026041e-01
1.779798231419150722e-01
2.074635710776522313e-01
1.857257430011155785e-01
1.283271498269588362e-01
2.123699191312031498e-01
2.313469604021135273e-01
2.008945202879967862e-01
2.089755478305663772e-01
1.603382258955566575e-01
1.634632009891686943e-01
1.317658151649377107e-01
2.275824391969553384e-01
1.490171926007128889e-01
1.628830953187240249e-01
1.555551164577461398e-01
1.289494867020281876e-01
1.629848335053446506e-01
1.529843371785725714e-01
1.309036887926419701e-01
1.270829331803073337e-01
1.026456766719810038e-01
1.298895031879760686e-01
1.417435743319002683e-01
1.365443952883026446e-01
1.104203215743481126e-01
9.725734792092875780e-02
9.087427519564839073e-02
1.346701641073118072e-01
1.491453863365714838e-01
7.233243696362713637e-02
4.133740048862778738e-02
9.453772547414886207e-02
4.995356941095088765e-02
5.740561884700765005e-02
4.475586029272300009e-02
3.700245612953753649e-02
3.953160074177256011e-02
5.426094309411187699e-02
7.576823587184536302e-02
4.449928954370767353e-02
6.554514002746721080e-02
7.133995888079730507e-02
1.585824929613087811e-02
5.473429402174456726e-02
4.997412956593520750e-02
4.811445899103726498e-02
1.986576045576005436e-02
2.772257533884387587e-02
1.941935748588299870e-02
-1.380705081719044158e-04
4.176791451869499294e-02
3.427298342385487473e-02
8.645596911503747317e-02
-2.602518964296309315e-02
3.757250828862731401e-02
3.590002415529675028e-02
4.788248813009474136e-02
2.677481239659146306e-02
1.063110903176287952e-01
6.492669143200043014e-02
4.066135488938002474e-02
6.565528215063322348e-02
5.198354495271489267e-02
4.439391344267940021e-02
4.298996992588482308e-02
6.343402111642369723e-02
-7.504673250704748527e-03
8.907901608110008196e-02
4.421194453983740003e-02
6.953842928926096123e-02
4.842428626548150178e-02
-1.354047987317628238e-02
9.267524223309372977e-02
8.488791994346581160e-02
4.270916577872803377e-02
1.074403245155748921e-01
5.213675445710704015e-02
8.049549470255137895e-02
4.504543390295460276e-02
1.250833319477950845e-01
1.363397768743166427e-01
1.344917692026705025e-01
1.201810901621731681e-01
1.619281437108851807e-01
1.001431994629968791e-01
1.098996028779778145e-01
1.315324015935824264e-01
1.335342032378914467e-01
1.228607609129376693e-01
1.045679580469121850e-01
1.531407027142221156e-01
1.659771432512098244e-01
1.335193300733426569e-01
1.983980910491912053e-01
1.054101446468062864e-01
9.614605090189558279e-02
1.494897208104457864e-01
1.595323632442448847e-01
1.457564328005833965e-01
1.385230902936207542e-01
2.080779588490378196e-01
1.488363017084224360e-01
1.956838011027283719e-01
1.535280490686454224e-01
1.707539860470237703e-01
1.461686572087837199e-01
1.799244026292510235e-01
1.858671447187960901e-01
1.032403111765451686e-01
1.585074978955021419e-01
1.434009838939850345e-01
1.463195487100978909e-01
1.391168881920603617e-01
1.786788739008034477e-01
1.648792533716189612e-01
1.893716872684337582e-01
2.625667655425056868e-01
2.634918863824937119e-01
3.135751488596706382e-01
3.173105676633398708e-01
3.369359131757238002e-01
4.019986807984079480e-01
4.629702003078709494e-01
5.098252939578795662e-01
5.387284879618715605e-01
6.271706164688645169e-01
6.612302681683840389e-01
7.164569192322893798e-01
8.042554349667629943e-01
8.985707539388692044e-01
9.759406337802186693e-01
1.069009739596110009e+00
1.089024392174646527e+00
1.185531905436610245e+00
1.161910944653189004e+00
1.255129537815073082e+00
1.280948624314328876e+00
1.316053354342913595e+00
1.308710572572576947e+00
1.262434061686937170e+00
1.308750709009691482e+00
1.304042207309220380e+00
1.191734685626714141e+00
1.151763228893416979e+00
1.089725636498028116e+00
1.029914359711887162e+00
9.397706723566758846e-01
8.957338381047539322e-01
7.950853679586078471e-01
8.884997021001854733e-01
6.855673630829327569e-01
6.295684834311747746e-01
5.053101929364935962e-01
4.815520506538765733e-01
4.187850334238604200e-01
4.171089666638357341e-01
3.022640566895881675e-01
3.115493418675794879e-01
2.649936585860741545e-01
1.846578025116817623e-01
1.727627859865259463e-01
2.003689132929260264e-01
1.669392533900630193e-01
1.299260241772307589e-01
1.534068169003290627e-01
1.611603220885580723e-01
7.371362669522908695e-02
1.701064933949031632e-01
1.214891718107028035e-01
1.537787827847055533e-01
1.511741358690264214e-01
1.895140002425978465e-01
1.374932527695333917e-01
8.792731832053066188e-02
1.158013485924446473e-01
1.124667887241398156e-01
1.408237297617493111e-01
1.931403810218594863e-01
1.427438774224750739e-01
1.789054223926341836e-01
2.127746772867000757e-01
1.457897823751750366e-01
2.230218354227564148e-01
1.947627503308542729e-01
1.618992293972946750e-01
1.850510066721325064e-01
1.510624654011691048e-01
1.693164521344220075e-01
2.385762509443816459e-01
2.314580899496561095e-01
2.134810300178460185e-01
2.550222433795529264e-01
2.261044161594914503e-01
1.797449588212444993e-01
2.082049013700737194e-01
2.420577036835764029e-01
2.402373491507853731e-01
2.279861315858305870e-01
2.571584314658471593e-01
2.780989552497817319e-01
2.661873707229009955e-01
2.363930153822252911e-01
2.513081183874149582e-01
2.704142329572573611e-01
2.297027983990132805e-01
2.733487864074240492e-01
2.623478239070884954e-01
2.386366893024389202e-01
2.727903716078002860e-01
2.255688954762122000e-01
2.567433759152384365e-01
2.068420069634152592e-01
1.363971944221783195e-01
1.677624668045293310e-01
1.725136288567263310e-01
2.080989566463974094e-01
1.480010104626685308e-01
1.713340716894615479e-01
2.089490905647172769e-01
1.877326855147556095e-01
1.625055509579297064e-01
1.709565399848918255e-01
1.178994241586046182e-01
1.495518417679120027e-01
1.529931080463936555e-01
1.467008137938776713e-01
1.520981607249684286e-01
1.587180754899674140e-01
1.338954469799532032e-01
1.565687608962643140e-01
1.166392309777161129e-01
9.870801262833593659e-02
1.298394187904726160e-01
9.389396373385262839e-02
1.552572756294819389e-01
9.714597434585586777e-02
9.437295050875502134e-02
5.640437898664207861e-02
1.376794579601889057e-01
1.010486344864254815e-01
8.500023471198807357e-02
8.010353466583655657e-02
9.451554915711821159e-02
8.195169974805602275e-02
1.055367617715544798e-01
5.443640540165575747e-02
1.565909423714763049e-01
8.604047669982492486e-02
8.548087957554754979e-02
1.653814579225346484e-02
1.979210239161897228e-02
3.286842846237274240e-02
1.853287101868034137e-02
5.251083448436934253e-02
3.888764092001811140e-02
-2.870312344673208588e-02
3.527136547608833439e-03
-1.994179055695483038e-02
1.233117114299966954e-02
-4.543405154705281584e-02
2.738890330130798467e-03
-7.534827195572607605e-03
7.738893591647429127e-03
-1.977174848736279120e-02
-3.455209250169708618e-02
6.032620799417807295e-02
2.468415837171173549e-02
1.016849348518874402e-02
9.498290062311967596e-03
-5.728862016944359647e-02
3.027025413825715910e-02
-6.035148928331939000e-02
3.696698115498507631e-02
-2.000412440776807438e-02
-1.868385317590072481e-02
-1.918902187771245188e-02
-8.406867480324233671e-03
-8.239123553949408152e-03
-2.975647269794902405e-02
-3.859979392721933633e-02
1.945304410630580016e-03
1.114324765996862338e-02
-5.366180203950700334e-02
-1.075399393894765562e-02
1.173522913322510436e-02
-1.440273984183890882e-02
-4.331294995460410052e-02
-5.695267781672034429e-02
-1.819311165255190627e-02
2.869357393286924018e-02
-2.362930026232933772e-02
1.556558148288667703e-02
2.400315984241169209e-02
-8.769651652194968006e-03
2.699091939366521364e-02
5.626064047788895822e-02
3.964585935105487818e-02
-2.818126651747633604e-02
2.396476727833894704e-02
1.043624087190035687e-02
-2.202288258578425501e-02
5.187829620705088074e-02
3.898189049271044704e-02
1.383649081397825970e-02
9.596941194036631706e-02
8.949771893192137728e-02
6.439017156860743496e-02
1.040757115602571198e-01
1.104884561045672564e-01
1.564431160665492593e-01
6.056719891517332865e-02
3.628709671035544593e-02
7.904779987676063824e-02
8.410679987131694513e-02
1.593303276846149696e-01
1.221879399480726158e-01
5.204357682912234828e-02
7.072594115165665996e-02
5.268023834085036605e-02
1.025126582921427887e-01
6.170265054633562729e-02
1.374674816626800800e-01
8.734176897916355597e-02
6.872658255835500940e-02
9.976977698861358435e-02
9.963511114940359903e-02
1.110021948694692451e-01
1.206045674304216664e-01
1.174420043290041737e-01
7.360891327955307317e-02
9.050483821828012032e-02
1.139067751814591967e-01
1.154434976524050666e-01
1.501447568005983835e-01
1.170236943839426946e-01
1.028048189387907596e-01
1.501464364033726628e-01
1.775590566608223619e-01
1.738078612892483277e-01
2.741767664665919479e-01
2.294019481114606129e-01
2.816849541016855363e-01
3.018630802262682877e-01
3.011539440381291177e-01
4.014151133025942175e-01
4.471545419378453179e-01
5.203312780264616189e-01
5.169675892265267469e-01
6.066026975187563952e-01
7.063603495876177307e-01
8.221518295133665166e-01
8.707187086946722721e-01
9.530763367742087766e-01
9.697936702493277217e-01
1.070192586674564961e+00
1.113807232266006642e+00
1.213243238849428751e+00
1.217390557658639239e+00
1.210261453175155433e+00
1.219745007107146506e+00
1.287986316616539284e+00
1.304184597871736351e+00
1.216212063127301235e+00
1.223342166241649709e+00
1.156878391622363500e+00
1.083670094222490832e+00
1.106299872754993974e+00
1.014861955657098136e+00
9.157935537894456024e-01
8.623468906170247417e-01
7.949386605254520344e-01
7.039111056478879469e-01
6.441875259798922615e-01
5.158555310504737701e-01
5.351694775818292005e-01
4.530091214301644742e-01
4.040644333917726705e-01
3.555873257927425479e-01
3.108055192623392915e-01
2.581785640594649878e-01
1.998807788271179664e-01
1.521689219986075148e-01
1.553070393878205613e-01
1.103283987053102211e-01
1.378021862323268176e-01
1.531145802184332161e-01
1.117985632558834985e-01
1.027762213524695545e-01
1.430978036930851405e-01
8.084796202077124128e-02
1.405550431950068901e-01
7.624391762513146875e-02
1.066310133275769345e-01
8.942455696426715450e-02
1.361770200797897956e-01
7.708566324043002183e-02
1.102893082439569961e-01
7.429499367565969847e-02
1.555524743079086947e-01
1.515101591396221803e-01
1.381298238427210723e-01
1.482929396135970190e-01
1.649899724331730655e-01
1.782068027753350992e-01
1.689019601229994616e-01
1.491650326794856096e-01
1.597315735196204178e-01
1.570387483611285495e-01
1.777706133841819303e-01
2.179160832218643706e-01
1.988557059247126335e-01
2.098230438408814624e-01
1.979776924372660396e-01
1.954092164318695368e-01
1.602000307389886413e-01
1.583176091575886901e-01
1.619068187034387596e-01
2.406344970344340972e-01
1.450193619465207362e-01
2.147885556875455682e-01
1.916315897127709722e-01
1.986982299101981153e-01
1.883056800146724330e-01
1.616108741827586293e-01
2.071668164299073911e-01
2.151756942795493011e-01
1.970259386175962635e-01
1.709623316009191429e-01
1.950001929134999035e-01
2.265105328106458982e-01
1.849312748847698196e-01
2.272480181552156142e-01
1.752446530901155264e-01
1.569428922404345894e-01
2.372505624830464621e-01
1.565378909228484217e-01
2.305419484063856161e-01
1.369366223003840866e-01
2.185471606300186109e-01
1.848854402906797145e-01
1.560619205835160617e-01
1.636799207842906667e-01
1.364472874744165898e-01
1.088214736485280387e-01
1.582076266237917583e-01
1.412683816026227002e-01
1.547386273072261509e-01
1.175399293547041146e-01
9.824630596937609928e-02
8.776722342471490745e-02
5.908835609746927037e-02
9.123244624305452966e-02
1.298740416975192324e-01
7.291500409556729567e-02
1.449995769423547132e-01
9.090683984620145930e-02
4.615806488171621952e-02
5.927199194990018238e-02
7.025706724049370078e-02
7.732917801348815345e-02
1.008679422143657634e-01
3.745283232148299141e-02
3.353903557798482149e-02
2.135161162616898423e-02
2.716152287186265890e-02
4.200407501584230152e-02
6.690954275596117107e-02
1.960056385792591227e-02
4.034906403221837773e-02
5.889143089767581024e-02
8.660355980135647780e-02
-5.345423586116816728e-03
4.441005954052050508e-03
-2.221944425978437943e-02
2.603800976330890304e-02
4.318188829047622107e-02
4.972185376042377591e-02
-1.862650876979213971e-02
9.146408970803682204e-03
-4.531977481265450636e-03
-3.922583738060870379e-02
-4.744780654344502024e-02
2.664756440147947325e-02
-2.479326372526868827e-02
2.120175539429221961e-02
-2.415073850582304810e-02
2.914361770302894422e-02
-4.287998589629489488e-02
-1.778664151420389361e-02
-5.146549629732002917e-02
-5.837113097515838483e-02
-1.959887243162983239e-02
-9.747356040308234604e-03
2.283041727859849018e-02
-4.875872999358280696e-02
3.803478427806249867e-02
-5.892076029352151523e-02
-4.591697259561357269e-02
1.877839079873176720e-03
-1.641670488146670243e-02
9.292013427973519479e-03
-4.142507411179896515e-02
7.042236933886690531e-03
-5.572706432597419879e-03
-4.253154672522884566e-02
-2.454842674538779135e-02
5.817795086730526144e-03
-1.982657572148547806e-02
1.241515531153934704e-02
2.663424383021195663e-02
-8.147641120360905875e-03
-2.514921397923916557e-02
-2.417232099540873869e-02
1.919629186553126199e-03
3.555744971414738498e-02
2.290572874855378166e-02
2.351903644452151693e-02
-1.362827116058800553e-02
-2.234162565737946721e-02
3.645619944833558557e-02
-9.688439055514107279e-03
4.907793194860520652e-02
1.967228246039348649e-02
-8.241273771138084292e-03
6.046678442488422761e-02
8.736683525322549992e-02
5.192904522006763085e-02
5.748349972897946053e-02
9.571199830356588723e-02
8.372101148395429127e-02
8.276777612414379370e-02
5.072562610075181944e-02
8.131803413704756511e-02
7.516803760720906780e-02
9.357590768013676619e-02
7.810530159835660236e-02
4.995996624250401835e-02
4.315147724148212655e-02
7.044315321175924349e-02
1.655067923051757872e-01
8.285101747426271146e-02
1.160415788055749464e-01
5.304093053027625349e-02
8.875133756981606892e-02
1.499653373865964534e-01
8.693074202893380509e-02
1.436206150625072564e-01
7.089441980487798389e-02
1.084687908688046071e-01
1.192018763078286359e-01
1.199986133799703647e-01
1.400260132528240165e-01
1.204597692889418648e-01
1.104785400062452405e-01
1.309491833312988185e-01
9.361077334633549629e-02
1.060772683122510607e-01
1.221735882900638753e-01
6.403773827119940698e-02
1.100031068127525352e-01
1.541707238602590957e-01
1.908968270633276398e-01
2.393200004739401421e-01
3.081204777783186355e-01
2.675611669498820788e-01
3.462039278398432729e-01
3.894687241160285640e-01
4.889279930057986445e-01
5.084142574232057843e-01
5.658459213449279490e-01
6.803115915675266301e-01
7.256075100127192812e-01
7.867401279330011876e-01
8.702709086002019534e-01
9.904651605557707184e-01
9.586999083376682718e-01
1.091938603171472399e+00
1.155507394132695875e+00
1.125581774517540712e+00
1.231494303727399320e+00
1.243789813084615004e+00
1.280423560933722671e+00
1.242736272188204261e+00
1.291095001334298553e+00
1.272641343158745553e+00
1.181915717595238169e+00
1.154272970533186005e+00
1.063203648668648471e+00
1.113272747629820980e+00
1.049402839626154993e+00
9.262297904669328785e-01
8.847559355072502907e-01
7.922337357846184203e-01
6.967215024269197698e-01
6.165893871932714987e-01
5.908631421911063608e-01
5.240721224335049833e-01
5.129273057638393807e-01
3.825970092190294491e-01
3.754940422908533693e-01
2.923959559742335679e-01
2.239679949232512013e-01
2.298949484367227014e-01
2.073695013847040580e-01
1.887642205099958337e-01
1.326274363429763015e-01
1.613123198462316776e-01
8.853738330858165750e-02
1.082856065058485640e-01
7.540713644844199148e-02
1.399371949594011011e-01
8.838001962011141077e-02
1.450832480584623441e-01
1.366131566411415421e-01
7.866814063080601604e-02
1.077399084172703803e-01
1.287558712560555874e-01
1.104326787097800466e-01
1.486418042401885797e-01
1.444496982445548916e-01
1.508076443718984194e-01
1.887917814522233062e-01
1.581050287524536913e-01
1.823474091262645702e-01
1.434453573949809879e-01
1.624662878462046767e-01
1.030558408794972902e-01
1.676712124111022495e-01
1.638610888058218140e-01
2.184165772001449568e-01
2.111189809113368232e-01
2.148537660353428413e-01
2.200867510289572226e-01
1.929317404182868123e-01
1.320747379778924868e-01
1.621298594623945544e-01
2.092315512142299272e-01
2.053860336186389413e-01
2.018533936896168834e-01
2.500412025392106941e-01
2.313953092803232026e-01
2.712363951414590857e-01
1.700520796404330903e-01
1.865902810011001445e-01
2.069531148590204594e-01
2.200292458672635232e-01
2.277387240751193864e-01
1.765886486335448979e-01
2.336658621671455216e-01
2.571601453825428929e-01
2.613877128782326476e-01
1.590542315883179958e-01
2.313717943758925588e-01
1.984357219207147360e-01
1.871566382256601990e-01
2.538490017615818717e-01
1.834698847293189383e-01
2.470516568461272600e-01
2.301690992079988562e-01
1.901148996414812886e-01
2.294420625166387062e-01
1.910269670369403316e-01
2.480897722243639303e-01
2.039931916057871608e-01
1.669653765013970892e-01
2.225969747682474686e-01
1.410098771852577038e-01
1.803225266455397990e-01
1.610307672310044569e-01
1.880551097929515914e-01
1.381001343459694053e-01
1.921716349161590731e-01
1.437114451310251284e-01
1.271650434860351619e-01
1.229532098813679031e-01
1.281731694135630761e-01
9.590784588193508597e-02
1.337364429322408788e-01
7.599775661030730434e-02
5.933610717596177198e-02
1.376458691031245407e-01
1.286792205152239577e-01
1.372097858874668785e-01
1.274410162747569020e-01
1.054742245324836597e-01
6.751183425295234630e-02
6.996930466196692178e-02
1.424549395643877059e-01
5.363294960407870293e-02
1.370013891973516917e-01
8.160842436850895831e-02
4.851867795941287170e-02
5.017204183717532961e-02
7.098910849213933838e-02
4.632797392848234108e-02
1.990629729855999952e-02
3.177196415832464482e-02
3.428379508398001624e-02
1.142059413263972617e-01
6.089595572456786565e-02
1.052116641988791734e-01
4.644461482718083289e-04
5.103758942096255080e-02
3.489170693437189386e-03
4.200107128929299327e-02
5.527926667571011338e-02
7.781970740013526011e-02
4.233984118234408733e-02
1.937626946023148639e-02
1.283347831699583122e-02
2.567001067070171297e-02
2.706517993996812935e-02
5.694272783987255199e-02
8.459622865023459087e-03
2.839156738415601205e-02
3.091110623290502235e-02
1.282540300336022093e-02
8.037675993430290489e-03
3.354514444144325591e-02
4.129971648572569598e-02
9.487775165759075244e-04
2.883815931306189101e-02
2.442819978266259906e-02
4.923400838466705787e-02
-7.181178930259844717e-03
-9.368558329172875510e-05
3.929956653646474174e-02
2.513520435638190095e-02
2.189363476536433650e-02
2.582259240203790829e-02
3.017065170199930563e-02
7.243802943617086432e-02
1.008610936198249888e-02
2.950652347987834517e-04
6.758867700805070225e-03
8.104489076682690196e-02
-4.911615895230902681e-03
6.338628131596556192e-02
2.598841681684612923e-02
6.487832000999878279e-02
9.712322674444311132e-02
4.671128660878788585e-02
1.133568963945995461e-01
5.131197679853363725e-02
1.177039450852454538e-01
6.553541603360281409e-02
5.186819035396054295e-02
7.237193075167588918e-02
4.917228334625112912e-02
1.424907940332295342e-01
1.404258799769840527e-01
1.237010311830068071e-01
1.167784042892405921e-01
9.849346895153526793e-02
1.328881716132354340e-01
1.418087178318916397e-01
1.785712334462944972e-01
1.729119807352943738e-01
1.532294133801447300e-01
1.893194121146290210e-01
1.079282590665005259e-01
1.530358146591978552e-01
1.527437268684772864e-01
1.392339956890461805e-01
1.020689119522893845e-01
1.313177238458903828e-01
2.150468446298077763e-01
1.586320883521662450e-01
1.342862766754759907e-01
1.699100967450989652e-01
1.343137070038087910e-01
2.080793782572967210e-01
2.130171039199845739e-01
1.538823691250809367e-01
1.320765510696168266e-01
1.903430850831597798e-01
1.819730284500623019e-01
1.788903977027709036e-01
1.891703898282484086e-01
1.399928568836897314e-01
2.230373807871293690e-01
2.177622438084018952e-01
2.063157968782119989e-01
2.901306134725850638e-01
3.059751720672239661e-01
3.451478642556633503e-01
3.482709750003295524e-01
4.382938402040998938e-01
4.640293540643531944e-01
4.897455182222664738e-01
5.891966587776087394e-01
6.171698999054054946e-01
7.152565520044185110e-01
8.113526625179857676e-01
8.830372031715869596e-01
8.926777528308877940e-01
1.024912158709301746e+00
1.020157690813596751e+00
1.123206075564580519e+00
1.225143406242993782e+00
1.260047379315313076e+00
1.240396626303769567e+00
1.306634091611204029e+00
1.297403950991101063e+00
1.339233964631341589e+00
1.269748807780712863e+00
1.339796759741015419e+00
1.219309443967474316e+00
1.260814831077375020e+00
1.199607097654946886e+00
1.144052234781289368e+00
1.045742711229868727e+00
1.001206848740353816e+00
9.326791948913807362e-01
8.296402848945430009e-01
7.772573810143171835e-01
6.844650875416258273e-01
6.227512651005179256e-01
5.714666672404777881e-01
4.704372460744684070e-01
4.522736350132348648e-01
4.063985598822701939e-01
3.664242457305398881e-01
3.245077366101892236e-01
3.343500464951231210e-01
2.722185650859089701e-01
2.277413335819492568e-01
2.661859143427652841e-01
1.857502896893234168e-01
1.974070977886150935e-01
1.509242258581939278e-01
2.058619749160226220e-01
1.876466160432006536e-01
1.908053957905572751e-01
1.645788492812602088e-01
1.918145026730573022e-01
2.206708854574535861e-01
1.942268147169126657e-01
1.714951592580699902e-01
2.057749744422596727e-01
2.398872533167719090e-01
1.627046494896462470e-01
2.305183815966175276e-01
1.833853326231610625e-01
2.156016202584923880e-01
2.463248415469924679e-01
2.391018694948324197e-01
1.772356487311169959e-01
2.157608885538031818e-01
2.716436221400553852e-01
2.155486813279277047e-01
2.170458891744033170e-01
2.635393203226814585e-01
2.825157997964137802e-01
2.364796140421341064e-01
2.589819540836975076e-01
2.696750753238369436e-01
2.747322296019982235e-01
2.513061072919400285e-01
2.480975875198209446e-01
3.423580457413047395e-01
2.944294203376337515e-01
2.874573313956165221e-01
2.800611326900683262e-01
3.000160160186127745e-01
2.975677122500495209e-01
2.460136546746651554e-01
2.796086734033200183e-01
2.645352412705261891e-01
2.565267340278109542e-01
2.344443438163811289e-01
3.099461032030664254e-01
3.205869346905860784e-01
2.602648726938008861e-01
3.347234935873705242e-01
2.478129766623680674e-01
2.488267133753789828e-01
2.015236704512255173e-01
3.024624707088997000e-01
2.794020892406641199e-01
2.632691053853954410e-01
2.944654776611730918e-01
2.590458065927203624e-01
2.359702154892504844e-01
2.433120227931128976e-01
2.152454597650618195e-01
2.910254074399047930e-01
2.017900046036396611e-01
1.913051936177580514e-01
2.307005215148304478e-01
2.376074266798188228e-01
2.192668759406246615e-01
1.848600968138733314e-01
1.630990842961754783e-01
1.855129107191152427e-01
1.910940215981883350e-01
1.438508511991248850e-01
1.751706427249534459e-01
1.619927483949782643e-01
1.794275113006040256e-01
1.155809145672157257e-01
1.448666637484699315e-01
1.100048338769979567e-01
1.560303694729261448e-01
1.465106478877029605e-01
2.098309572957212099e-01
1.478494848822222707e-01
1.719792584783450540e-01
1.499777026471331987e-01
1.219715797146686265e-01
1.331683627088974253e-01
1.054246231769592895e-01
1.837457966486870098e-01
9.754591079824925792e-02
9.300206876920152910e-02
7.248782286786314977e-02
8.329841961946002349e-02
1.229892601870243019e-01
8.055078046797534141e-02
1.037628144514907425e-01
7.599135317420932512e-02
1.078966001217878251e-01
3.594144536340483642e-02
1.088490923915427372e-01
2.026399543075731863e-02
1.326903441545026763e-01
4.581303910883686298e-02
9.056184575872330833e-02
8.347210256414441809e-02
4.004468985297660044e-02
7.068139777151227765e-02
2.252485050692076482e-02
1.117829131861696190e-01
1.109401241405418292e-01
2.932383349589747987e-02
6.278380869309913015e-02
1.096563926764544811e-01
3.021342553189345151e-02
6.169369841563356049e-02
9.851566997058827657e-02
8.356210081187535887e-02
4.404560758745509896e-02
5.748922294830768887e-02
5.122231303209164727e-02
9.670115999427081332e-02
8.216112015492546550e-02
4.593394720803881115e-02
6.081273770393056527e-02
5.135001226647338546e-02
4.309257650844722232e-02
4.503603099947338373e-02
7.358026379230291070e-02
9.543612821701524807e-02
1.144984656410240609e-01
1.045021825023143697e-01
9.291510549795874152e-02
1.134102277193868996e-01
1.303734608594175198e-02
1.214884111044387399e-01
5.719944899606938665e-02
1.413256215855449860e-01
1.025717017607000597e-01
1.421183479295855256e-01
1.211780228809470894e-01
7.997484505548516087e-02
8.537563255205721235e-02
1.234866380917918754e-01
1.477105617097352885e-01
1.253351161137518655e-01
1.616060197733555914e-01
1.845448151461632214e-01
1.676944511290952844e-01
1.626265932765414146e-01
9.136025292200281034e-02
1.452668835484276777e-01
1.259417988391864640e-01
1.934006716165039830e-01
1.797718095949598915e-01
1.390746913457822642e-01
1.489438899340853051e-01
1.404488737285073119e-01
1.560928452844515257e-01
2.217315211693156318e-01
2.015884130335914293e-01
1.975388528572386559e-01
1.374372650240120730e-01
1.706520634276214032e-01
2.076880711527865908e-01
1.730452298822522383e-01
2.358011145046190471e-01
2.181751378637663830e-01
2.119366358205443113e-01
2.011400376752377206e-01
2.458004736051669359e-01
2.262449815953806176e-01
1.189564342268675939e-01
2.122472673675999677e-01
2.429737856061634227e-01
2.350535765284640366e-01
2.356407795445568665e-01
1.724849877438476009e-01
2.439821169978547699e-01
2.967872567238741266e-01
2.690285441298847502e-01
2.921282285168482762e-01
3.135835506845103260e-01
3.298983430288089380e-01
3.435575386080322868e-01
3.471680582917626712e-01
4.651671880362589495e-01
5.195486147695268508e-01
5.087899371954267558e-01
6.212203903586291931e-01
7.269291488813841573e-01
7.884718181968817241e-01
8.134708886780137593e-01
8.617065188168447909e-01
9.331483721281624844e-01
1.052517767654804315e+00
1.098368563505847106e+00
1.126602709962662763e+00
1.218627720737104569e+00
1.278951724728605521e+00
1.358193386570987871e+00
1.324147828269214511e+00
1.329689526285902978e+00
1.374211452465640804e+00
1.326630728909733214e+00
1.290410578537552810e+00
1.239131572476099619e+00
1.229173034871767545e+00
1.200333400685610563e+00
1.138082420202926270e+00
1.052052506109748098e+00
1.016274492350276004e+00
8.911634473443617033e-01
8.692322289898324339e-01
8.118505418858820155e-01
7.171755670134730698e-01
6.610217271631755320e-01
5.801583408523176555e-01
4.849339648204074038e-01
4.159017482711658831e-01
3.787209916768513596e-01
3.864711221855846035e-01
2.972398991248519362e-01
2.716977619406623079e-01
3.297939928200385173e-01
2.718620466542686076e-01
2.671323682974090508e-01
2.122083577108951069e-01
1.656121905979356379e-01
2.257616375595178360e-01
2.206580653485429588e-01
2.054724320031891815e-01
1.521569459098072730e-01
2.356265459474063961e-01
2.235082595545717921e-01
2.233430816947120645e-01
2.004301683158283554e-01
2.397236487249668757e-01
1.873483091189857563e-01
2.227137652121109479e-01
2.241866997023680141e-01
2.557106361135152994e-01
2.689575371512489266e-01
2.477671098983942888e-01
2.607782729683288947e-01
2.138189248000969267e-01
2.607037200455859516e-01
2.662551615874830246e-01
2.328464163935091147e-01
2.768357809109696643e-01
2.840172001674841629e-01
2.817484366288759423e-01
2.946879697161084999e-01
2.904229251727638572e-01
2.137479637202840954e-01
2.534193864545137842e-01
3.295959632899095881e-01
3.189015775787688023e-01
2.992007332567266920e-01
2.950598684949665707e-01
3.012209555808260109e-01
2.941805554721624305e-01
