1.377953925129862700e+00
1.358205264067739337e+00
1.345623449996973031e+00
1.297328611609582349e+00
1.274218978655743406e+00
1.163767920514587217e+00
1.155282026361129422e+00
1.146379285150475713e+00
1.036491783359779539e+00
9.573547188398552343e-01
8.385835981996890842e-01
8.355942500863405842e-01
7.044692363966544857e-01
6.582256978187429608e-01
6.154167339470195675e-01
5.851112697161602316e-01
4.824875302408987432e-01
4.289335379723056008e-01
4.074062674259479877e-01
3.445549821301491789e-01
3.231046911357174367e-01
3.261100175980064519e-01
2.669826706528132809e-01
2.351437819948055119e-01
2.270938475924944577e-01
2.083070481922650041e-01
2.117534404896115885e-01
2.071129025280368241e-01
2.168218937743271180e-01
2.246146644206032661e-01
2.092848932786529059e-01
2.051126084962091867e-01
1.824525238908267233e-01
1.884789837678102209e-01
1.918592067458081418e-01
2.694573904111721152e-01
2.803590817230363075e-01
2.115159809237265320e-01
2.151236684069753879e-01
2.674420034784189548e-01
2.806447362396682355e-01
2.355881570684381365e-01
2.411130398665789765e-01
3.078980481824068471e-01
2.042559701724641907e-01
2.670463920716192319e-01
2.188930725154869250e-01
3.217806107886520550e-01
2.604124757621465447e-01
3.097230183161747696e-01
3.089076157534826339e-01
3.039391856165466477e-01
3.020528836777413573e-01
3.169574998591618287e-01
2.954357145145497521e-01
2.884765493539559467e-01
2.700335464072294300e-01
2.570741845128134417e-01
3.140441295815441514e-01
3.403600804595803830e-01
2.343395878408579269e-01
2.860668472946559238e-01
2.493258688185911454e-01
2.970254926729996026e-01
2.460036947277688124e-01
2.487860797008040747e-01
2.278544221645018020e-01
2.679861157671318272e-01
3.194110816609532777e-01
2.890523906525197528e-01
3.042097894604890995e-01
2.971225615145803856e-01
2.931776924256297434e-01
2.707371735303121252e-01
2.673259631888487697e-01
2.347292741022102280e-01
2.452621189502713905e-01
2.526287839976881222e-01
1.784912976512948168e-01
2.138632714664931433e-01
2.569461790175902038e-01
2.071945100174536203e-01
2.281306142182362717e-01
2.534666916844794948e-01
2.174529400842074300e-01
2.728461578707889190e-01
1.744611019254271034e-01
1.728706465419338756e-01
2.227290879387864020e-01
1.811372767456063404e-01
1.813486082487704154e-01
1.788112750784094929e-01
2.059236925030648313e-01
1.522829055594893677e-01
2.171918737909081798e-01
1.882915109634363815e-01
1.563122106008305590e-01
9.809868551021716510e-02
1.314470880204151038e-01
2.006702527972065719e-01
1.774764856926721035e-01
1.542220461449208269e-01
1.445094962165084929e-01
1.229832768694115869e-01
9.467805300433737581e-02
1.622428223309944628e-01
9.721886617264199892e-02
7.488447694719474468e-02
9.369125489452050093e-02
1.382659954247814904e-01
1.560410297932945112e-01
1.336239757940498041e-01
9.440532703554874172e-02
1.343703236906174381e-01
1.257037614465608411e-01
1.023116711086224651e-01
1.032618599206330812e-01
6.883045649132642219e-02
1.073370230404845915e-01
9.775938905884297425e-02
1.063429020948012949e-01
5.437903630824524048e-02
-5.980403065656114681e-03
7.795696794578745037e-02
8.524025644399187140e-02
9.103549252429111310e-03
9.296373712582037263e-02
5.701751317490925952e-02
6.178060909523254429e-02
1.006848122517074035e-02
3.583088419920818501e-04
3.036815124320452544e-02
2.253750426437205190e-02
6.960026163774890584e-02
6.296369914544379387e-02
2.674222771579740782e-02
5.373841069990413499e-02
7.292096453318737403e-02
3.790528146981760049e-02
-5.687925206107578846e-02
3.286325931684876828e-02
4.637704115434253260e-02
4.623416468654945044e-02
1.645404727749472801e-02
2.713659142335411723e-02
9.117125025142530648e-02
2.576693782804256871e-02
-7.343345006897365745e-03
8.909612225695631715e-02
2.272264665777731091e-02
2.357758363058486129e-02
8.238171766632262916e-02
6.324356227533572961e-02
9.896568167038724551e-03
9.291257760204955918e-02
2.596181450993575654e-02
3.933473645038634836e-02
2.739560556233332916e-02
1.106319188044737473e-03
5.921887705993315876e-02
5.742841872632424571e-02
4.934507419834765346e-03
1.235164492113029547e-02
4.124273407537355079e-02
8.354623575236166944e-02
4.116572863758191647e-02
3.102122109849262191e-02
1.624974217008866018e-01
1.026956670863987120e-01
5.054300782295694655e-02
1.167019477854733672e-01
6.196784699075540831e-02
9.692136492496930544e-02
1.186032509634372262e-01
5.192818196734165503e-02
1.304673634751040978e-01
1.187933430181098149e-01
1.576041753557743674e-01
1.371193978333286601e-01
1.380034570210016687e-01
1.240554713056174208e-01
1.829151844646456082e-01
1.487448595499134829e-01
1.859172010003716236e-01
2.102020965455201895e-01
1.466546083424926927e-01
1.651225545037757481e-01
2.403681782250066679e-01
1.903770238759270872e-01
1.936045388969795389e-01
1.648190918449580489e-01
1.806639933657552821e-01
1.525068632228878118e-01
1.621465642306592070e-01
1.288231560841684442e-01
1.900094367137784845e-01
2.016118061373819992e-01
1.512110649658692796e-01
2.233764666937772259e-01
1.328183184395587413e-01
1.916618944094067856e-01
1.956069196369080720e-01
1.931940804163408409e-01
1.695091365347662915e-01
1.931211222090391810e-01
1.958191060773982473e-01
1.780610614050394391e-01
2.766124185340431141e-01
1.972796973963033551e-01
2.404883313780938336e-01
2.430527317742604276e-01
2.381929056095665465e-01
2.892350390722962516e-01
3.184125915581803579e-01
3.631049823551255606e-01
3.855175805043484227e-01
4.370204653975112152e-01
4.726782004746530874e-01
5.547252604754132621e-01
6.202141130758604959e-01
6.067353126549543951e-01
7.039938175980581248e-01
7.757952946247201886e-01
9.245458590882166261e-01
9.393272154305439825e-01
1.022933393568226323e+00
1.119392210202715399e+00
1.096153580620755852e+00
1.235459938466422214e+00
1.193961525091193687e+00
1.333806640949374289e+00
1.336394241723386500e+00
1.355495226504877859e+00
1.385470078959909923e+00
1.404472439449514720e+00
1.282022439772726896e+00
1.291043480425222212e+00
1.222951397168486221e+00
1.155962750088320723e+00
1.168281803885622416e+00
1.049397200849436107e+00
9.297942643359053960e-01
8.591549156246554020e-01
8.216766339301876387e-01
7.724213714501141359e-01
6.541208206502042710e-01
6.583049189118646005e-01
5.836003341010906897e-01
4.910536880881914978e-01
4.382179643780002021e-01
4.193453985429937969e-01
3.574048749266080516e-01
2.929321677288357351e-01
2.726769361619246212e-01
2.547501206017931397e-01
2.766897089569042567e-01
1.725787288298432087e-01
2.029373324478093155e-01
1.189592166345197211e-01
1.565194404700276931e-01
1.368692022730947366e-01
1.513042666070883724e-01
1.542442545293733480e-01
1.823858515207302244e-01
1.642572928256699205e-01
2.148325899014118245e-01
1.344557262490901350e-01
2.119633806901644324e-01
2.003394920283664005e-01
2.279159563403210520e-01
1.654096945326310186e-01
2.172863832955020946e-01
2.148985673169748756e-01
1.797080068712107181e-01
2.096291722565391535e-01
1.978878387245087134e-01
2.294526297326519026e-01
1.902001821697356654e-01
2.667059114242490980e-01
2.577920208785083878e-01
2.131108845435674970e-01
2.445665479196800218e-01
2.295891258834543147e-01
2.313273059366566520e-01
2.071423301538224127e-01
2.252787243593630528e-01
2.616673562266303987e-01
2.491201828560171971e-01
1.963133606148136923e-01
1.940596214674366049e-01
2.304566856206561598e-01
2.539248618908932498e-01
2.586782956929764565e-01
2.037891019115141145e-01
1.801910855661318644e-01
3.078937659130249749e-01
2.439310749864701811e-01
2.729365496795922996e-01
2.184572226187515009e-01
2.435462021651598474e-01
2.090226129734832350e-01
2.122402274788086074e-01
2.405877024964083177e-01
2.226541974766513832e-01
2.399324139425793034e-01
2.288487106662010218e-01
2.436161521054308610e-01
2.187711498078600547e-01
2.111554629769712699e-01
1.744316450868445834e-01
2.037505633615259715e-01
2.106763800945442300e-01
2.211000981303506696e-01
1.761885868039712033e-01
2.286675719972540433e-01
2.608369562814879528e-01
2.199173830598621926e-01
1.756114502071131067e-01
1.361157420054809053e-01
1.496661949053301466e-01
1.080631558169710682e-01
2.194794391271881195e-01
1.024312976225593558e-01
1.663294700965319561e-01
1.597231293896602955e-01
1.588375400823054118e-01
2.246995237843320004e-01
1.461631929067751245e-01
1.548888455596523772e-01
1.524335406757616473e-01
1.262546944686840644e-01
1.123634893257179357e-01
1.045206910760306668e-01
1.129987061952467675e-01
7.450249400822912815e-02
9.259621649425350820e-02
1.111739400353542878e-01
9.280546895796190632e-02
6.426260722343289655e-02
1.073880301354258361e-02
2.562657861896570216e-02
8.325163516542435915e-02
-1.870262921650879540e-02
3.241666785217219016e-02
4.525709369790859027e-02
7.659324745850053240e-02
4.630308153271390365e-02
3.064336685360143434e-02
4.418547514242111840e-02
2.100741513028544713e-02
-2.521436318245612318e-03
3.400724087958668929e-02
8.845092110437643984e-02
-4.110165516293919075e-02
5.681478367091699622e-02
9.524491846067227596e-02
2.139101606867838123e-02
-9.232546758526107705e-03
2.040354623920723545e-02
-3.005129529626472673e-02
2.242477974447468214e-02
-6.813042135201746730e-02
1.750839845151568042e-02
6.455035160839384112e-02
-1.053029421137114015e-02
2.355009298428265355e-02
-4.949735605982599762e-02
-8.612377301279091138e-03
2.990029885810741375e-02
-5.189601129680335156e-02
-4.948952574699583967e-02
1.719623903367508561e-02
5.508159236202864184e-02
-4.050173419503642902e-02
-3.951198045310522211e-03
-2.390598043466272277e-02
-1.605428266226303913e-02
-3.589074400684134220e-02
-2.599898234462225122e-02
-4.180246221104155085e-02
-1.776256906468688668e-03
1.286179555531008489e-03
-4.404151403965047423e-02
-2.376757795148374403e-02
-2.734837807970755610e-02
-1.270307029533624711e-02
-5.329392040628370963e-02
-3.172955609630395690e-02
-5.460977511460717720e-02
6.713428165357362976e-02
4.381643008937237405e-02
-7.188987932684855198e-02
2.253268156549109724e-02
-3.052973363649028049e-03
-1.444907919048500980e-02
3.421137352823454270e-02
-2.851249200196454350e-02
2.703722577843167482e-02
2.320944550380205432e-02
-6.644341149586334427e-03
3.321435927589180825e-02
3.964273187998851311e-02
1.420675212600144843e-02
7.946100551792088795e-03
1.437871848158386520e-02
4.397427455201360913e-02
2.395859838730643107e-02
7.004762504973907622e-02
1.064986105984579573e-01
4.865988794433939030e-02
4.643172654349098094e-02
1.397601497739280330e-01
4.106034296311279752e-02
1.026916243515299254e-01
9.245862962335091306e-02
3.528250612148050441e-02
9.257452268641105930e-02
2.907833140080888501e-02
1.089256532773312247e-01
9.881564940845918854e-02
5.845171186849178885e-02
1.198356057017102155e-01
7.767491269560891642e-02
6.109149409525174712e-02
1.075115480508205823e-01
1.014140271710634311e-01
1.002869391214997741e-01
1.243760924177175209e-01
1.558355055100321129e-01
1.266950923825488351e-01
7.573328662476810913e-02
7.747240771424099282e-02
1.506103480095072056e-01
9.352300958558089350e-02
1.333922951877308805e-01
1.262246168476700015e-01
1.430765094711183572e-01
8.291418005995780660e-02
1.201142393170961664e-01
1.377738036761480822e-01
1.740074764682206232e-01
1.460978262228120328e-01
1.899870096690589594e-01
1.920090633719812589e-01
1.623435859399764702e-01
2.111888965422621944e-01
2.860127655929175505e-01
2.674586605445141707e-01
3.652659990332803863e-01
3.142769098867913558e-01
3.868535755278452726e-01
4.920826385555078231e-01
5.747106713467045047e-01
5.808065060641991462e-01
6.900299770567054347e-01
7.109052468888900078e-01
8.237402355123861764e-01
8.917025485639756832e-01
9.854210031815161530e-01
1.098471364834373354e+00
1.125156688739690880e+00
1.169366423298728197e+00
1.165901403527228153e+00
1.196549627826480222e+00
1.269298347435041885e+00
1.246212187336699806e+00
1.260506942139855813e+00
1.301285833367694211e+00
1.247775145574760103e+00
1.240004863293554083e+00
1.132766121834589246e+00
1.111825221852978718e+00
1.015577805579712223e+00
9.621557066141036563e-01
8.787385421088400594e-01
8.206901591779340865e-01
8.051925620061488598e-01
6.567903969356425620e-01
6.316661952884708997e-01
5.710606572263769998e-01
4.946403123850630079e-01
4.283632904253010798e-01
3.455421528326380054e-01
2.970328069883511057e-01
2.330677043618592792e-01
2.090572607963594454e-01
1.965051268434961640e-01
2.144030221451890261e-01
2.090267160062442842e-01
1.452654003170174568e-01
1.444057505869380253e-01
1.457938755675108888e-01
9.785939848647565165e-02
1.234606389423467954e-01
9.717177267628783477e-02
9.297796139097762314e-02
6.075929763801525552e-02
1.207013432116917917e-01
1.246521401218023684e-01
1.232716303706908323e-01
6.398584771176643593e-02
1.123732356368017382e-01
1.454292649420700634e-01
1.630325669691030099e-01
1.125470421550790190e-01
1.660725710798280352e-01
1.053007485556518574e-01
1.651441726701747825e-01
1.705336774011454448e-01
1.667599170689260113e-01
1.548725135244942708e-01
1.503198861834368905e-01
1.851723828080002743e-01
1.408602719242069146e-01
2.008138444294887692e-01
1.932655404428503254e-01
1.535714982484459590e-01
1.879306724058407152e-01
1.826047565823859242e-01
1.976673335015312616e-01
2.097660421796960772e-01
2.233770288878535459e-01
2.008112188842268164e-01
1.402316032443620686e-01
1.785309654642504851e-01
1.943876401460563341e-01
2.114349793791673870e-01
1.859195782305363975e-01
1.747283501412908169e-01
1.783689194359877606e-01
2.196501786751201002e-01
2.136887766510710551e-01
2.002105759385728045e-01
2.342456030487138074e-01
1.986651034657875847e-01
1.333202132023021680e-01
1.236524232014162561e-01
1.719932390205448636e-01
1.682883919437796472e-01
1.851361155875990705e-01
2.043157290967294037e-01
1.873617129779582835e-01
1.505212836878196681e-01
1.875172434000967892e-01
2.020960039968748845e-01
1.494582461442799937e-01
1.787204037067318951e-01
1.723971430363575030e-01
1.573563163440570289e-01
1.883694821054852919e-01
1.756850276119152343e-01
1.144341750652766998e-01
1.121201936526457776e-01
1.017245931255344182e-01
1.091212426097674104e-01
1.243501174635277956e-01
1.332220058629031423e-01
1.186346869260463954e-01
1.903621158505250377e-01
1.134862664157129108e-01
7.543344521445081996e-02
8.068213014408648354e-02
8.461382113092996704e-04
6.817044159229176947e-02
7.736320166077756411e-02
1.026010251331099798e-01
8.000197719572699206e-02
5.444089958720133016e-02
3.153592097645138703e-02
1.519698160907156925e-02
1.187036766049064801e-02
5.231584417585510155e-02
3.157570763036250672e-02
1.249182523259405736e-01
3.471920169176431065e-02
4.254885845831337526e-02
5.540827594122596511e-04
-1.244748352822978854e-02
2.947291357448689891e-02
6.210243041232124672e-02
-7.390487134681204828e-03
1.748086009573818905e-02
-3.585411656960757476e-02
-7.479754058711776676e-03
7.319039362414334060e-02
-7.044798579913594261e-04
1.369133447628667621e-02
-2.213091400480390533e-02
-1.983382897679256129e-03
-1.034806959594467002e-02
5.249513054915215526e-03
-1.572247285414561657e-02
-4.148132100412808831e-03
-1.181207373377894665e-03
-2.406286059523860682e-02
-5.883652930833255246e-02
-3.917393292746947087e-02
-7.017222283407086036e-02
-5.714847607792600259e-02
-5.026811098516535681e-02
-4.891103256286237488e-02
-1.854171936155403488e-02
-2.598239391299360726e-02
-6.826932329220837536e-02
-9.225273007573912831e-03
-1.505821853687139278e-02
-7.360526229702395173e-03
1.247326090595084203e-02
-5.340468386988485305e-02
-1.627361476578056271e-02
6.554109447040275260e-03
-4.690788388833697087e-02
-4.156716416382252866e-03
6.934696091856734634e-03
-5.536838903624980573e-02
-2.035011245163746013e-02
-3.174159606108583470e-02
3.420935416928852502e-03
1.357960017776501521e-02
-2.957702708447319459e-02
-9.724074395173046281e-03
-2.708429400831637371e-02
-7.339721900295595458e-02
-2.882153719455280913e-02
-2.925308630998818202e-02
2.993503910884626196e-03
2.048200268801287499e-02
-2.750353752988285091e-02
-3.402173000062791441e-03
1.035591496712430504e-03
9.215198415295133838e-02
-8.412033877030170026e-03
-1.252480527494376217e-02
-2.190458566681400057e-02
-3.903670405023648704e-02
-1.389103980160844715e-02
2.419344436008441512e-03
4.645532406022320759e-03
5.290866301153281798e-02
6.359597296370353425e-03
3.614205071059868601e-02
5.057963220095303136e-02
6.028527335833049755e-02
2.937328890568129125e-02
3.592220348734978530e-02
7.308792454662701998e-02
1.199823642488339753e-01
1.338008598143616834e-01
6.940562894957616469e-02
1.576117260095818984e-02
5.673308237725457892e-02
1.479984010778522541e-01
1.373234195761472987e-01
7.018782359238789903e-02
2.376877981441652410e-02
8.158354440111351136e-02
8.788819095617847466e-02
1.025687352249396861e-01
1.563030291223822810e-01
1.144029380535839524e-01
8.002247472890058888e-02
1.482312949195962182e-01
1.025911262097154442e-01
7.881103501065953032e-02
6.524030033352977431e-02
1.146924968034278292e-01
1.263789496242862798e-01
8.878504360213818059e-02
5.595370276771338691e-02
1.189386836496618416e-01
1.419364815892449894e-01
1.789566369135912882e-01
1.479786612078008434e-01
1.471434883858085685e-01
1.338570465247354291e-01
1.851204132720545292e-01
2.108802770206925081e-01
1.292836190505103067e-01
2.245272866128233957e-01
2.443707076884963914e-01
2.568991922411739681e-01
3.070212635408542390e-01
3.663636913830360387e-01
4.750854559213992245e-01
5.090054588106073252e-01
6.065331870870416253e-01
6.597579074671858779e-01
6.860357377101532483e-01
7.683257146734674414e-01
7.948962508444327169e-01
9.138496628363682595e-01
9.549767669848754359e-01
1.035102120846045359e+00
1.097221788999229064e+00
1.152282012167556768e+00
1.251647867309009898e+00
1.219629416306805547e+00
1.321838763289636898e+00
1.294244368505021336e+00
1.294462291718580405e+00
1.276906213269582313e+00
1.288505996018546318e+00
1.240164485779266412e+00
1.153271689860177585e+00
1.087204328653214702e+00
1.108320482099987458e+00
9.820688079656484382e-01
9.457084209955952669e-01
8.412303596079083734e-01
7.627027791455388561e-01
7.054812299461024061e-01
5.917250054629022982e-01
5.960758304395976648e-01
4.943958582642051791e-01
3.814162094139340042e-01
4.091731479851030695e-01
2.890366614441475246e-01
1.983841875019992373e-01
3.208253078542807057e-01
1.836765998015816581e-01
2.603647788591839096e-01
1.372884091701755405e-01
1.745527596537650439e-01
1.364024097303153660e-01
5.578671781825355475e-02
1.382856429955262312e-01
9.898507588432375881e-02
1.037502134062253667e-01
1.127640330669968105e-01
7.687699833438346730e-02
4.333728220185718155e-02
1.505152207955939847e-01
8.448957790091368714e-02
1.803624100451433343e-01
1.078825270737541475e-01
1.411194689052956419e-01
1.329843603480981851e-01
9.959027398179981505e-02
1.557106747201756902e-01
1.641398435965716607e-01
1.324784158442173232e-01
2.011818090306294049e-01
2.040279639305882520e-01
1.636375096223106618e-01
2.135088483642964552e-01
1.716478865069508419e-01
2.102365151521461140e-01
2.255317808205234975e-01
2.209955622701024747e-01
2.482274397413173905e-01
2.250947466128734309e-01
1.879895887566897239e-01
1.885164417229092115e-01
2.206290423908716658e-01
2.457757263019663130e-01
2.623533312084246893e-01
2.116107895526525839e-01
1.798223785880422865e-01
2.058675582472654919e-01
2.160728328169065904e-01
1.839344261541920877e-01
2.078217412767884853e-01
2.756613847843323306e-01
1.999736952421376501e-01
2.348796710880836081e-01
1.345476846257921966e-01
2.121252006263566470e-01
2.475107603475294737e-01
1.995785633667185310e-01
2.990815403496724922e-01
1.930972850867591628e-01
2.415392255341763106e-01
1.772936170916940557e-01
1.828615045372988801e-01
1.815728351750320879e-01
1.695894812119833339e-01
2.426865347734178946e-01
2.463984942385616383e-01
1.360401976612284625e-01
1.858833746017197752e-01
1.429187749676877339e-01
1.951271106288782753e-01
1.987735165591369424e-01
1.096166671687659605e-01
1.455648010798409886e-01
1.336123542026624034e-01
9.554840480088200305e-02
1.153339776091690250e-01
8.279643386495549873e-02
1.420543291439139988e-01
1.615901046550006215e-01
1.518634471905400962e-01
1.583753688289127604e-01
7.886166903572811027e-02
5.667897575463380633e-02
7.661738170475490550e-02
1.632794632994533646e-01
7.837598637244758137e-02
9.529817874192365867e-02
1.469344269795614666e-01
7.534906328421706045e-02
6.483162816362914027e-02
5.982795761397143725e-02
4.444183599527946199e-02
9.538288297584547604e-02
8.594659321522898909e-02
6.280143348881839227e-02
4.502060215412229116e-02
2.717943780075506022e-02
6.040432571724976829e-02
1.205795544551891141e-01
6.938668039795066467e-02
4.053409255180261128e-02
5.902464999175353888e-02
2.706585574898685148e-02
3.907414729105872231e-02
8.329718708392420956e-03
7.905149530496598242e-03
-4.362508664439504469e-05
1.526574295950236873e-02
-2.222113783589538955e-02
2.000553493639519245e-02
-4.332047866155044891e-02
4.871525220737726869e-02
-3.199899536706377751e-02
-1.567961883282895097e-02
3.973829855730098837e-02
-3.555068435414728001e-02
2.106901094819589593e-02
1.083717521738799053e-02
-2.340840228750769303e-02
1.525732454925299297e-02
3.338767676173391014e-03
2.446737228710025788e-02
1.271101624320683521e-02
-3.292455169236942203e-02
1.979825711959297060e-02
-3.368575653766892053e-02
1.614367036494009436e-02
-2.475172027998812085e-02
9.704859826972288966e-03
1.777273771700125723e-02
2.842451259636492172e-03
2.811839788476847707e-02
-1.482869773986058778e-02
2.984044861614044974e-02
1.465924790355525170e-02
-5.148963144479653392e-02
-5.400211887151765144e-02
-1.791049137543693215e-02
-4.928012203558455526e-03
2.408295874065638498e-02
6.417386211916628613e-02
3.768954448459786721e-02
4.152184818072583022e-02
1.518992954886816057e-02
1.057417332023372243e-02
1.017092391097324383e-01
2.354137282442134854e-04
1.879666135143854416e-02
2.110738019905439300e-03
8.217301739687818407e-02
4.545382406985636059e-02
-2.764874206461943179e-02
9.198021026574552256e-03
3.717542721619666174e-02
1.994798648015787615e-03
-2.314816966643368570e-03
7.633672343046218889e-02
4.448066563077725938e-02
4.679291530405540328e-02
4.934003988285826092e-02
1.150489022237239922e-01
6.201696349191353208e-02
1.071125363578974560e-01
4.803458983855844050e-02
8.605165254577487599e-02
1.255877918439093632e-01
1.202835474961076317e-01
4.907227499787192304e-02
6.278660610246840357e-02
1.504115610405921677e-01
1.017378049965133174e-01
1.242704180930258862e-01
1.512502952697058756e-01
1.915151211026350497e-01
1.545811971123371709e-01
1.737745293867382912e-01
2.057227282543218350e-01
1.609697442495243991e-01
9.091141448025034932e-02
6.897080473922596877e-02
1.540987723729056180e-01
1.194426567535754324e-01
1.467198741470333578e-01
9.323504152649216004e-02
1.318527014494408345e-01
2.094229280650470870e-01
2.311108359308476079e-01
1.533596659175771315e-01
1.193260314271657185e-01
1.468377969788733639e-01
1.593570855963501731e-01
1.861791285379901240e-01
1.477160391161923270e-01
2.620463850739790934e-01
1.855461567988344884e-01
2.142973713507074218e-01
1.821150282731709424e-01
2.001377545074150832e-01
1.920358741795011870e-01
2.510916693671091937e-01
3.683595033772519289e-01
3.777693822838636417e-01
4.154797330600615290e-01
4.476483078216377254e-01
5.045603106283408357e-01
4.858436142240650235e-01
6.441141628603453961e-01
6.579863625148612005e-01
7.547528150198674624e-01
8.029527371319301610e-01
9.149187062927323089e-01
9.295201191646249583e-01
1.019106921406111921e+00
1.138679677955618308e+00
1.229379964636553080e+00
1.224019786787146513e+00
1.241389790765072609e+00
1.345320226796284047e+00
1.276075013659807578e+00
1.309143074773105653e+00
1.306152255188892219e+00
1.340651073806153004e+00
1.266863835684808981e+00
1.305105691584891092e+00
1.274083578461180144e+00
1.146455275296419440e+00
1.063327238490659354e+00
1.012844251778554527e+00
9.472815028744471233e-01
8.905182103117412762e-01
7.976831156404947665e-01
7.075809356000697381e-01
6.677977447322142046e-01
6.016719538135201217e-01
5.389393114862192080e-01
4.994951882703748680e-01
4.227192786217668918e-01
3.732264490954574354e-01
3.806683452785552535e-01
3.017085524134208163e-01
2.186325783725816818e-01
1.994460779720254873e-01
2.271819820610883889e-01
2.072673903059136791e-01
2.335698986021544354e-01
1.684951948193982030e-01
1.731661391312705189e-01
1.791026376740642023e-01
1.514421638558000882e-01
1.492362434341547583e-01
1.580863384937764016e-01
1.898602354238039247e-01
1.726413991035614937e-01
1.715942206291657668e-01
1.581026364316084898e-01
1.907910554970866646e-01
1.624830967304856932e-01
1.781808994186211970e-01
2.061245132809088332e-01
2.609825816240584073e-01
2.227644756704124929e-01
2.490766451415219185e-01
2.885560688192960188e-01
2.527007582634723803e-01
2.130589089236172018e-01
2.181433203104130303e-01
2.425566091307683469e-01
2.466364974568187596e-01
2.120896497017903393e-01
2.209230135328369427e-01
3.135592050357060567e-01
2.653218955693004144e-01
2.476114493723323429e-01
2.560915359581094619e-01
2.517152312704780681e-01
3.046884187725075743e-01
3.142013262371171622e-01
2.567911315641430714e-01
2.750761808738371728e-01
2.560939803453440300e-01
2.772355040285593986e-01
2.747703416429048140e-01
2.455041742085400935e-01
2.010783105726178244e-01
2.768817038190234947e-01
2.755344477445275664e-01
2.794287996464289714e-01
2.975866932013835897e-01
2.556300775820240512e-01
2.310423103383363319e-01
2.575414425749962821e-01
2.737586258372327608e-01
2.591727466328057061e-01
2.813161830798763807e-01
2.411979799193167406e-01
2.259959090934569592e-01
2.635494714845502129e-01
2.341213512691708021e-01
2.518651220867888507e-01
2.157251897616546399e-01
2.120468454111958390e-01
1.555418579236552412e-01
1.844517322907822665e-01
2.116298430652559792e-01
2.306876880087052051e-01
2.003502380821924056e-01
1.788841006755119700e-01
2.480160365506249853e-01
2.079206590870727456e-01
1.928600205964157155e-01
1.721039426207048306e-01
1.669883980923960176e-01
2.121909035141265332e-01
1.980703628019501450e-01
1.520759785271736941e-01
1.723233987284285562e-01
1.771950195630124514e-01
1.310660737881014781e-01
1.691362308084506383e-01
2.048984906420889818e-01
1.570429425055233641e-01
1.697634788162138975e-01
8.515582813329185263e-02
1.297714848133456889e-01
1.526139120319899289e-01
1.066962174940262742e-01
1.565617753224349262e-01
1.320027861263307067e-01
7.647871448270499029e-02
1.301045349725822309e-01
9.695187202837457496e-02
6.507388595260663045e-02
1.718295665264151229e-01
8.995727292116756368e-02
1.047462994653862445e-01
7.274973739862605759e-02
9.106061202689971767e-02
6.412195424768918350e-02
5.487635891070817562e-02
1.188035447998647409e-01
1.110803901792148385e-01
1.115918668291208948e-02
6.175840307243041227e-02
6.610459081957228977e-02
9.857436865729177211e-02
7.781575672115864650e-02
1.137547789827656752e-01
8.340951758352609102e-02
2.015431471776064909e-02
1.186335037615904586e-01
5.079302717255840260e-02
4.074441470880661720e-02
1.603863091059254051e-02
5.403796681327664719e-02
7.683477259928189751e-02
2.679819766863977132e-02
5.380384464279609757e-02
3.448407847664489156e-02
5.651616632606477203e-02
4.845009024822270055e-02
6.646707097120289898e-02
9.126989094841289618e-02
3.769502004989991328e-02
3.414696527283685168e-02
3.139669807475677782e-02
5.291451165239824395e-02
4.804235035719083696e-02
6.245005554341058474e-02
5.009030707505296443e-02
5.910429681866959106e-02
4.005069138834668752e-02
7.248033069472790968e-02
5.095878746745201304e-02
8.760096125538220646e-02
-4.106622167737174200e-02
7.424018077180065400e-03
6.092437848617480306e-02
1.059790762573551426e-01
1.054481414968197334e-01
9.682948029000028323e-02
2.210706916820667778e-03
1.100287938345135830e-01
8.188376455131091136e-02
1.142671391403058817e-01
1.007978608773523466e-01
5.681441697794663986e-02
1.243254300253399669e-01
9.826226645232098711e-02
1.262482125247341436e-01
5.679866846434911826e-02
1.077124454611136234e-01
9.291941275546217183e-02
1.083168555437413333e-01
6.708889263314135598e-02
8.611743431728222098e-02
1.390632798696411210e-01
1.452074554545908502e-01
1.339772085385093625e-01
1.309637045168645375e-01
1.454950287318727553e-01
1.779533472074242839e-01
1.605467881590063595e-01
1.928572995965469883e-01
1.180328516305523823e-01
1.722767925736360672e-01
1.991518007743008911e-01
2.108748955951448012e-01
1.677662977330232064e-01
1.969115303897719382e-01
1.701493027149611759e-01
1.968303987662017862e-01
2.401726366483228070e-01
1.250462716949230502e-01
1.884968159170549162e-01
1.739120350620489974e-01
1.925550062665524753e-01
1.935859293717725749e-01
1.753360122919866149e-01
2.031495100825865818e-01
1.967111925676865436e-01
2.556261882090555826e-01
1.506348353744250690e-01
2.039971902788465241e-01
2.218356119971456875e-01
2.094092605329312684e-01
1.980245232325114624e-01
1.906441167410601600e-01
2.304338684511469948e-01
2.109056055767755400e-01
3.239755589422631532e-01
2.920815966245741135e-01
2.902397562358968175e-01
3.060139190629950767e-01
3.352161238455993453e-01
4.005544343508867788e-01
4.239100085970419207e-01
5.021341361419061622e-01
5.075474330471723139e-01
5.815467109566005988e-01
7.039032142393026881e-01
6.952818791768191620e-01
8.302575535610987600e-01
9.184799661726839037e-01
9.352374372117275847e-01
9.639244426244450992e-01
1.110380858269291116e+00
1.167746135899407012e+00
1.250147952789471661e+00
1.288457209146756322e+00
1.274459576027397345e+00
1.386413153603061499e+00
1.394454110236651223e+00
1.377587645181616693e+00
1.398857369089948621e+00
1.352908954094592664e+00
1.323507773745619120e+00
1.311720505707904882e+00
1.274961075794417420e+00
1.203470423208612861e+00
1.054045788938070549e+00
1.021800107553863857e+00
9.892965393684135522e-01
9.207706394388459614e-01
8.614325112503158355e-01
7.697202381310469521e-01
6.665658007258385975e-01
6.024887094782427344e-01
5.273242826642060566e-01
5.037244530061180114e-01
4.518289292957396452e-01
4.144825289036736526e-01
3.498928223452489328e-01
3.099754474890134559e-01
3.334934563883157344e-01
2.206505105552635515e-01
2.342767474513253734e-01
1.984844453917950780e-01
2.191749691382560983e-01
2.242580859362943713e-01
1.982775869388781198e-01
2.108545582697710363e-01
2.394222537805524575e-01
1.192078183463912838e-01
2.622653771210792240e-01
2.229418427127637103e-01
2.257742379234913832e-01
2.355629421743319352e-01
2.617665025767801357e-01
2.658112015333832234e-01
2.539794975821446643e-01
2.389977443009942693e-01
2.888722394694005491e-01
2.768757936423205113e-01
2.220541929937013270e-01
2.889803922616463461e-01
2.479680702773601475e-01
2.414841913991967737e-01
2.468390276438943154e-01
2.053367503273346995e-01
2.393689082904718046e-01
2.905580506487823178e-01
2.713722360881730689e-01
3.048587017628169860e-01
3.209091267355365651e-01
2.567405497458210006e-01
2.698662293236493426e-01
2.784934920587183727e-01
2.851510455789039167e-01
3.435658782383874676e-01
2.661531059631790375e-01
2.846384797402279343e-01
3.397659543277635752e-01
2.685447442404461094e-01
3.040636158885335893e-01
3.384504536716992362e-01
3.083970961551646406e-01
2.894716446352703088e-01
3.109666911251857679e-01
2.865024459464162732e-01
2.884527519244471372e-01
2.320888597414771382e-01
3.372857362267025483e-01
2.810491817870096609e-01
3.118381993271156505e-01
2.876260827085929117e-01
2.773155099550519420e-01
3.083401369193768948e-01
3.080316048321823930e-01
2.133290374953065727e-01
2.638102065072172042e-01
2.834811243849035267e-01
3.007934933835428315e-01
2.731348506955964539e-01
2.006035644012274521e-01
2.781808056560858278e-01
2.284130745255115447e-01
3.125866662879561719e-01
2.472941051184766870e-01
2.274274494572789684e-01
2.315623805971860627e-01
1.481434060840216005e-01
1.855573919814307582e-01
2.380487054650941015e-01
1.979714534663793990e-01
1.868854892265086887e-01
2.166302806231619194e-01
1.950259645796215968e-01
1.749449922433614080e-01
1.931333134325491918e-01
1.972569833709557074e-01
1.434083848167580777e-01
1.782255694404346613e-01
1.509106348625053884e-01
1.297845774821285714e-01
1.257553896299399288e-01
8.889069256145387676e-02
1.821242473444281973e-01
1.414249447077172706e-01
1.513582430023154013e-01
1.218708890811852075e-01
7.563442410183746079e-02
9.514213310135535839e-02
1.315844776176453290e-01
1.795804016951466076e-01
1.077119668940731551e-01
1.108051039811967231e-01
1.079683135246687214e-01
9.777825375922688522e-02
9.545431675401010174e-02
7.662241191948516994e-02
8.350866996461037139e-02
6.869732096142214250e-02
6.919020031156120076e-02
1.032717511702283264e-01
9.112759961881930493e-02
1.010882738583737950e-01
4.074034943077928239e-02
1.352991577557258740e-01
4.198098500251717935e-02
7.541599178132413206e-02
1.086953740067929802e-01
3.786190479770422390e-02
7.733076081614335962e-02
6.148540006988460760e-02
8.227629417937717959e-02
7.831759275787045227e-02
8.677606885557392902e-02
8.675108007759105289e-02
1.051595064884341263e-02
-4.397451164426739723e-03
2.692471510000947477e-02
5.735659484643770151e-02
5.595099329194969107e-02
1.614528531915440657e-02
7.947643116387843876e-02
8.556621588657123412e-02
9.056176991629708017e-03
8.468394105747562017e-02
6.506781564550793984e-02
6.953227700351614915e-02
3.406141577954747285e-02
5.415410141025853857e-02
5.011601628092669097e-02
7.301482878494008899e-02
3.728624947972029174e-02
9.070286344572794923e-02
1.420224934388549312e-02
6.266525784535401100e-02
6.104570565529925108e-02
6.865221665916203253e-02
6.497642672572256917e-02
4.514119174131789314e-02
1.435522292676968958e-01
6.779970070680216288e-02
1.125156287250716619e-01
1.045182905459774297e-01
1.033249305073181967e-01
1.285381918454722439e-01
1.153514321671918613e-01
1.070951367778026908e-01
1.598973044293368062e-01
5.922935084669189026e-02
6.794485233196137508e-02
1.568514568265185760e-01
1.189457363005224505e-01
1.519651007919974872e-01
1.027998738569458614e-01
4.076864259033376181e-02
9.305671813715916951e-02
1.222704071553583349e-01
1.498786395652822734e-01
1.406910278054795960e-01
1.078260341671573169e-01
1.516845509966297523e-01
1.214596448424159342e-01
1.216205943211366852e-01
1.613598701662551371e-01
2.158923335747580108e-01
2.302006949743417574e-01
1.931447624198531221e-01
2.377752825594006136e-01
1.974062479680085136e-01
1.694559503643786325e-01
1.649473674304086368e-01
1.661787772916117900e-01
2.191698469934850735e-01
1.640235243958461653e-01
1.812533116794182719e-01
1.885286639007418275e-01
1.651067640146064996e-01
2.369161001526804422e-01
1.956316262528485506e-01
2.187691771202420199e-01
1.899169762611513934e-01
1.666833980969129880e-01
2.166046751167155504e-01
1.932348245590080338e-01
1.861239993955020322e-01
2.307048926016390389e-01
1.722617039471026623e-01
2.243934293710345695e-01
1.897883146188643899e-01
2.491767769691957679e-01
2.556366136791716759e-01
2.666633880336585771e-01
2.805564408449147118e-01
3.379178450625523467e-01
3.686601879668466308e-01
4.333502543996803347e-01
5.020676684512267451e-01
5.227736246261477371e-01
6.037738001969763513e-01
6.331335078217030787e-01
7.396686741280033006e-01
8.069372698026496815e-01
8.712431694248430336e-01
9.567839722736490859e-01
1.047906812109739683e+00
1.084753687966456770e+00
1.131753707723042846e+00
1.185373730310417040e+00
1.260070801875060598e+00
1.347730698136720529e+00
1.336017725620395780e+00
1.327980517613921885e+00
1.353891224444963237e+00
1.339444031525800938e+00
1.338071087932170888e+00
1.257859080661864581e+00
1.279345017928029904e+00
1.166595416409301755e+00
1.105395192683164662e+00
1.067144429274681450e+00
9.600823719642463949e-01
1.002380196667550294e+00
8.361031506775902233e-01
7.789256204236933989e-01
7.097955461997601523e-01
6.632595437227600810e-01
6.059336923153587628e-01
5.572919364281619936e-01
4.937595285541722112e-01
4.250450949558679525e-01
3.523044102051429705e-01
3.423402925832081944e-01
3.112439639302768679e-01
2.361041117054687999e-01
2.228161590795711966e-01
2.224870145823048539e-01
2.477636089066849456e-01
1.830873116638420672e-01
2.384052670053668221e-01
1.772998603977988252e-01
2.221083476949799185e-01
2.203729718780716440e-01
2.197056573528098911e-01
1.903044056844223897e-01
2.559648334041747519e-01
1.704116887645509282e-01
2.144650652161103066e-01
2.470149840215386250e-01
1.183235530214296893e-01
2.450603679914230282e-01
1.736493987183855559e-01
2.373365866822103321e-01
2.131330385284390672e-01
2.826796722617921920e-01
2.231393008112398380e-01
2.560508677352794638e-01
2.662104850096477238e-01
2.346910325246900075e-01
2.466298383837382535e-01
2.591179206640094046e-01
2.703106160828298021e-01
2.101018192653259509e-01
2.271910960704806026e-01
2.227066319514051096e-01
2.625771031357408969e-01
2.536712690453608032e-01
2.282306883810405751e-01
2.682385351155597286e-01
2.634897972020477930e-01
2.884736111697310812e-01
2.302098551769136969e-01
2.796823536547307087e-01
3.047250155534170224e-01
2.452589822496103744e-01
2.361623596827705507e-01
2.863067611860783401e-01
2.605131552834393793e-01
2.645190209670648107e-01
2.599715467236930477e-01
2.856685718945431440e-01
2.638050102279816400e-01
2.308762692331120248e-01
2.500276449341816143e-01
2.705937355648478926e-01
2.249502084942267832e-01
2.336508035055371857e-01
2.228631056694691248e-01
2.297135415347942855e-01
1.910434853076061479e-01
2.298447027561321410e-01
2.665391488386111285e-01
2.419675447282146896e-01
2.075875683169303709e-01
2.355468218472686892e-01
2.137228555489300574e-01
2.097504348778853611e-01
1.125900122184481378e-01
2.070271446337869914e-01
2.078723162517957523e-01
1.902591625849166523e-01
1.808589420862732888e-01
2.431726129780759083e-01
1.964654165356234938e-01
1.452927705674556536e-01
1.770640298014810321e-01
1.917309197032758261e-01
1.438991701271380985e-01
2.642515018596933718e-01
1.838299032732985672e-01
1.515433949988385653e-01
1.148208418644667550e-01
1.132936636761653626e-01
1.386623915200307089e-01
1.337886852340866850e-01
1.271021858752018341e-01
1.144831849448613714e-01
1.394203378220895961e-01
1.063789406869959375e-01
8.770378121798134974e-02
1.445240519271475677e-01
1.024998570554445515e-01
1.404705825956648613e-01
2.325018300575011632e-02
4.704587539508667954e-02
-2.709454126011215380e-04
7.674203779585754559e-02
7.690316039604505605e-02
9.712513656254206929e-02
4.741848145224364375e-02
3.190194864870728175e-02
4.402837542838326790e-02
3.774909486810657661e-02
-4.771341923419423516e-03
4.429221921966804837e-02
-2.439413186337798314e-02
3.455577440765929265e-02
7.650766743395862046e-02
1.094387176521305349e-02
3.193174806148333517e-02
5.381067681786608908e-02
3.168772069286278359e-02
5.577179160198709323e-02
1.091627652624932790e-03
3.979688018757629453e-02
-2.619294492135480074e-02
1.783474098364508723e-02
9.815101181755440246e-03
9.319294328589767043e-03
-1.929064768289093582e-02
-1.094939881000168806e-02
3.095736008511910248e-02
2.858985365639651194e-02
1.291081933234099893e-02
2.239384331837464704e-03
4.163872125997546830e-02
7.235765876533633775e-03
4.375980695860891279e-02
-2.043041040646827178e-02
6.691292553281072419e-02
5.243441817069182526e-02
5.359326223689620666e-02
2.011228912045618517e-02
2.099968581061864223e-02
5.976721023378993129e-03
1.464200136207158796e-02
4.121440587152509771e-02
-2.579084461962191308e-02
3.163081571565302952e-02
1.888866545126237709e-02
-2.853558012834079421e-02
3.271004182082174611e-02
7.492226697868591134e-02
-7.822954333060551380e-03
2.346015429901153124e-02
6.570431754825832582e-02
4.316109147304990519e-03
1.780540592166780095e-02
5.587008416510872572e-02
3.639186990040071262e-02
5.285049154031313395e-02
7.963464427311037208e-02
6.253823643841366353e-02
1.118495171073932565e-01
8.511221034856120138e-02
4.587757842652710055e-02
4.831684664146166513e-02
5.272896052808628831e-02
1.148579219491330239e-01
7.217683600446112013e-02
9.736750773178561025e-02
1.079375394361502816e-01
1.040103566136312413e-01
9.733045797176380354e-02
8.416357501540894237e-02
1.166795500095842153e-01
6.965908335817014296e-02
7.315590903145907653e-02
1.372970585191562454e-01
1.552519369772950297e-01
1.685579936366492781e-01
8.415223497875234937e-02
1.292588842840457219e-01
1.701041807673697726e-01
1.020161434549367446e-01
1.432462338729741935e-01
1.611902007574790574e-01
1.132573456628117869e-01
8.900273189545172825e-02
1.181340092162025124e-01
1.835759953186803517e-01
1.479612896351803486e-01
9.771858082223298936e-02
1.476979229373762137e-01
1.114502061115124482e-01
1.346551385893096087e-01
1.312123586058777658e-01
1.295049593365809326e-01
1.948258006470400816e-01
1.329053094588161510e-01
1.644442903798400690e-01
1.374326688166313815e-01
1.444141777062755705e-01
1.322370873513443179e-01
2.259853083209912294e-01
2.208760326532873963e-01
2.626597680740362373e-01
3.286997679125501226e-01
3.466112015807641389e-01
3.887530546871352799e-01
4.321058353727301737e-01
5.086434608006977776e-01
5.987360161920778356e-01
6.508353233806267735e-01
7.051114178429936930e-01
7.663008540195931362e-01
8.153646588877109247e-01
9.124472893310416888e-01
9.940107393443874395e-01
1.075597032553355703e+00
1.120515532469360531e+00
1.113032870393847906e+00
1.216485632868193667e+00
1.251976421129339156e+00
1.323867750181881409e+00
1.350233030770661369e+00
1.310315768556927329e+00
1.275743379397535016e+00
1.255243555545483725e+00
1.225978694476098196e+00
1.163719089175976107e+00
1.168795995385712327e+00
1.147622619593741344e+00
1.050614743169431264e+00
9.505771723337841372e-01
8.836777694287810681e-01
7.497572221918621382e-01
7.232779593428394493e-01
6.640991469612965714e-01
5.783187254498479701e-01
4.920953986074510511e-01
4.569239816963948098e-01
4.040950241662266129e-01
3.570084744789221998e-01
3.050631519650220946e-01
2.399122968806175205e-01
2.283974554795111245e-01
2.150933446999007681e-01
1.913903780725082215e-01
1.286833602888993733e-01
1.464779552031390819e-01
1.211979224920450848e-01
1.377675213113032093e-01
1.505972908668734844e-01
1.487250411501190583e-01
1.287829247714651904e-01
1.059395984837582655e-01
1.444031058105522403e-01
1.038351827727694299e-01
1.402706555341736161e-01
1.123249438771373732e-01
1.249598514764498208e-01
1.446179134529478605e-01
1.159998579588965018e-01
1.028911406862380445e-01
1.495600967285504179e-01
1.813928279700318114e-01
1.730225346345834747e-01
1.871354397729599051e-01
1.728736194213664756e-01
1.648322964021871895e-01
1.680631491700937952e-01
2.105411079862453683e-01
1.646447212042588815e-01
2.338284492530154079e-01
2.098216477894142007e-01
1.774833065673727117e-01
2.197888047879325291e-01
2.023434959588798765e-01
2.192618484384241395e-01
2.397368458548071180e-01
1.988134251957378584e-01
1.845629445967911508e-01
2.590469726801187256e-01
2.064727645513596554e-01
2.037676930039103718e-01
2.348244429358606056e-01
1.894657737565637601e-01
2.040157595086154463e-01
2.264761702756311057e-01
2.716338827047660720e-01
1.732273412960700920e-01
2.036288174143043306e-01
2.168381596184195681e-01
1.766926549325717466e-01
1.632618027139154104e-01
2.600522906657037892e-01
2.141806277465953812e-01
1.899067769243117376e-01
1.362754504592648686e-01
1.617159248847074016e-01
1.539647340217412952e-01
1.700257445398865863e-01
2.070191399293756507e-01
1.922130028607686725e-01
1.853049596705541591e-01
1.529151898306061463e-01
1.616050248247787591e-01
1.822936849943520565e-01
1.804329933904321726e-01
1.645548598909456206e-01
1.267061646019966292e-01
1.376798913838696015e-01
8.494410493594782563e-02
1.144147240721105907e-01
1.497152964017939292e-01
1.222518856986032354e-01
1.466669372230593460e-01
1.151773939132912511e-01
7.087414710621206537e-02
1.271536509674829341e-01
3.061156934021926068e-02
1.019713065340364655e-01
4.518506537094670733e-02
8.247503171677328382e-02
3.646309008638559668e-02
1.193758908365036009e-01
7.612501503110377654e-02
5.695086468399020163e-02
6.260460307145535030e-02
1.027589657439512416e-01
6.802489475034728672e-02
1.868838232082382922e-02
5.335141685950194057e-02
5.063520236201946023e-02
1.125146078174320274e-02
2.551587170934893622e-02
2.593273047029880096e-02
1.072206900990564649e-02
6.496246126248493569e-02
-7.730524464060889445e-04
8.646995250258776577e-03
5.144788210122475808e-02
-4.199364929271894031e-02
2.206046588090205401e-02
-4.842770321042124543e-02
-7.758545403452152267e-03
-2.442040315799822933e-02
3.249155031654784448e-02
-3.131468627038261343e-02
-1.708961530458126196e-02
-2.954946376566172650e-02
-1.369240039780367235e-04
-3.648724772839499753e-02
-1.201213411703670741e-02
-3.002597714030965509e-02
9.374062905220609254e-03
-7.819621633436894814e-02
-4.628256128629326671e-02
-5.454453358094953075e-02
-4.013174090126248039e-02
-2.548823860691652732e-02
-3.712606820952638054e-02
7.863420264385787006e-02
-3.161791941163770436e-02
-8.867201741610973575e-02
-6.828724108186065567e-02
-5.450126515521602072e-02
-3.243143898024253291e-02
-1.561223883744368782e-02
-1.806154478471482666e-02
-3.179887119268597767e-02
-4.729422071046815446e-02
-2.257074216787626278e-02
-6.311061755845566446e-03
-2.688346745157867493e-02
-6.573348933444472797e-02
-5.425506478932383414e-03
-3.323621914730170296e-02
-4.314195406206941530e-02
-3.333468526805023757e-02
-3.474222337383939263e-03
-3.859426081045889273e-02
-1.521146460041000736e-02
-5.586668947772657767e-02
9.441402636210918797e-03
-3.975773684671814190e-02
-5.395493487834462226e-02
-7.790951630092343705e-03
-3.666507066178056190e-02
-7.135195842860327098e-03
-4.822405867113531419e-02
4.907801137116366008e-02
-1.343147666747245006e-02
-2.399993084857200698e-03
2.446519082862253641e-02
2.339589499420121482e-02
-2.027363608693186214e-02
3.034928357485153216e-02
3.789031887828843426e-03
2.719559477703392680e-02
6.318647918757386295e-03
2.042222794031840760e-02
6.935222161774357019e-02
6.457004566256097089e-02
4.459951411046902264e-02
7.537178397489387172e-02
1.031955776354699372e-01
9.486663282495549909e-02
5.632555142177652491e-02
9.649611688422371492e-02
6.007819154195457451e-02
8.966342588092543475e-02
8.003910779568887413e-02
8.754189796695388548e-02
8.667228427639966926e-02
1.051043467346735594e-01
1.065915672671127190e-01
1.057918199532792425e-01
9.672960123033280677e-02
1.142850536833662500e-01
1.153829530592435093e-01
4.584645041961765699e-02
9.129815231935506370e-02
5.882430299276711350e-02
8.244713716798285352e-02
1.101090406503666408e-01
1.351039624940398864e-01
7.872211134793608012e-02
1.203475406747621934e-01
1.117885728476186169e-01
6.782517052670282431e-02
9.260546891244531009e-02
1.200079878909719733e-01
1.443930106755311471e-01
1.309210995854371562e-01
1.628614169818773383e-01
1.926384064288790554e-01
2.147214463579494859e-01
2.427530963458851831e-01
2.424685892473094906e-01
3.381147623517248846e-01
3.427538239977324652e-01
4.218381703421513196e-01
4.831262224702086439e-01
5.511454711822547647e-01
5.571716799893683403e-01
6.571007786319632560e-01
7.077054615659018610e-01
7.863946470413539780e-01
8.780314943589412335e-01
8.909374343900877680e-01
1.056041258396933635e+00
1.136501111425281207e+00
1.172923101134713431e+00
1.218646875941644891e+00
1.203897401283217761e+00
1.229180194916404512e+00
1.267975499041407383e+00
1.338240904421871491e+00
1.212706997684859012e+00
1.237265841342111372e+00
1.218365283828658496e+00
1.225310363666853863e+00
1.139339771315356797e+00
1.072575655859333565e+00
1.003456110948549140e+00
9.254736136150889525e-01
8.044685246334810635e-01
7.421171557500361171e-01
6.840003211788786563e-01
5.953712133127834205e-01
5.397460697539846475e-01
4.504123616679386322e-01
4.473050329265925162e-01
4.115687008935429714e-01
3.065247181564286771e-01
2.865637933409986848e-01
2.764765694519973893e-01
1.419064874171719892e-01
1.854304918619589793e-01
1.601794431451727396e-01
1.402942436584469765e-01
1.322185340906076312e-01
1.174526102607013484e-01
1.073296067156619682e-01
1.356437581729635633e-01
1.410477348658645547e-01
5.378356926858622600e-02
8.314047947442061715e-02
1.082033696285144425e-01
5.764880934545602714e-02
1.401721574975934859e-01
1.595035024354417852e-01
1.179791178558059483e-01
8.823920031979223810e-02
1.080305985749910463e-01
1.050794809422331555e-01
1.762763977073121824e-01
8.040406287005978647e-02
1.396280709851731028e-01
1.572110319687907154e-01
1.975476670474503316e-01
1.869431134060329514e-01
1.949934745630541866e-01
1.584846071042324001e-01
1.914371058452448426e-01
1.372631354957429273e-01
2.359064979170502063e-01
2.048413261492450788e-01
1.596378225156075137e-01
1.999847776521727627e-01
2.009078015140898787e-01
2.176261310982466612e-01
2.625752235751364072e-01
2.052505548853396367e-01
2.098478790038594277e-01
1.811346312437491779e-01
1.724867101939481506e-01
1.763482350195212101e-01
1.676459729184909264e-01
2.198529560831143093e-01
2.217378141259997992e-01
1.916047314914268163e-01
1.786189829981917332e-01
1.370227020908451609e-01
2.276776072656885030e-01
2.366879609672689899e-01
1.525934312566957218e-01
2.138969688356243126e-01
1.587068231733970713e-01
1.406292905387746262e-01
2.236323984502600337e-01
1.574234004833519607e-01
1.570875569495069901e-01
1.837063757849261569e-01
9.839460562098190088e-02
1.255508559575986005e-01
1.439591860967042170e-01
1.880492513772925867e-01
1.114103248338098179e-01
1.676031316458500009e-01
1.729595133243751470e-01
1.266130763178201502e-01
1.715782360656363248e-01
8.646321128739992146e-02
1.647063191487552758e-01
1.427718241537309640e-01
1.390238335916201828e-01
7.884574936309893256e-02
1.048834750596888549e-01
1.529780460354443761e-01
9.900044894233761550e-02
9.695633787236238033e-02
2.040928901453312877e-02
8.904328175691771097e-02
9.854441936611113562e-02
1.118234628877706471e-01
7.559945555149971685e-02
4.654739832992775550e-02
2.158941839012630537e-02
6.506113009644175216e-02
3.429266484266556975e-02
-9.050269476169527094e-03
3.252002446569149385e-02
-2.116366390699883637e-03
4.418139614448122338e-02
4.830529148326376948e-02
-8.322289776998698096e-04
4.826656682970664747e-03
2.136560063454724656e-02
4.869938266817790129e-02
-3.150717746309268652e-03
2.055744463394779120e-03
-1.046187158513262397e-02
7.649918536120486889e-04
-1.257516193601124557e-02
-1.380468622811686918e-02
1.843058075263830781e-02
-2.504152796082937879e-02
8.509301827637909266e-02
-4.154646741448018987e-03
-3.238045934923708402e-02
-5.593799030008689277e-02
-2.252006027695488410e-02
5.196443620492970789e-02
9.672400412818180082e-03
-2.255292316694426646e-04
-3.363432441195398498e-02
-1.765634379378901511e-02
4.329604740168951221e-02
-6.784809878625891466e-02
-1.939699817025647768e-02
-2.993604627057330075e-02
-2.874795328480860002e-02
-5.308294640853733481e-02
-1.048930443325858664e-03
3.014623969429090777e-02
-5.206357710109922599e-02
-6.593600954473020914e-02
-4.238023358992697165e-03
-5.254093971244488959e-03
-3.269718662968663231e-02
-6.378658258218217192e-02
-6.719006208432812266e-02
-5.519568024221642444e-02
-1.435328100289703229e-02
-7.073776069866102856e-02
-7.170983878687087199e-02
-1.425978358122896028e-01
4.665900930441401612e-02
-2.413772184150850611e-02
5.497080581493618556e-03
-6.255338769235105345e-04
4.631025181663139118e-02
1.592903661722870623e-02
3.467499524036300046e-02
-5.336128164070605417e-02
-1.078794411454867680e-02
-1.811033961222966587e-02
3.839901523119961663e-02
-9.246267699160273801e-03
-3.505842001607223368e-02
4.293215248599831224e-02
1.406090840421771182e-02
2.388877577695793647e-02
6.046492279442775009e-03
1.993469005350648193e-02
4.558599345707110839e-02
-4.759686597744224729e-03
-2.911230273256237844e-03
8.753001149450242990e-02
1.707878014735456779e-02
4.470594776943467852e-02
1.358399339055675614e-03
6.565148600027295722e-02
1.817534086459915085e-02
5.842814059976057794e-02
1.127215419432592985e-01
8.572320960324222860e-02
7.365143187216485754e-02
1.080410109920160733e-01
1.104663208073699554e-01
5.473277448867470973e-02
1.113708418393817290e-01
1.508159821001031076e-01
8.863707879058613237e-02
1.343741759554491211e-01
1.285507085024830409e-01
9.723662477081883304e-02
1.133013553050099542e-01
1.453968519096765777e-01
1.386251788521721262e-01
1.450068238189520520e-01
9.814591224962923577e-02
1.670046480943306322e-01
1.494652657176378518e-01
1.338728690179314396e-01
1.495330761221904114e-01
2.702363680103837817e-02
1.012900108727655957e-01
7.417941410356990173e-02
1.196268316420968925e-01
1.430069230324455543e-01
1.633312748141385329e-01
1.361125841181755336e-01
1.624091378978258782e-01
1.159599447893078783e-01
1.820451039135177473e-01
2.375528297042988346e-01
1.598066822596377057e-01
2.276180010307413404e-01
2.730087014231744047e-01
3.138273480480719968e-01
3.949695660831910038e-01
4.215119072977371872e-01
4.560980782253180044e-01
5.064500676372437615e-01
5.968170224796699452e-01
6.433453295323735555e-01
6.642844517153437822e-01
8.178882550405299767e-01
8.297754154856367137e-01
9.383422872871696185e-01
9.638406245082933310e-01
1.083828649220906160e+00
1.132542206743018198e+00
1.174417695030439912e+00
1.238862992673317676e+00
1.332031880411013169e+00
1.273456540697705197e+00
1.336827143302317111e+00
1.324968318136016343e+00
1.286908036472244943e+00
1.283029210625585614e+00
1.214191265964081445e+00
1.174884547812765190e+00
1.121683088968043140e+00
1.090539117532324243e+00
1.000269019053632746e+00
9.311939304544174512e-01
8.978072947465038922e-01
8.208817166224757766e-01
7.818779812700350496e-01
6.412373324421739573e-01
5.840658423194642346e-01
5.239740941745337777e-01
4.101457752539666712e-01
4.384711465334580893e-01
3.026704703877706737e-01
3.309753077910507213e-01
3.135756407249843947e-01
2.843519085128399793e-01
2.189686289904338168e-01
1.901535179321815483e-01
1.597350474238784512e-01
2.133817463607983189e-01
1.831993287029148876e-01
1.547947968405458674e-01
1.837234574134637144e-01
1.370308164265839068e-01
1.459308079318708540e-01
9.506612225464983190e-02
8.452002182121155782e-02
1.362361449719486362e-01
1.652480636244719470e-01
1.822435008466594952e-01
1.801633337591585782e-01
1.948310908151080489e-01
1.461942062137367715e-01
1.744297484307015811e-01
2.340010439526718777e-01
2.080205888661479097e-01
2.218490804595978638e-01
1.335187869370940972e-01
2.338420969644951219e-01
1.644999205441954881e-01
1.917029639707136801e-01
2.244857063714578993e-01
2.304463294429128506e-01
2.030032183134058976e-01
2.181141291666157112e-01
2.207206671720968738e-01
2.057928256933163891e-01
2.189151278313110072e-01
2.709928386054494820e-01
2.499099441877531691e-01
2.334251224773184197e-01
2.751675760422587214e-01
2.550184216364275724e-01
2.357371583218136335e-01
2.458694574089607954e-01
2.611750781098696739e-01
2.326008364970506281e-01
2.738295953960909190e-01
2.382577791389701438e-01
2.548633178482033190e-01
2.210990642740713330e-01
2.731823192632259478e-01
2.172636171454115084e-01
2.693566093596347355e-01
2.344384996860080783e-01
2.546155382945242684e-01
2.852168365068422085e-01
1.872250576383279741e-01
2.797366663003906240e-01
2.657609569024844132e-01
2.125714329219536847e-01
1.898336317203829504e-01
2.552521033346711321e-01
2.724714996305337422e-01
2.432805198842179495e-01
2.185641128932385158e-01
2.021937708833223823e-01
2.111310708295739136e-01
2.302818287049787638e-01
2.108684287869755647e-01
1.963561190093653375e-01
1.998150128775744994e-01
1.637664830718771058e-01
2.243994799795119011e-01
2.021597407303596106e-01
1.346887368075177505e-01
1.039323001457878592e-01
1.324612872079584391e-01
1.585658662879928793e-01
1.111372306612186805e-01
1.801718668736506102e-01
1.405901384762741346e-01
1.825576850628602421e-01
1.423574943784516877e-01
1.374215794703975702e-01
1.519714022514528362e-01
1.443420058801157813e-01
1.066348593686045343e-01
9.118596529041189669e-02
8.766481372265286232e-02
1.423256654753579098e-01
8.730247433496396425e-02
1.674736831454382013e-01
1.048373105665981325e-01
6.467766543887770725e-02
5.694016497240565050e-02
6.676741802962769812e-02
3.954199242349598631e-02
8.815955250345376693e-02
1.128305826254954181e-01
3.254445808098038045e-02
1.038986586003044083e-01
7.026673326999001434e-02
6.550174378412512710e-02
1.899163459903671636e-02
1.013700544482201565e-01
-1.532581593164820954e-03
5.301178090747606098e-02
9.502088490722089553e-02
5.646488491065806276e-02
5.477596187368478226e-02
1.288684468665075161e-02
3.627358404207499387e-02
5.955661113463220357e-02
1.589044474546654276e-02
2.828247760024257818e-03
3.492602115083227876e-02
-7.115301578310570529e-03
4.960360793023558396e-02
3.375862413022127917e-02
3.672099141016339774e-02
2.645593659046424628e-02
2.251717517214655087e-02
3.891434776274101115e-02
3.354755872857263788e-02
2.349977363526661867e-02
2.393100332402092745e-02
2.824668585157218831e-02
1.010369149566082841e-01
8.835402162053025699e-02
5.649998698765000549e-02
-7.762245088886208372e-03
3.538902382746534486e-02
4.974799248352416992e-02
-5.512396766910940965e-02
6.110003612944849005e-02
6.332057212848715699e-02
3.703529621880131961e-02
4.154603367168666073e-02
4.907376693072834639e-02
3.180434186773784672e-02
4.552921367970630406e-02
6.025285267906040770e-02
4.519407369466353630e-02
5.504570407798035914e-02
5.537969362656457173e-02
5.343914437623589753e-02
5.600691572193765289e-02
6.984474220176911663e-02
7.072394974146538338e-02
4.084724419135039863e-02
5.050600222374756337e-02
5.790013451716156945e-02
8.798231679043518050e-02
1.463975652820956319e-01
8.324425898301919535e-02
7.672227008967159867e-02
1.295987609744270186e-01
1.066891908113045129e-01
1.118575917654676538e-01
1.229728632444739428e-01
1.522521852280819266e-01
9.649331903429944624e-02
1.927729241919121927e-01
7.517526678413355423e-02
1.634786791977003717e-01
1.406966809182816636e-01
1.849294865265194154e-01
1.896650847144428220e-01
1.551149262177035637e-01
1.277658471231546133e-01
2.113359632406164035e-01
2.085075341123929227e-01
2.222161571537425440e-01
1.534884319018298415e-01
1.870920926367356518e-01
2.053416626276216850e-01
2.002754463016391262e-01
1.790770562193055859e-01
2.078181485299648856e-01
1.197942132430775131e-01
1.558827581456277422e-01
1.755236610818665666e-01
2.416810023264469587e-01
1.598872792290866041e-01
1.604278757986197790e-01
2.065811178933437964e-01
2.044003164935858652e-01
1.873377442852223462e-01
2.326878293933967445e-01
1.976802483623907314e-01
2.240225056749232113e-01
2.085196958566249148e-01
2.226459325026425295e-01
2.046394810171976997e-01
2.888737210147648837e-01
2.327893991951918706e-01
2.950263444879845931e-01
3.231900143378767520e-01
3.960289577849009368e-01
3.770591000694224482e-01
4.409034356243501374e-01
4.973744999448325155e-01
5.877730853021502222e-01
6.418606868564386003e-01
7.243606089055488750e-01
8.187219516855236412e-01
8.098854561060451207e-01
9.263369314295292201e-01
1.009979860810744867e+00
1.097436046193287940e+00
1.151996923987598676e+00
1.212376565851906784e+00
1.289374614306760591e+00
1.319427670386868812e+00
1.310923813792790549e+00
1.375903591015491312e+00
1.315203972937375232e+00
1.358489196347445915e+00
1.349809114213901706e+00
1.337345615941027521e+00
1.271194567801498865e+00
1.188893841107070415e+00
1.158167624708815069e+00
1.090001795205614021e+00
1.080518324415496334e+00
9.847055076898783010e-01
9.208676318683155504e-01
7.924925340881699976e-01
7.481733936735337487e-01
7.215604943923962233e-01
6.643472672020492853e-01
5.931475813549865750e-01
4.984051715414679617e-01
3.946596189340679794e-01
3.632050364461287262e-01
3.928229187846208337e-01
2.778739829952718843e-01
2.735503406047097297e-01
2.495498063015764156e-01
2.067178225946341430e-01
1.622703381950615364e-01
2.586987703388160531e-01
2.141556164046818922e-01
1.582599139993239035e-01
2.185203265780284732e-01
2.013997338920719415e-01
2.156753457389385398e-01
2.070692497653355002e-01
2.296853021056535216e-01
2.601058456139154762e-01
2.040443094089396392e-01
1.823712154803124319e-01
1.436903991429085425e-01
1.996179875719114594e-01
2.095677217954926286e-01
1.791455974813674079e-01
2.381371773903718514e-01
2.704851830768445486e-01
2.352916693287673555e-01
2.689799803577290205e-01
2.193793096881913596e-01
2.875773816747037026e-01
2.247122461314784159e-01
2.993684401804898032e-01
2.651476431462492789e-01
3.159913722400184977e-01
2.523632585281191387e-01
2.576169437628539338e-01
2.810519971006073536e-01
3.130339822242191872e-01
2.816648026703462704e-01
3.002740018587820026e-01
3.004619782452518928e-01
3.029646154385629564e-01
3.266108844960865509e-01
3.105826295299792261e-01
3.252268745230605385e-01
3.413900625089439367e-01
3.167037063868421432e-01
3.093886233352433623e-01
2.823326653589355306e-01
2.639079473569122536e-01
3.058957075087577193e-01
2.662598813491788285e-01
2.584822492773281022e-01
3.025143321870781832e-01
2.643893881155869874e-01
2.695304357516526972e-01
2.425370092038498515e-01
2.744504343591734896e-01
2.961774562975737490e-01
3.005547783667141259e-01
2.914988288517383896e-01
2.022491620998154715e-01
2.660997563865011295e-01
2.472854969375154754e-01
1.822800790922354530e-01
2.365529326595951498e-01
2.393988814856957137e-01
2.266310003476317281e-01
2.387636820470700749e-01
2.312324496591448841e-01
2.452879659952177660e-01
2.743646734068871940e-01
2.496656078066005757e-01
2.285757942592817615e-01
2.247720138367145515e-01
2.070415424346567224e-01
1.953201349295379252e-01
2.693265123490249380e-01
1.830722712301794952e-01
1.801963399683421396e-01
1.945068319634534193e-01
1.777667243331159663e-01
1.146537239731514890e-01
1.580974887061051271e-01
1.326702436813160246e-01
1.485215017997684739e-01
1.785227083495719569e-01
1.679560619165174074e-01
1.457947413222449029e-01
1.238528284351618630e-01
1.140970505855374295e-01
1.056798866277141868e-01
1.517514952361878056e-01
7.504258518826795177e-02
1.067885149246608767e-01
1.560905981282615096e-01
1.245215366219968589e-01
1.415174541436158839e-01
3.581648729951821680e-02
1.924648792441830958e-01
8.010041049738295116e-02
1.143467449633852884e-01
1.266136768106715382e-01
9.639407490324639061e-02
6.826835152532935436e-02
2.265406009718677616e-02
1.646257977336534339e-01
8.244059192166780514e-02
4.661435927064968426e-02
1.061898495541840348e-01
6.538050962837468894e-02
8.573041589522761852e-02
1.612472296687915418e-02
1.465274431434254038e-02
1.002908344928903350e-01
7.369263160363105636e-02
1.087041635223890551e-02
3.569894159818551294e-02
6.561542433493852688e-02
6.614745766638137348e-02
9.237821851678626461e-02
6.045859550730466048e-02
3.091823177528051775e-02
6.210291983504112601e-02
7.132920562120367847e-02
2.210289570086050245e-02
5.120015498223895456e-02
3.674751342022332390e-02
3.994822556762532562e-02
5.917043353611096956e-02
6.496747545120279410e-02
4.775554840298243398e-02
2.588951746316018460e-02
1.407008122798067973e-01
4.503857365393811735e-02
6.418639357070682339e-02
9.649200010038819220e-02
3.945877240361925220e-02
1.204219949753178309e-03
3.624760944570933757e-02
1.188029554870758953e-01
2.682012400673950206e-02
6.253712179555762085e-02
6.048843249808828065e-02
7.775483702087906956e-02
1.697839922815183589e-02
6.798502647193324644e-03
1.724535464021488551e-02
5.141412113646615101e-02
4.327914909233612079e-02
3.620972689105925874e-02
-4.809581960181268101e-03
8.536594997999809309e-02
5.772852405305296808e-02
8.366904379822574789e-02
5.246480092829447495e-02
