1.440093269068557502e+00
1.419578587294047178e+00
1.380975578048263763e+00
1.384960792454375422e+00
1.310287338834519089e+00
1.239093121064887004e+00
1.094547800420962114e+00
1.058511626629094593e+00
9.690876982021789932e-01
8.654495958663951383e-01
7.466860776138938283e-01
6.582067703422054272e-01
5.342588709309898931e-01
5.179002218464263674e-01
4.620144379127003043e-01
3.598342840290091327e-01
2.651038273142518609e-01
2.213241774975899800e-01
1.672512903940422402e-01
1.907585441024095552e-01
1.097727277448694305e-01
1.330408652056280783e-01
1.040843367440788259e-01
1.209717971718450580e-01
1.206771226555721221e-01
8.807597016156658298e-02
3.605039281461074052e-02
9.176158711721868477e-02
2.688350282764071647e-02
6.626122699531754312e-02
1.169049635516695440e-01
9.167349398826954432e-02
4.678965840525332875e-02
1.011284181910079988e-01
1.309995162262440338e-01
9.985470827956648143e-02
1.523949089661452150e-01
1.220471719550667300e-01
1.323465404759193997e-01
1.562206093298633136e-01
1.038643071664702988e-01
1.325254726789591442e-01
1.655636682210793742e-01
9.675270935633839553e-02
1.814131681337505519e-01
1.766358629061248464e-01
1.740456848058363204e-01
2.055931737156003747e-01
1.602647871810803648e-01
1.419234799592805074e-01
2.286048185689960321e-01
1.476335312101016983e-01
2.216788394401322804e-01
1.926378375441030188e-01
2.155550890168916045e-01
1.596198058656540242e-01
1.764330043315120999e-01
2.205368513216025561e-01
2.152344509746418610e-01
1.782303352288270026e-01
2.025456987835778100e-01
1.679149543503626052e-01
1.798068612099402441e-01
1.839165557952534835e-01
1.570425722427289672e-01
1.986414194124697108e-01
1.889279553820066293e-01
2.386914562367246084e-01
1.623466146421954359e-01
2.000625849638720255e-01
1.973506892477848162e-01
1.455778142626598104e-01
1.011697164239106772e-01
1.617601660770865979e-01
2.229173096399514609e-01
1.939349540700966434e-01
1.619135973531762307e-01
1.517684701401283420e-01
1.767003702689605715e-01
1.550332591925967785e-01
1.975553459316570226e-01
1.490645799340908351e-01
1.471328454245288131e-01
1.243237467113444406e-01
9.682231602793178737e-02
1.495626830844221933e-01
1.161830345181812385e-01
1.289844204838322961e-01
1.022451860426100423e-01
7.183714773255484021e-02
9.648517200933418025e-02
9.675468759355460024e-02
4.674621090776658744e-02
8.224972609198122342e-02
4.848084682210984653e-02
-8.022031155626059562e-03
6.369598237068684055e-02
5.280007455236242209e-02
4.355388446168199923e-02
4.319173091443039014e-02
5.190819499327895686e-02
9.095087168374678399e-02
1.436639605316547552e-02
-2.418058855317366251e-02
1.593141953554279983e-02
-1.564695529753730441e-02
8.309767950550987770e-03
-4.293500204464676534e-02
4.798567329705727413e-02
-1.772766749896885485e-02
-5.737485695508193206e-03
-3.241691130061347820e-02
-4.566494114593447340e-02
4.446369783259809805e-03
-5.717692615132841799e-02
7.799993837620006198e-03
2.231510752328950270e-02
2.980698973407892860e-02
-2.875097519293684165e-02
-3.501971450788115420e-02
-5.103231124468884938e-02
-1.912739890092020334e-02
-6.295635391788124979e-02
1.298860880086894626e-02
-5.046873531250224698e-02
-2.489136499814972869e-02
-2.264168346086796110e-02
-7.849162223721872778e-02
-9.772846429489354114e-02
-1.288883741451461035e-02
-1.058458493882050849e-02
2.393508628363932161e-02
-4.006875713749569190e-02
-8.157475963451567280e-02
-3.303013456078955634e-02
-1.737554360433804512e-02
6.597127686785032863e-03
-2.564844386636110085e-02
-7.054156376586448451e-02
-8.234346424656233121e-02
-6.984823623785200997e-02
-4.868996544610683375e-02
-1.585112797427395276e-02
-7.233224572382891682e-02
-8.954005720046112615e-02
-1.266551231689957285e-02
-4.552640122720403443e-02
-5.032064960425573080e-02
-4.972346849251706863e-02
-4.771459461228669957e-02
-4.581791029570547041e-02
-4.663024851933687820e-02
-2.307568304905401047e-02
-6.202816045917253218e-02
-5.662805566261566032e-02
6.306899440921991118e-03
-4.331609761807678205e-02
-2.545696558024791376e-02
-1.377476469881773469e-02
-3.640295357705583545e-02
-3.604961472516846760e-02
-9.343946173220069040e-03
9.674385589562684018e-03
2.100629205220437556e-03
-3.213425761514343559e-04
-2.423066472971861784e-02
-3.476800924269191073e-02
-2.505456292718627465e-02
4.976223755428992035e-03
3.848454631214351385e-02
3.340840853383428982e-02
3.214861199294287430e-02
1.856607646206941825e-02
8.255645068558657707e-03
3.626449832857375072e-02
9.531478357032821536e-02
-4.783425544827968334e-03
5.662530788278154203e-02
6.500832568704822956e-02
9.519117597857876256e-02
5.889087314264223466e-02
2.481947317731190289e-02
5.259407644119305086e-02
7.128940862380193921e-02
8.789183011887811980e-02
1.186980671359093020e-01
1.317432756867779331e-01
7.535502218939649222e-02
8.569402692546648770e-02
6.710856540613989452e-02
1.055201862441171867e-01
9.270934648385653620e-02
8.668369083634389072e-02
1.074226179627767452e-01
1.414502772520897234e-01
5.258911284004517267e-02
9.453732212669505031e-02
1.195483662565550442e-01
1.479014936901514865e-01
1.347543402983389094e-01
1.569252746878739557e-01
1.199140489519215924e-01
1.160077256613181174e-01
1.178019269016364612e-01
6.011972535299724141e-02
5.836619453072668107e-02
6.071327091694902339e-02
1.319693315213310847e-01
1.185185754346621823e-01
1.148079370177644276e-01
1.368079170973203751e-01
1.846070950108285869e-01
1.646924245697453659e-01
2.565773480934977480e-01
2.279860808322935473e-01
2.976716521494062739e-01
3.485669444433047715e-01
4.063697393664414403e-01
4.904024318380484915e-01
5.589646001367282180e-01
6.871233154818484623e-01
7.385738199889833044e-01
8.397101403814486442e-01
9.067581599800009773e-01
1.091884074811690919e+00
1.086360796753418789e+00
1.195893146385717865e+00
1.326416236767820278e+00
1.340188740178929194e+00
1.404858118603868222e+00
1.391126612283209552e+00
1.382598462936809547e+00
1.408122701615720951e+00
1.418183361711883750e+00
1.296743713105194429e+00
1.271037823250839027e+00
1.184700046259538730e+00
1.128571058897758217e+00
1.027241623030703099e+00
9.297152429822991282e-01
8.130289131599831576e-01
7.731980152094751757e-01
6.776377735712864059e-01
5.360886809854708002e-01
4.872207170296918299e-01
3.890704363775246422e-01
3.362290926847310013e-01
2.962095321952710747e-01
2.304935261460450135e-01
1.392670662340981247e-01
1.760413016877264147e-01
1.447267124371767189e-01
3.134547124071293545e-02
1.232763066298098731e-01
9.935913421129607959e-02
8.322961172894777215e-02
5.512447509646123400e-02
5.675168064366003379e-02
4.969349478482545934e-02
4.413365670697325105e-02
3.930255185879250740e-02
4.167403380611025415e-02
9.521677623556917824e-02
7.529935828938189024e-02
1.039976379189856276e-01
1.027478610942443860e-01
1.276481790089484258e-01
1.166438435105804916e-01
1.276377163952350513e-01
1.141777628734646777e-01
1.011089437357864523e-01
1.500619997504772929e-01
1.149278095572715819e-01
1.783307533645628606e-01
7.485736259955858007e-02
1.370426001098986046e-01
1.315105398469273434e-01
1.350522774614938415e-01
2.136479787267321073e-01
2.014319669038866223e-01
2.128009734815422271e-01
2.130637590429353967e-01
2.026162274467425695e-01
2.226046598345158278e-01
1.619396168548107029e-01
2.019678228123804320e-01
2.162924237003462924e-01
1.368086905527340080e-01
2.314802315040959402e-01
2.033225475567517482e-01
1.757531040718601778e-01
2.803576775930753939e-01
2.266346583940703208e-01
2.098362406414073789e-01
2.328910016161835905e-01
2.121880944616598708e-01
1.831323354109597457e-01
1.766729301126309382e-01
2.099281865378183620e-01
2.419072513702374971e-01
2.103013841221480495e-01
1.834433864243188994e-01
1.544523869057770338e-01
1.773145692634497950e-01
2.139112738754473941e-01
2.336625726060850561e-01
1.802004824001819383e-01
1.819924776374364783e-01
1.791619355055391605e-01
1.650772364227257594e-01
1.974986027722360760e-01
1.321833739496970639e-01
1.888260693789317601e-01
1.673478867615281196e-01
1.613037350998005603e-01
1.492904211155290928e-01
1.634758941330409776e-01
1.272551281270936363e-01
1.295556034802105572e-01
1.379598147900492344e-01
1.301795483147445143e-01
1.213345465800054340e-01
7.589690890222326736e-02
1.273671397190330179e-01
8.632278349370046955e-02
9.184572574292677871e-02
1.286803276879619484e-01
8.127056358281548043e-02
1.395606691047995285e-01
8.077903202188746468e-02
8.376724768679863486e-02
9.898861014709954553e-02
2.780209801195356739e-02
4.647119302621673803e-02
1.640908617573384742e-02
8.999153239289395256e-02
2.009648844915120497e-02
6.240574210238923614e-02
5.725064521873603207e-02
-1.955633589765892744e-02
3.046891056767868367e-02
3.693997519502609933e-02
1.750095769112323257e-02
-4.250592127021121658e-02
1.060010717477323852e-02
3.255155120984397354e-02
5.103074157318466392e-03
2.205337505378376223e-03
5.939410844650476473e-02
2.235674466160435248e-02
1.960568174475086495e-03
-4.096436398005620649e-02
-2.201345143492166451e-03
-2.841411651703389801e-02
-5.844190169627470899e-03
-1.156696953248555031e-02
2.402831615164275486e-02
-7.079088827409138474e-03
2.474699563383498876e-02
-1.094736383189249401e-02
-1.981555431733957040e-03
6.171533837908825537e-03
-7.608314085514381736e-03
-1.858409192498487739e-03
-8.067695521267901834e-03
-3.645341719427420274e-02
3.816182472967341588e-02
7.014669819261885181e-03
-2.771751010110157232e-02
2.630061016702038568e-03
-2.097495114349136325e-02
-5.874189828080491477e-02
-3.111372693331253964e-02
-3.205538799085851792e-02
-2.190341234376955160e-02
-7.271578204065839990e-02
-2.048250812555004602e-02
-5.775016480614725972e-02
-2.462002823297079410e-02
1.100254958139323599e-02
3.824651967621171822e-02
-1.581162194733913215e-02
-1.477048677149429487e-02
4.360994337840526369e-04
5.740909100817667698e-02
3.357991373199378793e-02
-4.228430002051569714e-02
-1.672086619623356502e-02
8.593799555978432619e-03
1.633839919764134424e-03
-4.722375990177257732e-02
3.417146219155418191e-02
3.082323768505306968e-02
3.024851933077140828e-02
2.056116978927143013e-02
-4.099672691434915611e-02
-2.244882852678174029e-02
-6.873692680034498154e-03
3.172640470625117531e-02
-6.537228977880435443e-03
5.437678862759147413e-02
3.609198829114416279e-02
5.408975816574018713e-02
9.781363862118323815e-02
2.719281487171854722e-02
7.428284354194661376e-02
1.195592700396819474e-01
7.047422033009370645e-02
4.288231792968390244e-02
8.378049657124188310e-02
1.245356977522959208e-01
8.263905313805033903e-02
1.269492548527192399e-01
5.711455777730468919e-02
7.549234297476717370e-02
1.292789413921958397e-01
1.157403595128438378e-01
1.646053358584223802e-01
1.622804357669380970e-01
9.275619892115999354e-02
1.142907224183045273e-01
1.712837425917679290e-01
1.134179490139792940e-01
1.274736845277220920e-01
1.119769536602617382e-01
1.047039279741617257e-01
1.263815494520344473e-01
1.347925853421862719e-01
1.657388956873897812e-01
1.567207681976305611e-01
1.313003194240543736e-01
1.734583673099377721e-01
1.440789020916617980e-01
1.118702885914433925e-01
1.153301455664283715e-01
1.054376702669389126e-01
9.096283637547405987e-02
1.570357290830971808e-01
8.136511143404864810e-02
2.032806113229896627e-01
1.866884328046778951e-01
2.184359299500192308e-01
1.354854030465611481e-01
2.210630573618624917e-01
2.660969156628438248e-01
3.123819176098622807e-01
3.232869065331464009e-01
4.138431241493024659e-01
4.448484903226697096e-01
5.311211514780708187e-01
6.413709219646652748e-01
7.095274564943498952e-01
8.273226170615752828e-01
8.572943653840079392e-01
9.980630130623781016e-01
1.081090124313938805e+00
1.198459997646616815e+00
1.302284869388844690e+00
1.397274958702631187e+00
1.409697875607069273e+00
1.478537765181275443e+00
1.481856000007424345e+00
1.452436124157713726e+00
1.451291562933039403e+00
1.454381534670110332e+00
1.406462722931879350e+00
1.338238856874710336e+00
1.260440303325196076e+00
1.181845772219862312e+00
1.080341738945471697e+00
9.210808596714001872e-01
9.002114408066050899e-01
7.406136857219474123e-01
7.157711798506276590e-01
5.736995010737481193e-01
4.976776487048962805e-01
4.199445779327287687e-01
3.917399578126269932e-01
2.975517437412789068e-01
3.013185744690621837e-01
1.620032486874527500e-01
1.862466850275114050e-01
2.002026069340522851e-01
1.548746259387960289e-01
1.753664561190123039e-01
1.347396830382387167e-01
1.711796834040464621e-01
1.485611985542508728e-01
1.020176881684215636e-01
1.405292996005125528e-01
5.859618191981873919e-02
9.868276531013088493e-02
1.439594419555678129e-01
1.490411469864737770e-01
1.220383836224873675e-01
1.379351454763975970e-01
1.624742691527333860e-01
1.451699131037931523e-01
1.295881164180909539e-01
1.875208842041748980e-01
1.566711841774499070e-01
2.075904760689403217e-01
2.120533191219121372e-01
2.226775377308091441e-01
1.838145209266948965e-01
1.689272592570869036e-01
2.117100103768772279e-01
2.151080580072120552e-01
2.130067968299392267e-01
2.141357921422001043e-01
2.350521726009631718e-01
2.339282013838341889e-01
2.438239533652255819e-01
2.190967558811998117e-01
2.002929285169860740e-01
2.640145214383586847e-01
2.691146787507068816e-01
2.671458151740255804e-01
2.729953987549374461e-01
3.122052893629835846e-01
2.724191721925678378e-01
2.663354934227765147e-01
2.416350495574206558e-01
2.805866991578307434e-01
2.689797477468339193e-01
2.347785320923173047e-01
2.631156888624143209e-01
2.949556555589427087e-01
2.321416771826786685e-01
2.605909053758858063e-01
2.728448444217186908e-01
2.437343408431031921e-01
2.686287648474738887e-01
2.682016175623888610e-01
2.978942176394745456e-01
2.087723963266095994e-01
2.961298761166429316e-01
2.752611262288154337e-01
3.364971773880018890e-01
2.431956360744460255e-01
2.533473235187754802e-01
2.123820714697394474e-01
2.389345748112016443e-01
2.286438252595783260e-01
1.746181198967236559e-01
1.767803436677397588e-01
2.099901012162610492e-01
2.240781361275105410e-01
2.098229604700721229e-01
2.022407225872072112e-01
1.855967314217084607e-01
2.255790790746072805e-01
1.937374343194942505e-01
1.414229064935769720e-01
1.682360768161682285e-01
1.545315248309571121e-01
1.046067400292697014e-01
1.401179042949098896e-01
1.103521352990317062e-01
8.903852184868747688e-02
9.194811544669131975e-02
1.223073735681190766e-01
1.140438680221353696e-01
1.078547016716637774e-01
1.120125887345169990e-01
8.383329853824753042e-02
9.804862055192634096e-02
7.895954232013609186e-02
1.055078259811566277e-01
9.163556999014819959e-02
1.291193094749433501e-01
9.349839946534840851e-02
8.092925438672088356e-02
1.046909728814135188e-01
5.856241632905238859e-02
1.058462971470864183e-01
6.834070888416615697e-02
8.364442342922193130e-02
2.370516256295018137e-02
7.358999989290276877e-02
4.429238337369761219e-02
8.464779964934091017e-02
7.394471687705922447e-02
4.551962573300566417e-02
7.701914146356383939e-02
5.491289818255208621e-02
5.125100643447268178e-02
5.511846540706012709e-02
6.898481779286982918e-02
8.079002848631194889e-03
6.972277803349369307e-02
2.828613468464168806e-02
6.562812018047700646e-02
6.529243232851915379e-03
3.915371939915562871e-04
1.008530160624569738e-01
7.937689786048982010e-02
8.041601953612467768e-02
4.647375662583450029e-02
2.636746497005242745e-02
2.208456298899816317e-02
3.400794136558729641e-02
1.174967947861243686e-02
1.662765097623202654e-02
1.034144142212106154e-01
5.739851015845501975e-02
-3.372283188330459092e-03
1.906036257257282679e-02
4.492804592275840420e-02
5.681459228391268906e-02
-7.084055233630245918e-03
4.021863235847523282e-02
1.669775792408379270e-02
3.846690451410894607e-02
1.022072014016922881e-01
6.031362625713831971e-02
7.605006972933930909e-02
2.135419568808405444e-02
7.623423359127307064e-02
6.195614969925726523e-02
8.981043160991042384e-02
-9.137448320414055802e-03
8.360324028149582198e-02
2.447849187891107045e-02
-2.146401651853205306e-02
8.516146868399962488e-02
4.898284262751617657e-02
5.334112281958597324e-02
1.130334354747305758e-01
1.194400664478484364e-01
8.811675876196253809e-02
6.924978019724614686e-02
5.331779458551728912e-02
8.519128646533104254e-02
1.198189114754870388e-01
1.040979355676290297e-01
1.494321786278525743e-01
1.495009270312035177e-01
1.358153078892055943e-01
1.480590623067492007e-01
1.151623132581764269e-01
1.429935949194627298e-01
1.869078638163958195e-01
1.782206449860151976e-01
1.757708226166349030e-01
1.884224110200359847e-01
1.678856414241515216e-01
1.458713566464114597e-01
1.808599549724010380e-01
1.726234561731853079e-01
1.589452240317406617e-01
2.472413010112360088e-01
2.477935752455565077e-01
2.409763198864430522e-01
2.365015515232641308e-01
2.533318929736320668e-01
2.722815864327894353e-01
1.614751274222506749e-01
2.229943192893828752e-01
1.872634051160582958e-01
1.702503687413770284e-01
2.032028327202029527e-01
1.283093323350023296e-01
2.276836852443386849e-01
1.693261283299701547e-01
1.809599400128534541e-01
1.971487882187641927e-01
1.627439674760269572e-01
1.811794419039869375e-01
1.753952618730658108e-01
1.895181609740788642e-01
2.166681390822054465e-01
2.415833434318251927e-01
3.077433334110868390e-01
2.206368648533019727e-01
3.043521172624370497e-01
3.484628466730934071e-01
3.786949946201570438e-01
4.343134149169552982e-01
5.614669482873397843e-01
5.641835423913283964e-01
6.882772251760604920e-01
7.781658407422838986e-01
8.517863780180970901e-01
8.645975455650118935e-01
1.078897209903190602e+00
1.105069745810598469e+00
1.209767940321996527e+00
1.323836303500161682e+00
1.422795400248442643e+00
1.423547276674496764e+00
1.483593471503146688e+00
1.485756771614711980e+00
1.522508572908477298e+00
1.510957211785365573e+00
1.428644132734760763e+00
1.451916444276561080e+00
1.384241500007690862e+00
1.300981461608271994e+00
1.226133509141596134e+00
1.114396845995408558e+00
1.020911121947855493e+00
8.563435679917383858e-01
8.141497170926901283e-01
6.829565690371790510e-01
6.663817633216708725e-01
5.065285445691011246e-01
4.574601680589344133e-01
4.282653915016186308e-01
3.686011034286124088e-01
3.243548494432895168e-01
2.679243904878121363e-01
2.180082355915550218e-01
1.940891429512597854e-01
2.004348651069992326e-01
1.604959738934326474e-01
1.851785421806120824e-01
1.575587219496450975e-01
2.233268719551712578e-01
1.830344393301257533e-01
1.879949832413935207e-01
1.731970415103375183e-01
1.614955247536816740e-01
1.918912007121337804e-01
1.734721407791762204e-01
1.433874015259873069e-01
1.440216580158528437e-01
1.446691630832994679e-01
2.522517258689919717e-01
2.064527229029157751e-01
2.160102864415852086e-01
1.983476871531661967e-01
2.328282260534989268e-01
2.082213702041201264e-01
2.452840875562496692e-01
1.539786782705557799e-01
2.609319446234362183e-01
2.530439742054559904e-01
2.185835037703851014e-01
2.648140937663650551e-01
2.605083804843182360e-01
2.667346079390058300e-01
2.975735285041204436e-01
3.145190893904836749e-01
3.310919882457660224e-01
2.918306142112662704e-01
2.973220053319646228e-01
2.823582116390387364e-01
2.891640727693362001e-01
2.619604932567694555e-01
3.041741560307869574e-01
3.185088517437062450e-01
2.601688519750993134e-01
3.263983441283040410e-01
2.529439598131458800e-01
2.898738884440391073e-01
3.336620616604784595e-01
2.623675702684233890e-01
3.502804250779893436e-01
3.038970478796543806e-01
3.507427677398271548e-01
3.011557678260314841e-01
2.975927830192222068e-01
2.874204855893407462e-01
3.027969010870786293e-01
2.709948048352830430e-01
2.785426806280808520e-01
3.020393513372581218e-01
2.407611478890956391e-01
2.898957386153449001e-01
2.715565839845776597e-01
2.874273331045595903e-01
2.781813191456341539e-01
2.667764902320549636e-01
2.278020908308254766e-01
2.567291503911434680e-01
2.324326516475257454e-01
2.216699874372440870e-01
2.703892155332057179e-01
2.279510898346047976e-01
2.227428757527792624e-01
2.678979144385827404e-01
1.908024381676387549e-01
2.205490272336508850e-01
2.266398946067298414e-01
1.079382130508953624e-01
2.729082041451561524e-01
1.288987364358531451e-01
1.492727433705210716e-01
1.690242644047166565e-01
1.499601617157901023e-01
1.374534327081626262e-01
6.640854433551889036e-02
1.163821138812212441e-01
1.210513989554168335e-01
1.190693424075480455e-01
1.343717251471750473e-01
1.516014454170300230e-01
1.372771195499593866e-01
1.628751019726220328e-01
1.083204502966537697e-01
5.084279570311221047e-02
8.197197268848706309e-02
9.689635851635589048e-02
9.727834598274742728e-02
1.102242122788194834e-01
4.042016926383415476e-02
4.829939303030163916e-02
1.174794955013540726e-01
8.152187716214950863e-02
5.986524877563895869e-02
5.732948817697506444e-02
5.699302073915791383e-02
7.274178656611469951e-02
1.148520510362181224e-01
9.276243305215958745e-02
3.380233702334126122e-02
3.591755885547112670e-02
6.815309809836217481e-02
7.867316140287340664e-02
9.371808918438787050e-02
1.007066487635955021e-01
1.693962001221192143e-02
5.774112148882646484e-02
3.246897722622200944e-02
5.559844211078351917e-02
2.306252963018260924e-02
1.250410363777499506e-02
7.838246091244130409e-04
7.310153144632410005e-02
4.772064486424981711e-02
6.986264580096707144e-02
6.008289674296505428e-02
5.978938186238610952e-02
2.076090084419864035e-02
6.078716293983765784e-02
9.809562138502363193e-03
5.341966690374714416e-02
9.102612319162287080e-02
3.960072832541248339e-02
9.782172376650459522e-02
6.511214902224586598e-02
7.102268542861032985e-02
4.510990609037222876e-03
8.937279437553394268e-02
3.556006670477876441e-02
6.691490587482958052e-02
5.540664643517732857e-02
4.255132510584327954e-02
8.015467613793596235e-02
3.505063680434275519e-02
4.972343439942585042e-02
4.782188772432566237e-02
1.051505756342938636e-01
1.418339208360573367e-01
1.082761076144949097e-01
8.960074864805840644e-02
1.112712645453846072e-01
1.225043838560224002e-01
7.957580892160458219e-02
8.872760436248014471e-02
1.207023042305256921e-01
7.882596139665576374e-02
1.169355645515944842e-01
1.125918797464651316e-01
5.639045936139071985e-02
7.193909960565837702e-02
1.376330481207694578e-01
1.224979382265364153e-01
1.146497630103342075e-01
1.596562174454782546e-01
1.679209650803716036e-01
2.072770884213649967e-01
1.274764359294708882e-01
1.531793309787813362e-01
2.374725011262854846e-01
1.626261533124803149e-01
1.862257054417739699e-01
2.150775848491112696e-01
1.522952163126857772e-01
1.931985606011665246e-01
1.649851364502547268e-01
2.217547378001812064e-01
2.049502858067754896e-01
1.721658840926625633e-01
1.657097351247970862e-01
1.609866011972530542e-01
1.186748683037247010e-01
2.069048626505966548e-01
1.935139656140380249e-01
2.041445153908275911e-01
2.109742223955490270e-01
2.296759738456686795e-01
1.679355150673140229e-01
1.731331640793687954e-01
1.693393662087407103e-01
2.012480869051833932e-01
1.647464956944368897e-01
2.305730731840857084e-01
1.889448909378842190e-01
2.382908230303922292e-01
2.067783534770305243e-01
2.177657006320976585e-01
1.991200159395582203e-01
2.170149288163329415e-01
2.809557488290506111e-01
2.919505862808611796e-01
3.822079172501181010e-01
4.390784691854733301e-01
4.172447094663920275e-01
5.349894329171901441e-01
6.027811017870046140e-01
6.883033024188138782e-01
7.363481177063407879e-01
8.765240533861973216e-01
9.272124052137591388e-01
1.020389134216112215e+00
1.112095809512383848e+00
1.261303398126795150e+00
1.342999845884692345e+00
1.312880074527472019e+00
1.448662216839635475e+00
1.476093612508037944e+00
1.518551354806156661e+00
1.489094775214294231e+00
1.438208666926814594e+00
1.432130693131812071e+00
1.432037229392462141e+00
1.363785621524299607e+00
1.224970650356253410e+00
1.196575756520334322e+00
1.101169455164784150e+00
1.009075074228531932e+00
8.621528279192300914e-01
8.084406536359082240e-01
7.090961729562484939e-01
6.171383439647247782e-01
5.815499454795527434e-01
4.197375163089227534e-01
4.247265614861778782e-01
3.088331435369691125e-01
3.038863265021902182e-01
2.313869618271303108e-01
2.517283782955492266e-01
1.890413677994914610e-01
1.451299673268478807e-01
1.824611014347200522e-01
1.760060763092307357e-01
1.490882675707735361e-01
1.271338312405385085e-01
8.345068357021068195e-02
1.732695691550738271e-01
1.664991951222631883e-01
1.537868035476073758e-01
8.232210321640502648e-02
1.387000832153074681e-01
1.463904772018444489e-01
1.081649805795971142e-01
1.061363836446747866e-01
1.599574744627615119e-01
1.592345969519825544e-01
2.069814066950658171e-01
1.414480009421744677e-01
1.969359822391828496e-01
2.252569318929017184e-01
2.030092629302806539e-01
2.333008874955362355e-01
2.361434556113877758e-01
2.207067675951487895e-01
2.656230750141531094e-01
2.478861659809103724e-01
2.338040886063663670e-01
2.438630695743066179e-01
2.755115681036032216e-01
3.085443978763281470e-01
2.423281642798453817e-01
2.488581506627852713e-01
2.762794303679763086e-01
2.430146883638899524e-01
3.137424551254544003e-01
2.665835664968358998e-01
2.752263680982374727e-01
2.569151554178861763e-01
2.531144393629063405e-01
2.500447986338159567e-01
2.406065810678756078e-01
2.774271172132048990e-01
2.852407798465072530e-01
2.456974594023110803e-01
2.147476927250551726e-01
3.128889375894765013e-01
1.944883850471537945e-01
2.563107533002448313e-01
2.567007694340948665e-01
2.815793114452521118e-01
2.842608058925072401e-01
2.797496066769312728e-01
2.504302893946019348e-01
2.261473781898830360e-01
1.996989107576284950e-01
2.648929452781885185e-01
1.634998085608282969e-01
2.213516833591381572e-01
2.166453923504310375e-01
1.964797432783988995e-01
2.725432993583357666e-01
2.161787780482969934e-01
1.733613120214584635e-01
1.588751974582425230e-01
1.531165419949125917e-01
1.478622611849892132e-01
1.727236081530977851e-01
1.581821069912127953e-01
2.298109199517106849e-01
1.776871501907738016e-01
1.453135675854081432e-01
1.119859228217716524e-01
1.409166935997610004e-01
1.070949431187908502e-01
1.312632445106440837e-01
1.246173310314054872e-01
1.324806382815128247e-01
9.062111213719319103e-02
1.426022219689057624e-01
1.262208374472452987e-01
1.282486584147883302e-01
1.266988724337591854e-01
9.478183691816188805e-02
7.469485895898736461e-02
1.353561932767336495e-01
6.281118129320223398e-02
5.939437027275259323e-02
4.793438948998773874e-02
9.722509856020342123e-02
7.999058821860127733e-02
4.814231936331618555e-02
4.772244074645996814e-02
6.306488926353503999e-02
2.378986727380388855e-02
1.975521428333158053e-02
6.664945793877498359e-02
5.491182083055262675e-02
5.819648749580719205e-02
7.842580693050102414e-02
6.790869990381299265e-03
3.975295110210365357e-02
2.134778800538932736e-02
2.361562545270298047e-02
3.695105989149267273e-02
5.930460028167731934e-02
-1.984673084822287034e-02
4.893236748991274671e-02
-4.268901985941752492e-02
-1.821169362777052408e-03
-2.267752542479707992e-02
-4.180404916007710719e-02
2.588447691241813065e-02
5.485021759366455474e-02
-4.279661129706184737e-03
-1.418153561841665328e-02
2.872097408197227947e-02
-6.416510752763068814e-02
1.010769105776358756e-02
-6.135499694804645576e-02
-1.881809502230535544e-02
-7.686872762568129278e-03
-3.706207394431581398e-02
-5.686043219198732082e-03
-2.671588263970956986e-04
2.384938712372600828e-02
-3.225773542895491591e-02
4.860942923040602326e-02
-2.971535742936237678e-02
7.298901039194645446e-02
1.350199378712881211e-02
-2.104166111109170845e-02
-7.574000287087759818e-03
-2.375857093627994562e-02
-3.184444612792909982e-04
1.501846536288643091e-02
6.584194991122663265e-02
2.105641739676896232e-02
-2.191666380598871616e-02
4.268262054198244254e-02
7.935923878352646454e-02
4.432449445655180925e-02
5.309035289377371167e-03
5.509905506056787805e-02
5.571065000434618358e-02
-1.535073833316655950e-02
8.910817159057345116e-02
2.615890142393212728e-03
5.598503574905297486e-02
9.218101447202976806e-02
6.948904628635413361e-02
3.866033411174767814e-02
7.462030734124716624e-02
7.851793901762479932e-02
3.809118140332701241e-02
1.070574833508578100e-01
1.141349326758062249e-01
9.597632731659735961e-02
9.342713441955868836e-02
1.012103073962167810e-01
1.112152388608609876e-01
1.305122565718134509e-01
1.235659221229246929e-01
9.541197079566861305e-02
1.182482622473824269e-01
1.587301719363978791e-01
1.383724299873510810e-01
1.281591716261318292e-01
7.258938624062749589e-02
1.220119058901337622e-01
1.175266770515916992e-01
8.083228420668653325e-02
1.134634696306235507e-01
1.027962163191271511e-01
1.074948266144441084e-01
1.548432258911661419e-01
1.252965769237194271e-01
1.020314772973853062e-01
1.544415588168478737e-01
1.853479111905456389e-01
1.443739889188861703e-01
1.536987268438574084e-01
9.885890648337850029e-02
1.551505366282179277e-01
1.364427731023700185e-01
1.385185328212446554e-01
1.445492597532350987e-01
1.395073737688956039e-01
1.128206916470509413e-01
1.807849110428600137e-01
1.201346908566860300e-01
2.272366091955825840e-01
2.501416501472421561e-01
2.009115984954358003e-01
2.536186817054139619e-01
3.435600508252028562e-01
3.653575716890540837e-01
4.859548538247285832e-01
6.179399673631532641e-01
5.805865171053259388e-01
6.595954203009993799e-01
8.259100244079359276e-01
8.892089449259019673e-01
9.804390605726435171e-01
1.058342967271908908e+00
1.180345647050387026e+00
1.219352140517631744e+00
1.360632107221826370e+00
1.348981597610960703e+00
1.408132090183236818e+00
1.434342044022681062e+00
1.491254177548961168e+00
1.446862724934597999e+00
1.390655357069591203e+00
1.370784165345899863e+00
1.273107733253200813e+00
1.225578302801405783e+00
1.118974441526259467e+00
1.022806356449099674e+00
9.493267154376078265e-01
8.443527829979041721e-01
7.496116108560217928e-01
6.472857115548484863e-01
5.713926681953631626e-01
4.586206281742150614e-01
4.025816356320875977e-01
3.631668391540332497e-01
3.016174493568456461e-01
2.185679474636044173e-01
1.754746429852928058e-01
1.506305137344559342e-01
1.378025985531904640e-01
8.826440521823986085e-02
9.864509406194854613e-02
1.151631425033525502e-01
1.618634528932783589e-01
6.171677851651177771e-02
8.110401504097190795e-02
8.791507265406950378e-02
1.052818399247596320e-01
6.469087238186549405e-02
6.984345036167818876e-02
1.389107917191201857e-01
-4.328965020497220484e-02
8.332642710837899480e-02
1.307375208457820515e-01
1.722261665731626701e-01
8.156538215063457997e-02
1.285790312655478995e-01
1.530161120452502299e-01
1.620407065944363956e-01
1.369438044343251337e-01
1.192317796899420995e-01
1.603456093241955038e-01
1.527894855277286967e-01
1.255652245748971052e-01
2.470264297134797671e-01
1.650021009558122198e-01
1.774630597189775505e-01
1.706994297604333688e-01
2.177951197265671490e-01
2.104211940819952220e-01
1.968598586249347970e-01
2.168588372671454712e-01
1.651267425712865389e-01
2.163987256689638705e-01
2.478762458541789171e-01
2.287074584480162098e-01
2.107733775575439672e-01
2.119944381117375987e-01
1.874516244359031858e-01
1.848373517275391786e-01
1.524045921161898132e-01
2.315047614407375332e-01
2.079013365778913380e-01
2.245316946001983394e-01
2.115313845648861824e-01
2.133330569578941460e-01
2.590902061758141306e-01
1.752922473454897045e-01
1.788580782415890580e-01
2.429824341205112925e-01
2.307213246731330270e-01
1.834905614651116124e-01
1.836867386371721089e-01
1.891298646011204676e-01
1.661961384260082775e-01
2.086842809754780037e-01
1.545140965377170827e-01
1.813681498411784110e-01
1.567079473892413199e-01
1.467472186183462202e-01
1.855045672412452551e-01
1.685213002257451576e-01
1.671735336553623053e-01
6.682823645023261427e-02
1.716135528403726351e-01
1.543963800508642847e-01
1.700184353652968994e-01
1.167436602815283553e-01
6.190413414607833648e-02
1.818359231534392162e-01
8.086091434350145546e-02
3.554949991912531582e-02
6.455578537161889285e-02
9.293013323785961899e-02
6.984143859215882766e-02
3.413000827327040965e-02
8.364089294063203894e-02
9.830510929726589409e-02
3.705784914486733028e-02
7.559289465609428382e-02
7.744665720769428052e-02
4.178750715584635123e-03
8.282999284750182378e-02
4.211021366925865594e-02
2.226803345285792435e-02
-1.493226561117472206e-03
1.678408069959733129e-02
3.452418644892786548e-02
3.041769448997706793e-03
9.904230845608007205e-03
4.759694108704970450e-03
6.803442401706619180e-03
-2.414450641755778657e-02
1.890470952443379371e-03
-5.470742802543025751e-03
-2.102899358551201664e-02
-2.577201972229595239e-02
-4.321960469441919056e-02
1.373712220470717921e-02
9.599239724487285130e-03
-4.084086032864502058e-02
-3.850154437096776211e-02
-3.977169324439253778e-02
-4.403249672860157921e-02
-5.401022368991773709e-02
-2.503124087685340560e-03
-3.041765067554476343e-02
2.827160804215890499e-03
-5.620712775405294070e-02
1.269955162247573405e-02
-2.784186165433676433e-02
-3.772153326371630727e-02
7.906996715894537564e-03
-4.462995404276225847e-02
-5.260862027464544705e-02
-9.606149235489111482e-02
-6.669550176025247634e-02
-1.415473521327965251e-02
-4.766108131894781358e-02
-5.048488978537392369e-02
-1.016353314022411247e-02
-2.896940002576245746e-02
-8.153414101008407688e-02
-2.477425451335711279e-02
-1.611263273562476769e-02
-3.202665892761342309e-02
-8.108352501130955403e-03
-6.091405337812789977e-02
-2.703515193988352897e-02
-4.967698564173993192e-02
-6.424665326715005287e-02
-5.131733510580654967e-02
-5.579528461608673773e-02
-2.278600150017472820e-02
-2.434394387353045960e-02
-2.949666755150975525e-02
-2.357387815709176271e-03
-1.603017605987056698e-02
-3.415181933668939851e-02
-1.611782383389705198e-02
-2.812915792897438885e-02
-5.537741011238088429e-02
-1.885632119475715712e-02
1.794486021198003767e-02
-3.887390251083523013e-02
8.011076316771323369e-03
2.339018242730903085e-02
2.013886875977288077e-02
5.428558647680439830e-02
-4.016972858394057821e-03
1.047342973767780017e-01
8.104333747733406812e-02
3.216068628301463339e-02
2.653076349895319014e-02
6.988637599649188958e-02
3.690940874759403995e-02
-3.703238724123598946e-03
1.981008726288149141e-02
9.309986591178096016e-02
6.478023057197984658e-02
6.417491037406614085e-02
9.687668561164697323e-02
6.491813893668442470e-02
-5.094266475259616456e-03
8.059862179747027955e-02
7.660222735788069226e-02
7.348653341025546126e-02
1.100426340588882834e-01
6.300543706546449241e-02
9.057145315222389637e-02
9.506751645342501056e-02
7.735791139009615125e-02
1.052086271831378234e-01
6.902631333352407528e-02
5.325938775220639271e-02
8.045499915129916690e-02
1.361967302338357444e-01
1.205586824273018193e-01
5.206424781024210358e-02
1.189000044212979584e-01
6.321592626823091532e-02
9.206800070728934915e-02
5.577428755034848779e-02
1.072546544497403886e-01
7.412043462558365325e-02
1.010354869042374704e-01
1.345917742758626912e-01
9.923548717301136635e-02
1.487584281767816707e-01
1.116013640271119323e-01
1.552011557934541430e-01
1.726212061071625836e-01
2.298938048765443443e-01
2.157597537010016997e-01
2.739450111765315832e-01
3.120415104084260371e-01
4.235508455575053288e-01
5.099760872930838573e-01
5.513214125875334215e-01
6.519316817828225696e-01
8.276121918155879831e-01
8.749874578385690160e-01
9.509661229622921041e-01
1.060883222656098246e+00
1.168455917896649821e+00
1.270118749561980120e+00
1.296112136400791703e+00
1.347028082633185520e+00
1.370415506461551081e+00
1.407213465234821159e+00
1.481376805272636155e+00
1.440739082598882170e+00
1.379684437350894743e+00
1.373236924842139661e+00
1.237247695300319972e+00
1.164972627204421185e+00
1.088797487587495727e+00
1.020432927884241670e+00
8.796879227424413417e-01
7.862230663781902829e-01
7.205765044352345772e-01
6.183274151885465031e-01
4.703178531851908151e-01
4.519646006134566685e-01
2.956015913395639294e-01
2.674149423693230609e-01
2.355405055924985613e-01
2.132435570882358633e-01
1.748399999532700144e-01
1.531935090496979734e-01
1.510893813747089531e-01
1.530268911829272271e-01
6.489997061739397055e-02
7.364665440459089440e-02
9.054477587180673193e-02
5.749593726985069431e-02
2.950283658233551071e-02
7.085412153644254918e-02
9.888090079811950872e-02
8.273360983488406428e-02
4.132935359192376618e-02
8.950991476552240533e-02
7.969476270380318472e-02
4.856320589516754938e-02
8.581896027639673852e-02
6.803511227881631207e-02
1.190762546147099976e-01
1.435881499196245692e-01
1.054283898536785280e-01
1.162147255325497175e-01
1.175066618332643309e-01
1.250983610400115409e-01
9.479647400841556548e-02
1.304370850321528996e-01
1.775475230919549841e-01
1.880115493165862572e-01
1.474994757509176246e-01
1.213077378248246518e-01
2.275631375269040746e-01
1.465235889671757663e-01
1.903619786646930656e-01
1.656611122748967713e-01
2.163093722056583235e-01
2.009417008105604252e-01
2.228788436220283387e-01
2.202367592024266629e-01
2.113529579806226188e-01
2.208190983074962976e-01
1.911494857850220552e-01
2.359536961710402281e-01
2.258949071426673005e-01
2.016113057117688290e-01
2.348959346522219993e-01
2.079403029142060655e-01
2.564907210679185923e-01
2.056985243412249309e-01
2.009728715319465397e-01
1.905278472740421503e-01
1.856181947816698263e-01
1.840282828260397519e-01
1.823549167296010798e-01
1.517123455837464663e-01
1.519125721660458950e-01
1.765974652362698738e-01
1.751549782097289176e-01
1.157916172299353480e-01
1.743122046753687870e-01
1.239966800186100560e-01
1.374485981295093528e-01
1.583707956537664385e-01
1.321017263449955625e-01
1.199618089311123847e-01
1.568360228405885348e-01
1.985679161409222293e-01
1.519959252496865254e-01
1.549140638545851989e-01
1.218825378116451252e-01
9.878763600491508035e-02
5.054175253007021917e-02
9.857761068621984091e-02
1.289416050989369567e-01
4.701354356504741649e-02
7.719890169231988231e-02
1.006908037196141414e-01
7.424526884695348272e-02
7.912439452919159399e-02
1.089234950088289466e-01
4.985057620099524883e-02
5.732662982092842641e-02
8.919195727533407725e-02
5.947265520518901782e-02
1.737867880772853840e-02
4.017153256169624792e-02
7.461950485588678128e-02
3.991510646145228491e-02
-1.774242880299058134e-03
-7.476723551952627056e-03
1.496604735614533166e-02
1.751341789881129263e-03
4.808049408176015560e-02
2.385906133325021994e-02
4.215427376274204219e-02
-1.253942438631393264e-02
-6.778975334535988773e-03
1.250304190269183047e-02
-4.889237833985107806e-03
2.038131232229586226e-02
-2.966322665628476352e-02
3.009447948387737604e-02
-3.072828336983600417e-02
-5.700269922039707254e-02
-4.418856352855327768e-02
-1.326590804371739069e-02
-1.712361535059177264e-02
-1.456093302939623010e-02
7.164094905229449750e-03
1.558672438104539287e-02
-2.929025525843538535e-02
-2.947484249066444073e-02
-7.278341003236549200e-02
-2.252981896486671784e-02
-2.121606743850959487e-02
-9.909663570122143050e-02
-2.237473091828997770e-02
1.229817022564537454e-02
-7.809483152842425224e-03
-4.470508260519476251e-02
2.803542899349503736e-02
-4.533547385609867919e-02
-3.952132456010745698e-02
-4.820291700617612002e-02
-1.924773964357351375e-02
-8.541391180008903183e-02
-4.229588076109865036e-02
-9.197991717182117666e-02
-7.446568060004582490e-02
-6.507443141519272944e-02
-1.919598844632071366e-02
-7.324671687076594884e-02
-1.153032095806101609e-02
5.586330822755031927e-02
-5.613125855179851298e-02
-1.125133325458982370e-02
1.327581134762764736e-02
-2.125513459115241713e-02
-6.416460816533212097e-02
-7.384988092471053700e-03
-3.907850001595828543e-02
-1.435286238442073231e-02
-2.397311385853681878e-02
-1.621647239718578687e-02
-8.735759890497303559e-02
-4.826682233497844865e-02
2.946380558746874295e-02
-4.286352814090212127e-02
1.350296579171206962e-02
-4.755065389374563134e-03
2.546510119766290381e-02
2.732330283655935027e-02
2.759725730993083104e-03
6.051055814600747595e-02
7.653493519257668909e-02
4.411094970195549719e-02
1.113048281541992313e-02
1.073759506196293040e-01
2.499660364508139027e-02
7.613525174710139565e-02
9.497912033671068732e-02
4.233834071801480942e-02
1.340860597487383843e-01
7.633508178551251522e-02
1.357944714150813859e-01
3.138839936338789355e-02
7.930012860320037604e-02
4.261740550554101586e-02
6.919046913199745907e-02
1.725345087655739684e-01
1.127225476638787083e-01
1.392547744405211174e-01
5.168361013467669823e-02
8.926578508901153453e-02
1.502605144008037630e-01
1.637232697475865251e-01
1.157346005124652993e-01
1.232086378576298519e-01
1.035139931556552789e-01
1.284756458755698105e-01
1.099547877504638144e-01
1.214662379378979862e-01
1.417950159225347950e-01
1.452655290461117299e-01
1.340014558740317274e-01
1.688735334909779451e-01
1.260499686146317189e-01
1.685951590232632191e-01
1.571904591591073430e-01
1.100530063216383081e-01
1.527016134964464533e-01
1.133123726260429481e-01
1.266830585841871026e-01
1.454002847936730625e-01
1.625731518096703021e-01
2.012407310109492198e-01
2.726106459127336512e-01
2.710010995141154400e-01
2.929604516954247839e-01
3.217916558274815930e-01
4.994794651692003318e-01
5.315639884317460151e-01
5.990832742372657060e-01
6.721409417027757183e-01
8.451068412108092565e-01
8.502830092727500233e-01
9.917866654626439349e-01
1.125045283392777540e+00
1.147598551152119173e+00
1.235749235640436039e+00
1.311626865664541786e+00
1.406403511113378579e+00
1.429611445977618800e+00
1.475389765354101712e+00
1.461984465269452027e+00
1.452334021001332243e+00
1.382014510957223719e+00
1.376172111426282152e+00
1.355742477659324097e+00
1.207934764069783062e+00
1.137074508549389407e+00
1.021972765238995384e+00
9.546592647981371194e-01
8.251934737373628481e-01
6.706688954415790382e-01
6.761678888380323604e-01
5.640639222609957759e-01
4.964536003228713912e-01
4.060569167978599348e-01
3.658152263484369948e-01
2.616231405660406906e-01
2.760690053389204257e-01
2.052092698663087744e-01
1.262131416993816369e-01
1.146027352675415695e-01
1.341080186789970208e-01
1.278132358768590271e-01
1.393548557330272497e-01
1.115676538884090713e-01
1.284889006509574161e-01
1.366665363662535881e-01
6.649533757340068962e-02
4.356916676331266947e-02
6.937553846362332077e-02
1.250996969469975462e-01
1.148579576956760551e-01
4.434935470577600070e-02
1.322021797272240617e-01
1.440756928227942824e-01
1.179776938498823119e-01
1.584569698993630871e-01
1.449907062785195100e-01
1.166632831752324184e-01
8.649849858033226147e-02
1.276323352590845173e-01
1.647740024486301635e-01
1.693194664399678417e-01
1.599653168468591069e-01
1.807907203413821051e-01
2.092687450301106422e-01
1.751339900639298230e-01
2.328922522549144447e-01
1.988675182798222696e-01
2.281617182123442666e-01
2.382328928687131031e-01
2.428838730905572840e-01
2.583923453581088436e-01
1.878557346371439452e-01
1.974802317247532357e-01
2.395559765147465270e-01
2.186961041747708112e-01
2.420524787497765895e-01
2.572811456669918395e-01
2.566082529007243651e-01
1.872491688650317343e-01
2.172823607768122334e-01
2.517845552222715555e-01
2.095476681765011395e-01
2.772452240927606448e-01
2.635308166426993948e-01
2.691242427703089968e-01
2.573283913721201577e-01
2.232586872541665324e-01
2.418077186012421165e-01
3.105852845881197366e-01
2.368252764369854768e-01
2.023282048873353833e-01
2.179241701977642220e-01
2.401542653666750016e-01
2.242658224684607182e-01
2.241849552040504900e-01
1.912586529064106144e-01
1.986032646441104887e-01
2.546348886057873129e-01
2.025989127665581147e-01
1.689001090490086787e-01
2.356028032197898803e-01
1.908824126803484733e-01
1.363632864878493722e-01
1.988549363654597835e-01
1.656200385750369597e-01
1.632692348599062981e-01
1.405368971594587180e-01
1.471772401055881918e-01
4.399945941948163464e-02
9.387478419558276110e-02
1.697546495529300425e-01
1.239501567901671458e-01
1.301760664195846795e-01
1.114271388618957859e-01
1.100300194594033137e-01
6.623924754790000424e-02
1.366333661363322294e-01
1.590486243044406667e-01
6.468375333524775672e-02
7.072944054049017104e-02
5.537679479430484414e-02
2.238560038735248892e-02
1.367054966384139703e-01
6.343379366980075873e-02
7.097253090826977084e-02
3.177776477974611491e-02
5.565223978429272023e-02
8.224745765044373658e-02
5.828808545132350277e-02
4.071300863921730601e-02
7.238753361044573953e-02
3.396277122087015821e-02
3.870332195019697552e-02
1.381605865769849548e-02
3.189324814304120986e-02
-1.554081004936819568e-02
7.606008838735252298e-02
8.944834132136297161e-04
3.559934323085685998e-02
-9.238528349677961257e-03
-8.462330929709179980e-03
3.272843804302968951e-02
1.463446871386371931e-02
-2.716359018649706913e-02
3.195521819257077234e-02
5.850942407621449043e-02
-1.345957725436992998e-02
-2.367202642929357864e-03
4.139691611458566622e-02
2.361724573466214908e-02
-4.509986422414331494e-03
3.629218660076804354e-02
9.699919533691090875e-03
3.444946879849933308e-02
7.247426365585932229e-02
6.084044364289302453e-02
-5.310936694309358747e-04
6.627912674479095531e-03
8.737903516388249858e-03
3.845002330447852557e-02
2.145600455138150370e-02
3.040404208484399212e-02
-6.902072113208514159e-03
1.854821031854134855e-02
-2.067085847160460982e-02
2.632565554095012486e-02
-2.338225797257858021e-03
-1.140531051721258883e-02
2.553236460497207774e-02
2.830450706478720296e-02
1.075587223214230850e-02
2.507729648585401566e-02
6.818025440118117425e-03
9.639381704234055437e-03
1.046135733708842067e-02
4.611965891145897167e-02
4.149495404972340651e-02
-2.726724381858321167e-02
8.410563711144999899e-02
-1.877711852608940010e-02
1.914915776669885369e-02
8.303251242066987670e-02
4.406066570007685645e-02
8.007890395243182080e-02
7.995787863730623168e-02
4.652593587716627455e-02
9.887353832411580057e-02
9.041863799973645643e-02
8.606516095427901858e-02
8.472765416221310353e-02
1.625466350296195794e-01
8.810180086510373265e-02
1.312007819384772567e-01
1.396758863809973716e-01
1.495469859293083736e-01
1.605985034919862331e-01
1.269243591504400914e-01
1.315331259412813036e-01
1.686212258829785926e-01
1.255074673449418365e-01
1.234967646706217059e-01
1.711559325098262752e-01
1.254390984600521897e-01
1.496904451502088784e-01
1.602643791228312853e-01
1.617128739851003694e-01
1.699968043618906854e-01
1.939807232853882901e-01
2.172039644023803506e-01
1.514167996620586487e-01
1.832175357136352212e-01
1.740705481686147804e-01
1.824547089824167245e-01
1.690109687817756001e-01
1.499054691380013737e-01
1.875627515985347771e-01
1.512862063049139894e-01
1.850044235584018537e-01
1.954159448021561274e-01
1.270293045373992180e-01
1.874511981453433895e-01
1.418154301291398300e-01
9.610709049196713982e-02
1.780363278723230969e-01
1.693025621257916724e-01
1.872884961809314353e-01
1.747212174121684225e-01
1.484367046098130638e-01
2.386410509137153468e-01
2.232328596922253938e-01
2.994722436964426526e-01
2.797929404475486548e-01
3.766990613430297730e-01
3.606272747002294277e-01
4.370070550020004330e-01
5.138809064981243457e-01
5.952673129341424785e-01
6.696472544155465112e-01
8.131196201790407141e-01
8.721170110353460014e-01
9.769304906302602731e-01
1.077509842642001781e+00
1.181394561163584545e+00
1.281037310703911469e+00
1.331149452728419114e+00
1.336411783800700137e+00
1.455970591435160166e+00
1.431726210410410260e+00
1.512288524779814347e+00
1.466227240489294426e+00
1.488712575983156539e+00
1.438295690494427070e+00
1.427094100041170988e+00
1.345912760936798680e+00
1.192673947760964470e+00
1.172295424526116570e+00
1.113612971871226653e+00
9.810126689138807254e-01
9.043772698883322247e-01
7.833986710378404439e-01
6.768277617423529291e-01
6.334207156921219939e-01
5.121970735187629797e-01
4.559742223179940046e-01
3.302531040076056579e-01
3.391617637326955759e-01
2.953925548309604965e-01
2.583745728387248919e-01
2.218990671488152433e-01
1.882183395293738626e-01
1.534422594043048094e-01
1.817437524623032874e-01
1.619537506420621054e-01
1.576324771644408429e-01
1.744514150771672989e-01
1.765361512960733348e-01
1.079347652828379356e-01
1.636352442937372420e-01
1.859494717620089055e-01
1.707257397442770719e-01
1.765126662105249711e-01
1.513225283078330485e-01
1.958099328702080366e-01
1.232840292755308931e-01
1.897648936158007893e-01
1.513617905661322205e-01
2.078183392806738083e-01
1.761585102622230670e-01
2.503701411747188965e-01
2.083604585037353574e-01
2.045059384573259809e-01
2.139438622041185400e-01
2.770383272954297649e-01
2.452722743171621977e-01
2.256462859467759097e-01
2.695556635960056346e-01
2.662902214794917732e-01
2.588781780995328963e-01
2.628374968443094040e-01
2.715821510710744735e-01
2.732268880913616971e-01
2.786617215729543795e-01
3.058373582330126128e-01
2.487520718815076637e-01
2.676810022114093357e-01
3.191532177404567960e-01
3.098992272288980110e-01
2.815301080994724314e-01
3.202614779113731047e-01
2.684708024270281990e-01
2.410949126331947412e-01
2.559085248200237972e-01
2.866739387467829858e-01
2.772487619349994770e-01
3.144691039322230486e-01
3.277742606020052074e-01
3.035141012191209797e-01
2.885057503960248293e-01
2.588991566818685808e-01
2.890872047358968855e-01
3.138878398369015499e-01
2.862735344581305852e-01
2.776997181153581518e-01
2.615729946866708344e-01
2.036798729652214424e-01
2.961091373329944876e-01
2.445339856134427226e-01
2.658856664151081906e-01
1.868964723158137164e-01
2.452080050840682868e-01
2.361394817232363719e-01
2.323128315319871739e-01
2.596222214115974092e-01
2.271687989902630156e-01
2.647224732615713338e-01
1.969729246125593025e-01
1.654419880275511123e-01
1.976572952985269915e-01
2.250707641009654092e-01
1.402355959212951420e-01
1.745340620869511861e-01
1.512632457419461340e-01
2.099181665088528659e-01
2.201572623161295039e-01
1.528360007354976624e-01
8.409588141080262536e-02
1.465950496249908697e-01
1.522989055920572210e-01
9.248650844751567235e-02
1.566677661926391685e-01
1.792593767190142628e-01
1.647046461015448382e-01
1.357996326149019384e-01
1.486089294246308035e-01
1.097993924434622764e-01
8.500164435278131925e-02
1.264372491289346145e-01
1.310252312447179324e-01
6.868928810936897333e-02
8.244691400884360255e-02
1.082434627702781177e-01
1.486903456105888033e-01
6.690649616598484672e-02
1.041720393986138027e-01
4.020350132312421054e-02
9.816341806130943204e-02
6.640087100771507878e-02
4.033119599835208180e-02
4.819881094324908466e-02
1.164287408656617673e-01
6.986715982987054541e-02
1.842608087119232754e-02
4.998033392869178498e-02
1.280332562957526843e-01
1.085883673559960572e-02
7.033635189349871086e-02
1.493071274303295060e-01
2.271485096167723955e-02
5.984456604883869185e-02
4.718672500086223964e-02
9.438396621416782206e-02
5.987034617164850581e-02
7.857616831831028270e-02
3.993279896936673817e-02
2.857895084036948113e-02
7.127708949738265076e-02
4.423460488522980294e-02
4.588352284785342933e-02
7.582361116438202098e-03
4.006543613390575742e-03
3.017595379190029029e-02
5.279680915392464396e-02
8.884601300443181748e-02
6.202151014483568703e-02
7.363863116704150169e-02
4.038119494222273953e-02
-1.527906529233690608e-02
9.320888264439852744e-02
1.223093012400766760e-01
4.628825341977677033e-02
7.525926412958061640e-02
3.479929813608108324e-02
7.575390999046784091e-02
5.313505748864300049e-03
8.421188909861415661e-02
1.542962929653537985e-01
5.392947198009277049e-02
8.792160769153595234e-02
1.148340381232120233e-01
6.738448923655254719e-02
5.896476844655455102e-02
5.787547982221537268e-02
6.267044375570524073e-02
3.563069078329186845e-02
4.826040996728080124e-02
9.325377951799454501e-02
1.192596630143402253e-01
1.719808888378352718e-01
1.515794055818749098e-01
7.408002434071417341e-02
9.779532305109117640e-02
9.219270853014127631e-02
1.360519186757844223e-01
1.250108819960916440e-01
1.823720191774354238e-01
1.105930690802612165e-01
2.050645839317611352e-01
1.730427108093592903e-01
1.849320713476541034e-01
1.612267920045757641e-01
1.542139000282723715e-01
1.753700681386017868e-01
1.401052714330537352e-01
1.998147461964435712e-01
1.458125975078942149e-01
1.879272665791711650e-01
1.750583269925080343e-01
1.889552323119041977e-01
1.906976821176531445e-01
1.884408794750233040e-01
1.982164634736400255e-01
1.655926301967035885e-01
1.740868904943612128e-01
1.747510408107436908e-01
1.768142500954991703e-01
2.288985431284687455e-01
1.839437046667673492e-01
1.814682687055951815e-01
1.724175758670026815e-01
2.243036685963626653e-01
1.670016157781038790e-01
1.661049295045383678e-01
1.990255874771161282e-01
2.505791090322165293e-01
1.571271736329686863e-01
2.193952865595971136e-01
1.940790572393325530e-01
2.122967172649208867e-01
2.065242244581627640e-01
2.259051523327165467e-01
2.633527840552409849e-01
2.976672629641147205e-01
2.653481852512519223e-01
3.698303441689106963e-01
4.055409605765902814e-01
4.616305702268637123e-01
5.345517844158080845e-01
6.035206602717833047e-01
7.056247483095223760e-01
7.941001260607296608e-01
9.017461009479623701e-01
9.958278076646558397e-01
1.079576757072179261e+00
1.174395623048084758e+00
1.249660855361658829e+00
1.316007294732035593e+00
1.403123341539281643e+00
1.432741444904495953e+00
1.504133956517123449e+00
1.503053586552621557e+00
1.574944270075884445e+00
1.509628270929635141e+00
1.458834026774044279e+00
1.428386964839314155e+00
1.323729727059868466e+00
1.310331080438010165e+00
1.196519375462295809e+00
1.082555464222963559e+00
1.011744537321076942e+00
9.269036153816565538e-01
8.322591450588072703e-01
7.294015746261440780e-01
5.657788618522849866e-01
5.201392595529176210e-01
4.710642185211657007e-01
3.744078856876975614e-01
2.949983288617420985e-01
2.434157370484397453e-01
2.890672594307800436e-01
1.646298582762531770e-01
1.982541335604306176e-01
1.412237676142641118e-01
1.847869357108744004e-01
1.709005107200679829e-01
1.982674516324837710e-01
1.674473401643988835e-01
1.765478946516918779e-01
1.652622705050379726e-01
9.914342555898822407e-02
1.261765970267391401e-01
2.206724827678087364e-01
1.668180949094587029e-01
1.539115385575588191e-01
1.903361752127440409e-01
2.469589714273723868e-01
2.213095018239924772e-01
2.351750300618650202e-01
2.286288171745818332e-01
2.227763774513053796e-01
2.135704174079319229e-01
2.614390012709770783e-01
2.089118814114276079e-01
1.762822051647003341e-01
2.307306090356728290e-01
2.408320025511852258e-01
2.400692116934894371e-01
2.299376077743339186e-01
2.190193952113791143e-01
2.399492478187827960e-01
2.514945537573987644e-01
2.879295222692030976e-01
2.543406643473520301e-01
2.898074955116894391e-01
2.455476220981752111e-01
2.683762466822392501e-01
3.152126274922334992e-01
2.825614257371436566e-01
3.014539960764843762e-01
2.498199145410738842e-01
3.035808215651416009e-01
3.067581774134275907e-01
2.845376427007417219e-01
3.461498158010615778e-01
3.024122299513949397e-01
2.803592464767521442e-01
3.090761378296857931e-01
3.241234133651225702e-01
3.278273462317362608e-01
2.975941925315411241e-01
2.614204636396723069e-01
3.229214107352606500e-01
2.629475593660915989e-01
2.493206022901193197e-01
2.752679480919438815e-01
2.747132910181557808e-01
2.747926144506081525e-01
2.406421378915109821e-01
2.339354428736905300e-01
2.845170574879493097e-01
1.927969816254842261e-01
2.267960794110905898e-01
2.553047542112752422e-01
1.759861834861052854e-01
2.145957756618421530e-01
2.042560304674515825e-01
1.858069334615255197e-01
1.712827224295786488e-01
1.986782950877034604e-01
2.526642278558729471e-01
1.679084591673027926e-01
1.820860148546297741e-01
1.466724891692813837e-01
1.901782232484741930e-01
1.756254611275503141e-01
1.517280123692086313e-01
8.304072875063808756e-02
1.760192539859211092e-01
1.407608117945209625e-01
1.537805789016728764e-01
1.157809359305405350e-01
1.157029370589742062e-01
1.325559936811492867e-01
8.218212616243407431e-02
1.171458029452454863e-01
1.172339913981460258e-01
9.617194158480271704e-02
1.047404638776921748e-01
8.787797779577950774e-02
4.255931880883107032e-02
7.349762796325928771e-02
1.208211407021945044e-01
8.796027097572456377e-02
1.341183625166262466e-02
1.039095968245034030e-01
4.238136977125145366e-02
6.291858328044644399e-02
9.161709068939380418e-02
6.428473878664045515e-02
6.507638808257176777e-02
1.069719140459895745e-01
6.426998813337363170e-02
4.963083656332152593e-02
1.198617001491153466e-03
2.602397267409057441e-02
9.884732112875743715e-02
2.086542135182378743e-02
8.635932206893495722e-02
1.376722165723161251e-03
1.050619459788496371e-02
-1.754262891174857703e-02
5.369494704047165362e-02
2.888823002138013116e-02
1.230937120525184628e-02
1.407029288438004302e-02
3.955195177837367293e-02
3.985552392543210976e-02
-9.030601396016128823e-02
5.815293544702411499e-02
5.865295733323659666e-02
4.646467098697502907e-02
3.541922744838283538e-02
6.321762119461131479e-02
3.934525812518188670e-02
6.749049402912775386e-02
3.640133567303671658e-02
-2.835209775638113106e-02
4.103236658268016174e-03
8.092599338005102005e-02
5.832965206476067865e-03
2.280293388545649724e-02
8.357626932125113151e-02
4.038718957666577458e-02
7.495332755629900701e-02
-1.660487291402296811e-02
5.588887745360759246e-02
4.243883778764888370e-02
4.947094484259573904e-02
4.096028687401236101e-02
7.392687714578968783e-02
7.079539154978281568e-02
4.340757983282732269e-02
4.282451018496338802e-02
9.052986925095771187e-02
1.903660380180501044e-02
4.867235956266316443e-02
7.488335643153773424e-02
9.549827131877926256e-02
5.427654629200171638e-02
3.487769805695925540e-02
9.215879532007689723e-02
9.692895688455976932e-02
7.312120011702011313e-02
9.731853041903516799e-02
1.231242750240057610e-01
1.046166936861570723e-01
8.249348621728358477e-02
1.357013704700870127e-01
1.035709332692741486e-01
1.131220203266057045e-01
1.140953943456544661e-01
1.716353996724805653e-01
1.456384342211808902e-01
1.420269614317186679e-01
8.605947529795199280e-02
2.124609888164617488e-01
1.130827325156213148e-01
1.577642496554963469e-01
1.078014265902135504e-01
1.430575034880352259e-01
1.359194306343791681e-01
2.583888468614373157e-01
1.820706252242439982e-01
1.495604814602489729e-01
1.855043425847762439e-01
1.809418841454152882e-01
1.361438203745225783e-01
1.674633883478857665e-01
1.726327354470023334e-01
1.608425092331419726e-01
1.565302333268492607e-01
1.687587858642784766e-01
1.808567054739436131e-01
1.721174050492174090e-01
1.779878519445065310e-01
1.282333086542074008e-01
1.319117723217612392e-01
1.940211970327524738e-01
1.194066805957093164e-01
1.134154496113439631e-01
2.167942692839037178e-01
2.218218354753169752e-01
1.778077060086076244e-01
2.116568525709190962e-01
3.013765523107019839e-01
2.875293853521344589e-01
4.027443930324418608e-01
3.846322190457118206e-01
4.563995883857709934e-01
5.691908371174324577e-01
6.416064118555317997e-01
7.979982167514999558e-01
8.407058953329019646e-01
9.730382779855635267e-01
1.009652749883936940e+00
1.167203846726787342e+00
1.235267562857736756e+00
1.313377462460394662e+00
1.344767844059642448e+00
1.428958720702806273e+00
1.430244459021687176e+00
1.467487277342887309e+00
1.514165504007566998e+00
1.481609400823888700e+00
1.361488367912313091e+00
1.350570576536495260e+00
1.279524835758615975e+00
1.242193472683159383e+00
1.168275753104987658e+00
1.050030166295763845e+00
9.570899886784357546e-01
8.635888776972410197e-01
7.306905238635422739e-01
7.307154326145657297e-01
5.868033004857260426e-01
4.753659358215401864e-01
3.551860244855297721e-01
2.828672811519829522e-01
3.176759972873220983e-01
2.846710457183845300e-01
1.690098260174382749e-01
1.456423212285341273e-01
2.262634663238986543e-01
1.387273446102944841e-01
1.204216721512539751e-01
1.293245947549492569e-01
1.199468984734450294e-01
6.119367595898039108e-02
1.489085004598791617e-01
1.171480506794204263e-01
1.741170087714681569e-01
1.347908811086186431e-01
1.228546227257931445e-01
1.151047346351966594e-01
1.724688947115479987e-01
1.187738318122801978e-01
1.327139716550306547e-01
1.214151083450302759e-01
1.171254836256000881e-01
1.542210912543915402e-01
7.252681454689612062e-02
1.525013447171650882e-01
1.673721691166569769e-01
1.596529396920617905e-01
2.007146010560743321e-01
1.423311970111679758e-01
2.136524614111579567e-01
2.283885126543465927e-01
2.523654682015746276e-01
2.416860413552613385e-01
2.127633058411921019e-01
2.243523324967001409e-01
2.134315750689772528e-01
1.845648873049410832e-01
2.292006988805575796e-01
1.967973260018395509e-01
2.409804494248044826e-01
2.478198567919698558e-01
2.229399399036873231e-01
2.774816778229926562e-01
2.239884146653877972e-01
2.879060310115272858e-01
2.407986960306653101e-01
2.334639403702380711e-01
2.600059007638054753e-01
1.992702239471522696e-01
2.189949014861677923e-01
2.637358866500706944e-01
1.903991373701945933e-01
2.051174682183800890e-01
2.120829057080144686e-01
2.559292141025878986e-01
2.211357078083500682e-01
2.167775612061001445e-01
2.103524706191063354e-01
2.161451163866547620e-01
1.331969356522833270e-01
2.482632302420667569e-01
2.560007219065972284e-01
1.932467501341114391e-01
2.046116465097266024e-01
1.598695796431550131e-01
1.810989147318187720e-01
1.742470652369338679e-01
1.789299479798440173e-01
1.543890376944830611e-01
1.203292754506623818e-01
1.242160698181670742e-01
1.376262114137338233e-01
8.391437886846039862e-02
1.328297660967565352e-01
1.213151440427752692e-01
8.808330442475531541e-02
1.434395884089929296e-01
1.052089317926377943e-01
1.730631997771924502e-01
1.237605605207856008e-01
1.160285559068299360e-01
1.102806725603335675e-01
1.538744773874023974e-01
1.036448946071516775e-01
4.042199294839286111e-02
3.597612916066567079e-02
1.436184760161532403e-02
5.547919897542309686e-03
2.638987742699661770e-02
5.043157392956491847e-02
-3.079340805313804386e-02
5.746584218858043214e-02
2.000332032291975148e-02
6.858923454609769377e-02
1.026550107819325097e-01
7.600901268297464985e-02
-1.765593406819378902e-02
3.154246637796478958e-02
3.266783390138242732e-02
9.320532871502992811e-02
6.177555760800035323e-02
2.241461447043250135e-02
2.002366569055752388e-03
-3.185834738147296646e-02
-1.845804546167953419e-02
3.418236412370842525e-02
-1.815256607149055151e-02
-5.720572930921229149e-03
-2.584085313981354312e-02
7.300678690305650864e-03
-8.588089535365259208e-03
-7.196687802913624699e-03
2.666308174679823256e-02
-9.040438016302377450e-03
7.381617056536071003e-03
-4.355387062523242980e-02
-6.491630466802546240e-02
-5.224981274553915783e-02
-6.790187426278983945e-03
-2.123402283842285715e-02
-5.194806648810140759e-03
-1.703797293985115369e-02
-7.703868775943983893e-02
-4.078682025125326960e-02
3.248597239723001462e-02
-6.238170318871987668e-02
-1.175672631274958663e-01
-1.615503509838184595e-02
-5.062381933580797910e-02
-4.255870410859079883e-02
1.155528126612320045e-02
1.182041529418691173e-02
-3.405658905547708643e-02
-4.837657894301131828e-02
-6.193796040466274799e-02
-2.992597106586783462e-02
-2.878815303013127630e-02
-5.346060529499079700e-02
-7.817783594581186046e-02
6.463723231850772299e-03
-3.318956812003975854e-03
-2.008577522245139774e-02
-2.327873721572378679e-02
2.083439451011283305e-03
-3.870139539002848128e-02
9.168894795427824651e-03
-8.342339346822683077e-02
-4.546306837841106174e-02
1.076275122476508944e-02
-1.471284215558572514e-02
-2.496311077161070258e-04
-1.517170204725978161e-02
-7.139115955231528643e-02
-6.480953596055410992e-02
-4.301378280279700983e-02
1.920707662346188976e-02
-3.163343389239403614e-02
4.112944569526946065e-02
-9.009488781209235020e-02
-1.424057847229435320e-02
-3.154889139566627310e-02
-7.961445412711966318e-02
-6.322423665848944663e-02
-4.030059465867286139e-02
3.783133538673363883e-04
-9.902867305915422080e-02
-3.154665984490179209e-02
-7.901655201086467406e-02
-3.871877074237799199e-02
-4.636937727904286155e-03
-7.454308925510030881e-02
-3.770934525483776723e-02
-3.110110508786356753e-02
-9.178067654742427806e-02
-6.854293591935320396e-02
