1.422392000239987020e+00
1.375639432845660481e+00
1.370545157941097880e+00
1.356149967465951622e+00
1.271772733030788194e+00
1.186523731944268079e+00
1.154252493074101382e+00
1.020273301227957896e+00
9.096629986543649515e-01
8.655876205320633954e-01
7.592291368068996293e-01
6.650203169881730991e-01
5.854449663221236166e-01
5.219948942677333781e-01
4.188650264939861589e-01
3.259911325456508191e-01
2.859077757586093171e-01
2.022805077767770854e-01
1.991715133580786168e-01
1.344501649408382515e-01
1.192907066201221167e-01
1.283596345875547273e-01
2.321201370887183285e-02
5.308873358311989171e-02
1.037823212456620015e-01
3.693614957449943559e-02
1.062133385751424103e-01
4.776449012833230284e-02
7.194535256615103291e-02
6.184271165958368788e-02
5.705046413100646474e-02
1.359281430427725090e-03
9.244218448628867268e-02
1.118261006873714353e-01
1.068354942743765246e-01
1.429796361013098704e-01
1.119985263544243798e-01
1.213943758381166027e-01
1.033368235586318296e-01
1.236870694186013864e-01
1.220743908152762403e-01
1.353812153582660827e-01
9.873840676463159494e-02
1.478197790060687966e-01
1.169518221775910083e-01
1.217520306583244338e-01
1.588639822300703108e-01
1.777943876058742378e-01
1.795695821242963564e-01
1.398256984312665485e-01
2.186773405813952909e-01
1.686719998810519150e-01
1.808332313347507103e-01
1.794622244104062125e-01
1.745395751207138579e-01
1.796554985829910411e-01
2.485509584355857782e-01
2.494209096952583193e-01
2.055434477581113695e-01
2.039196678734662149e-01
2.159575459666178976e-01
2.456729118989493532e-01
1.211128972317439545e-01
1.870987178283696484e-01
1.726631016604101843e-01
1.509210395481242195e-01
2.030632629818152068e-01
2.239674851080123430e-01
2.017230973401877570e-01
1.708884080368203995e-01
2.216193991902427607e-01
1.359951790994966547e-01
1.764141000268505122e-01
1.515120734112996026e-01
1.487471946123434530e-01
2.206690649713557995e-01
1.761508399543379733e-01
1.616667677688302107e-01
2.291577208122735354e-01
1.755041251820104176e-01
1.613760156041017246e-01
1.159416775962526236e-01
1.352790762748250497e-01
1.641957034571730201e-01
1.723831673518734786e-01
1.537051812055655886e-01
1.521477351307043424e-01
1.031492401747877846e-01
8.861443341328195666e-02
1.022407259001678614e-01
9.121887279431123430e-02
6.508690556154028695e-02
1.076755064898054226e-01
5.431244436080059912e-02
1.161227145851612408e-01
9.531767406121396946e-02
5.440064276399694809e-02
7.181355607648758077e-03
1.270547580310679159e-01
4.179203534778949680e-02
4.050330360744477248e-02
-9.624167130086597188e-03
1.925779600420875204e-02
1.641351398225767561e-02
4.343362292288887455e-02
-4.861559336000707832e-02
-1.200153516828085520e-02
1.991250986069643958e-02
-3.795474473105957952e-02
2.417978046566131300e-02
-4.111497859819998602e-03
-1.883675448697263305e-02
-2.588546187156018363e-02
-1.867444453241973168e-02
-1.601648644142473349e-02
4.923941535067896669e-02
9.612454125096453472e-03
4.945700053416129949e-03
-6.975432947003570860e-02
6.403912051309364195e-03
-2.908323672789091263e-02
-4.091490970297689822e-02
-2.117131555706859569e-02
3.034685925717928862e-02
-3.593183382450036711e-02
-8.874968845972555642e-02
-7.149824999416951044e-04
-4.851048023004705945e-02
-7.001014470817679136e-02
-9.209089464061830099e-02
-6.014167723955855804e-02
-3.875768751932839873e-02
-7.642298619866620679e-02
-8.068731886881196080e-02
-5.799735346568877375e-02
-4.543416917824552592e-02
-4.789962151063382328e-02
-3.645990222362859717e-02
-2.594747080410354789e-02
-3.906476489227930782e-02
-4.137323093240963257e-02
-6.279380771445022824e-02
-2.814185889430263071e-02
-3.878271547709911948e-02
-5.146133357684436194e-02
-7.714951884126305948e-02
-1.144243142265129187e-01
-7.187672187533572510e-02
-6.028793797042418523e-02
-2.464177759992978306e-02
-4.158170002454677355e-02
-5.770607035513820177e-02
-4.957904195584879325e-02
-1.048293848185294919e-01
-5.954764138680346958e-02
-6.678445599930468712e-02
-7.564668958248900454e-02
-6.905482149424781169e-02
-6.804745941593777492e-02
-4.051254810039302268e-02
1.129579359923137821e-02
-7.219257874599092906e-02
-5.481236176710123364e-02
-1.376390615370953752e-03
-4.698024477076909178e-02
-3.465036010760521451e-02
2.040903270900185085e-02
3.249255883185517280e-03
-3.439179833713288531e-02
-8.624714701430775954e-02
-3.971173089827556568e-02
-1.025074139607826118e-02
2.051080436236724786e-02
3.046626223570760017e-02
-5.370345530178192994e-02
4.065748547336794222e-02
-2.731320284785896529e-02
3.157886771023592221e-02
2.114867017988479592e-02
4.137397598610340066e-02
4.799996528841903726e-02
3.452671774176004765e-02
5.781367317120014032e-02
-5.448243817875127182e-03
5.555037988733728394e-02
8.658774139009856041e-02
8.269494948882891161e-02
6.392430483883772274e-02
2.343331351227100762e-02
7.359747531903110263e-02
1.139283256141863931e-01
5.713506901806675309e-02
8.217449156010975253e-02
8.172640698152014438e-02
2.346022043226837078e-02
1.056414864819518185e-01
1.190462990599630011e-01
8.516378949178471380e-02
1.174459613432261296e-01
8.309617029225374596e-02
1.254953757618602894e-01
1.050047225715769750e-01
9.860292173165549623e-02
1.451791258994306610e-01
3.341331228289662336e-02
7.425324180010887953e-02
1.061201837350725652e-01
9.976998316242366438e-02
6.460720423638047216e-02
8.912190980971537724e-02
9.595897590010882272e-02
9.349840033044590215e-02
1.057180300085640706e-01
1.396329046440167310e-01
8.721125826554970706e-02
1.246716877733130835e-01
1.045506794641015980e-01
1.207036705341822391e-01
1.620283277406821543e-01
2.122236227771980566e-01
1.498683435894951066e-01
2.262729182156927588e-01
2.712082254712985807e-01
3.582645886635408283e-01
3.477611552506703063e-01
5.089969525299631314e-01
5.086553278688913382e-01
6.062095210915493526e-01
7.074137763651847655e-01
8.147524465410812544e-01
9.208663632645121000e-01
9.705580527669519508e-01
1.050602039284449951e+00
1.121556354628002738e+00
1.230503494822240862e+00
1.355502592188844613e+00
1.340049866611818796e+00
1.382699725930499612e+00
1.380220945393606513e+00
1.398434754198849994e+00
1.371257661203407752e+00
1.327386633861430854e+00
1.302293089061191012e+00
1.214896445922934998e+00
1.120468966674329936e+00
1.095079126661693936e+00
1.017618437064413683e+00
8.934713045932342057e-01
8.341533331193204948e-01
6.802767352931079481e-01
5.958263817101581150e-01
5.228511490586389421e-01
4.588197154347919970e-01
4.135449646633186926e-01
3.531582437400891394e-01
2.777429212849647500e-01
3.115452927119174986e-01
1.899613357424397297e-01
1.465185736474246547e-01
8.328831322231744494e-02
1.001789968253708474e-01
9.171295443685983928e-02
1.199014644651189287e-01
6.671119174364728566e-02
5.499749581185194025e-02
6.958322265530128559e-02
7.505063132778223844e-02
9.598203478896760732e-02
1.235271202983946603e-01
4.725483101941180958e-02
1.302012231739783643e-01
6.993236023668299162e-02
1.363432584651567692e-01
1.189688019502496141e-01
9.510360551793561878e-02
1.043035690840114771e-01
9.309807405342915287e-02
6.548925731542629136e-02
1.181430724716023839e-01
1.439424519208933051e-01
1.229073908757903066e-01
1.224601123792625479e-01
1.247293830397381287e-01
1.072552149849911041e-01
1.523182538508195127e-01
2.112970519661627467e-01
1.893896375396604825e-01
2.032992091459421835e-01
2.002854288596194188e-01
2.146737723621437444e-01
2.190212533599887323e-01
1.718559233106199402e-01
2.415998695768579729e-01
1.438495207517342389e-01
1.699883850275775710e-01
2.246081453638335834e-01
2.015761147277949084e-01
1.997118651995560545e-01
1.860350466223996690e-01
2.385755581989967289e-01
2.605266166697594032e-01
1.856113410490876636e-01
1.842542367743076892e-01
3.092324003302636126e-01
2.383025825197648273e-01
1.950800909611999645e-01
2.399143741526398310e-01
2.527925408376087146e-01
2.296646869073851460e-01
2.289607114655851927e-01
1.928283983043583838e-01
2.266410336249966295e-01
2.273216579477337629e-01
1.834147649128802793e-01
1.640310563393864163e-01
1.815374298268278563e-01
1.650772236355170230e-01
1.879765999972005386e-01
1.028021576249418673e-01
1.739254213308971397e-01
1.761122286221939726e-01
1.160180061545994928e-01
1.957444146040686339e-01
1.330590148821934049e-01
1.374440696178462484e-01
2.146121386846051582e-01
1.411738180828489286e-01
9.515388401433601262e-02
1.497282103143982024e-01
1.732330482693315021e-01
1.410908362985719977e-01
1.310387829506296786e-01
9.812432223771083706e-02
1.125782944292185450e-01
1.246441576503702076e-01
7.671039948448400703e-02
1.034453686253642007e-01
1.220196769707416196e-01
4.041755357292987905e-02
7.002487191692485791e-02
7.797989844119651570e-02
7.867133106251383845e-02
7.874967220990319872e-02
4.905916107538690896e-02
5.448093660864515575e-02
3.109037576069961437e-02
2.437168434207778733e-02
3.602548866471962097e-02
1.551789686719524594e-02
4.682795804976877529e-02
-2.181494908638385508e-02
-1.128956390763723519e-02
1.405510783564806881e-02
7.182657646700688070e-02
-7.236467163907600586e-02
-9.827405364322382153e-03
-4.490285049521750699e-02
5.572147184564077427e-02
-1.196681671277008592e-02
-3.497698030923472590e-02
2.346833804325401673e-02
2.577551781439983009e-02
-1.425465291448129064e-02
2.699625700672542844e-02
2.657683371552144180e-02
2.596575832200258976e-02
-4.921847224160055823e-02
-2.608091760790268165e-02
-1.494422663213914107e-02
-3.568906664714693866e-02
-5.752639823368169147e-03
-5.494384945931272968e-02
1.574388627956856135e-02
2.535693562730213790e-02
-6.308432582356193752e-02
7.336871204374134647e-02
-5.800637030171952591e-04
8.463314750096276318e-03
2.192529713254015578e-02
-5.718852476499239335e-03
-2.939444371523286179e-02
-2.283436686487438916e-02
1.751633290723320774e-02
-4.657963895130477761e-03
-6.829543405224736130e-02
1.651813286690459112e-02
-4.177949839410910471e-02
-2.961725254009327235e-02
-1.953350225572442200e-03
5.071332213237166042e-02
7.005463421002897095e-02
-3.165051651112396613e-02
1.304617857495369432e-02
1.183050264047661240e-02
-4.067150239345423968e-02
2.727089114018517446e-02
-5.421563810566961544e-02
6.113986589382379433e-02
-5.063613009126797376e-02
-7.776413567120119344e-03
2.818857144793471270e-02
3.505846445645036114e-02
-4.761963635379007354e-03
3.035130143550025458e-02
1.363565682014534000e-02
6.114985715170895980e-02
6.242013869930083947e-03
1.946720829308705089e-02
3.676787311366885858e-02
2.433560229653328882e-03
4.572564507393710870e-02
2.447810806371249898e-02
-6.875938969854430982e-03
3.166436491017122351e-02
5.028962290381975425e-02
4.238233720716928776e-02
1.750900025079129424e-02
9.497023925092423768e-02
2.468847724879610905e-02
5.726545351592901567e-02
3.649909118369937949e-02
3.402649483857782264e-02
9.534839969102364143e-02
9.207162445990961508e-02
4.109996186902228205e-02
5.963352156287881484e-02
1.227084255145880626e-01
1.011993624128440794e-01
1.550721712866210411e-01
1.312262076171099856e-01
9.412368541766612251e-02
1.719198247891841613e-01
1.303694173279640323e-01
1.824451833472120477e-01
1.293594718700212254e-01
1.325897606412451413e-01
1.628594171672467228e-01
1.907777449313539375e-01
1.384115990008511765e-01
1.741352211634686342e-01
1.476239948213742825e-01
1.412749282887330038e-01
1.450560700187966123e-01
1.318344385898196913e-01
1.267710830189156257e-01
2.195592056192875452e-01
1.345669520834721633e-01
1.304197502184989976e-01
1.962170481960677504e-01
1.478064047116282864e-01
1.415286851156759285e-01
1.598528503986877680e-01
1.462964788666964999e-01
1.443266860336418489e-01
1.851213651138734484e-01
1.053862045506451794e-01
1.717249371951180548e-01
1.941181014162518814e-01
2.321587835660608168e-01
2.860556569425136697e-01
3.164424614884122633e-01
3.426955289123935766e-01
4.023497491544363314e-01
4.691021770914370892e-01
4.675868016071598188e-01
6.281875419540879912e-01
6.879770614055081834e-01
7.996341132274195074e-01
9.301220508658337716e-01
1.005518429377967538e+00
1.078705303208517652e+00
1.179180374024912048e+00
1.278249492892693517e+00
1.312159527443998996e+00
1.368527721250873741e+00
1.480891663901604538e+00
1.464685322509402532e+00
1.479395390299962143e+00
1.483757657930613094e+00
1.432548678051237756e+00
1.398658315169495570e+00
1.311728971369003682e+00
1.263240923473353261e+00
1.124492657646413374e+00
1.068071537918769520e+00
9.488172076857200876e-01
9.166689740585246549e-01
7.107236287681709674e-01
6.621382594394822352e-01
5.903646136659503885e-01
5.784134777472039746e-01
4.664069367751059736e-01
3.681958471447299153e-01
3.589580921670725289e-01
2.421053011897513207e-01
2.344959393443163398e-01
2.093863603743538193e-01
1.973849768455310794e-01
1.275281728587525920e-01
1.206837127843816554e-01
1.881381621855703346e-01
1.562470375175386006e-01
8.861222123582718213e-02
1.301370228861727651e-01
9.283695232651689722e-02
2.075243029596249289e-01
1.646930505347853346e-01
1.648796057767663026e-01
1.132804053435989694e-01
1.385502823261032801e-01
1.728944444390676516e-01
1.408854400847231181e-01
1.476148727056668941e-01
1.308637156551565595e-01
1.591795323177770949e-01
1.846041042797611498e-01
1.677839020232454459e-01
2.164320149167341945e-01
2.315937543468901405e-01
2.083146057476277513e-01
2.028915586673939453e-01
2.575880724724499693e-01
2.293586790421031085e-01
2.087178947488900760e-01
2.029754256891034281e-01
2.815872369121432128e-01
2.765944069227911917e-01
2.654077170868070490e-01
2.535681706055761819e-01
2.441961639379579552e-01
2.302295663733786857e-01
2.679345368225546919e-01
2.199990085905262627e-01
3.211704184301266696e-01
3.070422162137337319e-01
3.116441764943631565e-01
2.456688659137558073e-01
2.935395203981719936e-01
3.164218678984569988e-01
2.470217348882026709e-01
2.620525829836529152e-01
2.717549463004055865e-01
3.237534156041319555e-01
2.037385233264221163e-01
3.087180766933143583e-01
3.134657253060249560e-01
3.065186267966603095e-01
2.401919755831719017e-01
2.395927421387184786e-01
2.185661318768565842e-01
2.791865687522204764e-01
2.642165934596509835e-01
1.802962392865296026e-01
2.691428814738759945e-01
2.471130172183928220e-01
2.594591590674090176e-01
2.525496870708174857e-01
2.158375058495952681e-01
2.180341394657160647e-01
2.107653311829579823e-01
2.256289892081092541e-01
2.272762389103042679e-01
1.687616532261260183e-01
1.817107553955679411e-01
1.922520606574791291e-01
1.540531048094838651e-01
1.678424246310445678e-01
1.631123837671801247e-01
1.562717260903858374e-01
1.709574972668199966e-01
1.338687701037677424e-01
1.670833545682235688e-01
1.211795499885621463e-01
1.618757358374775523e-01
1.249843340901054811e-01
1.516534550864890307e-01
1.539269787327068317e-01
7.723499680137618784e-02
1.202601599588637715e-01
1.014454083796457462e-01
1.193036928419742987e-01
1.824978436600568910e-01
9.537742218980282960e-02
1.385183845193901364e-01
7.297082032963397857e-02
7.623413071562797072e-02
5.874363689719999670e-02
1.085818377136358870e-01
5.283445191241185890e-02
8.853536781992778215e-03
8.316839476722809321e-02
9.349330774724505522e-02
8.540955540027717063e-02
2.704237002591212274e-02
1.331248307279129725e-02
4.987892557194181786e-02
4.255650093051992905e-02
9.309289747041225860e-03
3.563580985675430385e-02
7.008622520769802744e-02
2.824204250002473188e-02
5.703059574579797536e-02
7.105587707491703431e-02
7.561924866878663720e-04
3.667958632743728575e-02
3.765898157454291434e-02
-3.971669820787127742e-02
7.134292306697670449e-02
6.564324253477053783e-02
3.601321346599466872e-02
3.908187483965315512e-02
1.885296061113303154e-02
3.890711396221028379e-02
3.844721194790622770e-02
3.338515170775117891e-02
5.475456644137143697e-02
8.481516689270834908e-02
8.337487903262055799e-02
3.094102131618475110e-02
4.769787373924160717e-02
4.357787063107518288e-02
3.907732863864590150e-02
1.685730120961253034e-02
5.343038967447782950e-02
5.201850820656290370e-02
3.014110111611335158e-02
1.053766467741352186e-01
6.462481893806001909e-02
8.571760784718181203e-02
2.351735335987030495e-02
4.531816288954657740e-02
-7.128195354347208190e-03
1.840124510892152815e-02
8.277262015892458691e-02
7.499805875379352005e-02
-2.095334958849941198e-03
2.949377157878869948e-02
4.012570110222053732e-02
4.264310946641870770e-02
3.500133031909768988e-02
3.544991650537754335e-02
7.060550217696456854e-02
5.628960426583062837e-02
7.074418516567149151e-03
8.824676357742401722e-02
6.115297108910881796e-02
9.657972420738511476e-02
8.174377670154975295e-02
1.169055975664458069e-01
3.909882872836913104e-02
7.833022839138639726e-02
1.084281889579450098e-01
9.572066254884059600e-02
7.868022455285667016e-02
8.865857808943578000e-02
6.680949868315269602e-02
1.512366582667287185e-01
9.949682763562764376e-02
1.329045933114823830e-01
1.396471425216022355e-01
1.620106302484171645e-01
1.933779077630809473e-01
1.234344320367006392e-01
1.906765526159909518e-01
1.870298023061166826e-01
1.126961692013752903e-01
1.448279762122204051e-01
2.056174774574204001e-01
1.656982361698818851e-01
1.719760661840772920e-01
2.247474471138070640e-01
1.929867495754743201e-01
2.345436014614460662e-01
2.204771435821258063e-01
2.269375687008736153e-01
2.113092882493682878e-01
2.229046306846996228e-01
1.949684584990946379e-01
2.363353242023362999e-01
1.742678041991026772e-01
1.876451352973782793e-01
1.729992121006255767e-01
2.166155168393044395e-01
1.765041528196255871e-01
1.762774701803583866e-01
1.470988881884296440e-01
1.910519254840390146e-01
2.133949860808563304e-01
1.259210253584604755e-01
1.960544760331912051e-01
1.602955887455393136e-01
1.800178345982369477e-01
2.083894243639437538e-01
2.325241287475196539e-01
2.282995623616483338e-01
2.406624376946899790e-01
2.502078734537627192e-01
3.157747660192220529e-01
3.648855968868052191e-01
4.015051270446865495e-01
4.317670091548867495e-01
4.640836836245988417e-01
5.625349239858383754e-01
6.616422708578313383e-01
7.144874873717566022e-01
7.921699555860672870e-01
9.343725735981219804e-01
9.792947098106524750e-01
1.167448156175791896e+00
1.173302894953839326e+00
1.271638817477493744e+00
1.346337621118043115e+00
1.352162251687081707e+00
1.476796619607926297e+00
1.496152740474172127e+00
1.481587521317065503e+00
1.503564229156186371e+00
1.495551006919679571e+00
1.429219072187478456e+00
1.414708736985685888e+00
1.330931023287786674e+00
1.289302402788127910e+00
1.173978058674681302e+00
1.058634374657856370e+00
9.062354891968640302e-01
8.639955035505733072e-01
7.678788751460503548e-01
7.518806921147245248e-01
5.697728388930736187e-01
5.549076781086209609e-01
4.646399729538600587e-01
3.666060349498904691e-01
3.478463070242971411e-01
3.029359575748404865e-01
2.672543456463126743e-01
2.632262977110671476e-01
2.265284272011633682e-01
2.214746984875123059e-01
2.462637143044034693e-01
2.072922783700658633e-01
1.136732467983634642e-01
1.372280078595287667e-01
1.829652457901531082e-01
1.824823763982259262e-01
1.631871174286370074e-01
1.512663713417443656e-01
2.057840984872905399e-01
2.148796058400587183e-01
1.823634450200670998e-01
2.212704306283180267e-01
2.993387873119989773e-01
1.764246086437713523e-01
1.945996110654138467e-01
1.559133622338161607e-01
1.538433205154714489e-01
2.309333308673387486e-01
2.774911715110149335e-01
2.394259283754535950e-01
2.788171677241479962e-01
3.436426057953091973e-01
2.518851481524583269e-01
2.241789529421244209e-01
3.018862710175836406e-01
2.861781954481033008e-01
3.185056942401171542e-01
2.695582702525746721e-01
2.847763970171730552e-01
2.225918292790814990e-01
2.622598148969158549e-01
2.989026975104315254e-01
2.872589233945327947e-01
2.820611408914281970e-01
2.647162233143131038e-01
2.747556109594800899e-01
2.630974161149024493e-01
3.129531835207511326e-01
2.874624812752406555e-01
2.989333906529156315e-01
2.795831892450219014e-01
3.035133280863175909e-01
3.372255843531642983e-01
3.022982681958113482e-01
2.607846581768152316e-01
2.741360301025562718e-01
3.348945968290428787e-01
2.787259343191159089e-01
3.028853171775512942e-01
2.718180305592602375e-01
2.117190832730718453e-01
2.525521393040087159e-01
2.440082626411912425e-01
3.454002358051354027e-01
2.468933242289655938e-01
3.138739787340827925e-01
2.933942719588864545e-01
2.568708760865827112e-01
2.392612836115063646e-01
2.514477675638477905e-01
1.864587427487628402e-01
2.470070568625093721e-01
2.479598404611135232e-01
2.873733398625417657e-01
2.341132056846897680e-01
1.824985001353722769e-01
1.911810493376815967e-01
2.089065215054553004e-01
1.663526592013940819e-01
1.513558662342134875e-01
1.310074964023489885e-01
2.000314215870378498e-01
1.593232779961398227e-01
1.433801347618370581e-01
1.403443171554715763e-01
2.086017773468946956e-01
1.515493689564970659e-01
1.472889922637481697e-01
2.144779692791228543e-01
1.258323240133304710e-01
1.603479971651670111e-01
1.423400522275700686e-01
1.103488960823904852e-01
1.142884567564222964e-01
1.191871187993186615e-01
6.580164078570790998e-02
1.090989040627295403e-01
1.357032238886421993e-01
7.826824790162463519e-02
9.817309113122817121e-02
1.081464812640397788e-01
8.813013293529563252e-02
4.822257237705783461e-02
4.553339725919888087e-02
1.175687916978489511e-01
9.857567386463542136e-02
9.099732905411087036e-02
9.363150902802781783e-02
5.050862752966650548e-02
1.129123911202613434e-01
1.050591405284113933e-02
7.918301900655336234e-02
3.612676142166420384e-02
7.644294124497628962e-02
1.726953946522626765e-02
9.718700080070054315e-02
4.016578028808855116e-02
4.673834003495967726e-02
7.369846664577356377e-02
1.204267923234146054e-01
2.964986827451667958e-02
1.600876448667081300e-02
3.650439852047340089e-02
9.919651741525878363e-02
3.257857030886841115e-02
1.988636533944432988e-02
-2.512685618627058526e-02
3.532095690039817326e-02
3.319109437304551546e-02
6.284592475672585998e-02
4.777442009110224180e-02
2.430621787214245696e-02
8.734135725480651757e-03
4.993024947435639738e-02
3.404513779605407992e-02
5.820455222689596697e-02
3.222122571221556347e-02
4.793072451652370669e-02
4.851354928104882613e-02
2.347909128018144109e-02
4.425363148589326473e-02
7.428948765521714570e-02
5.031668162181754389e-02
5.252910062516368689e-02
8.901806668200325234e-02
-3.689681918072132416e-04
8.306702643153865417e-02
1.054741747065632285e-01
7.223053572090129548e-02
1.876083441766711671e-02
1.098217026281931019e-01
4.244586312243812248e-02
7.839921863786245004e-02
3.584413223904262674e-02
6.841229761143070853e-02
9.040059500420599692e-02
4.918966980833994196e-02
5.910190516472345335e-02
6.821148428863607616e-02
8.095843295892925229e-02
4.956622028673075137e-02
6.575205463625372060e-02
1.698614049016270583e-02
8.391754021517762452e-02
1.041226642083111636e-01
6.701045613352193953e-02
1.135499346890323918e-01
1.663359886593260561e-01
8.387736395316125471e-02
6.107347461703700048e-02
1.066944279941364204e-01
1.376790238315803716e-01
1.130347065924143801e-01
1.402403352373886858e-01
9.871707501814777630e-02
1.605215356796009796e-01
1.289372020900958482e-01
1.549913901971770869e-01
1.398006971327657721e-01
1.316433528825940447e-01
1.891477555418777101e-01
1.794645782076355889e-01
1.197957383700585798e-01
1.332046937129051367e-01
1.537321776948197827e-01
2.329869219196430696e-01
2.087804381937310994e-01
1.942933291240819815e-01
1.954832538548433862e-01
1.744082765145586744e-01
2.168555256004527643e-01
2.013141408996399484e-01
1.612644463095018743e-01
1.805060116362799116e-01
1.370999093269951175e-01
1.626713187835041041e-01
1.216294184897856595e-01
1.445638165819517484e-01
1.130472409647960141e-01
1.652054281320313733e-01
1.827697903397751400e-01
1.336725589203580922e-01
1.633469774818981923e-01
1.818143110695765730e-01
2.266614226675385813e-01
1.711104380364388278e-01
2.735956938729923738e-01
3.147157436318008816e-01
2.903974848981676349e-01
3.660291231720427252e-01
3.743494406976757838e-01
4.526169568207736305e-01
5.249385695407522423e-01
6.435663724842044520e-01
6.915530932995562763e-01
7.325156712694572692e-01
8.977110900360293355e-01
9.565343339254839261e-01
1.027686370419468975e+00
1.126201182548460578e+00
1.225492114239619790e+00
1.281495625658576554e+00
1.371864230374355342e+00
1.408376644714454340e+00
1.482004288295512451e+00
1.464674370644575951e+00
1.509519323743489627e+00
1.545438785256973757e+00
1.492943855513777507e+00
1.393772372109557844e+00
1.342687383683466518e+00
1.190360469344279970e+00
1.185907492990099232e+00
1.090422063541003794e+00
1.008197616804965113e+00
9.106392590399804421e-01
7.612014648141722795e-01
7.202655187823374661e-01
6.117877927052041143e-01
4.973489923966195603e-01
4.653747713712309553e-01
4.133538184751459066e-01
3.656739153192818947e-01
3.034050861059111592e-01
2.617812954638253364e-01
2.541495525986405823e-01
1.344989300728875736e-01
1.514708665322677117e-01
9.116812160932782905e-02
1.413572491849883483e-01
1.213699684382150423e-01
9.669563529444322181e-02
1.227909204756261197e-01
1.858070372368283985e-01
1.666127218671077936e-01
1.721020416365031669e-01
1.681850710485756906e-01
1.175508407454533139e-01
1.020326506462735372e-01
1.162204320861327383e-01
1.583954319698187008e-01
1.715209780176859267e-01
1.694158621731929604e-01
1.805148765657017540e-01
2.030302397695988859e-01
2.103672154719239962e-01
2.010578679223137266e-01
1.900168692771173617e-01
2.295886492302552095e-01
2.008311912174969294e-01
1.879126419538143522e-01
1.931750096422283069e-01
2.424138879558072612e-01
2.550613645742787483e-01
2.465358252005722395e-01
1.817257001986842813e-01
2.761065714577443653e-01
2.084888979336342874e-01
2.048136897218597596e-01
2.988921119323523778e-01
2.585880307065644423e-01
2.797586482616452042e-01
3.000892586923354921e-01
2.330021299940067681e-01
2.910891958968450099e-01
3.012365912974221405e-01
2.971186957286593433e-01
2.625385756611386956e-01
2.687087481956164647e-01
2.702354163195083148e-01
3.245986710346490112e-01
2.644219265517118722e-01
2.728176889913677683e-01
2.114823508406574459e-01
2.711640464629221370e-01
2.795296981457557339e-01
2.097154994574322584e-01
2.945666779179598183e-01
3.068596372392363714e-01
2.697330419311842475e-01
2.513584772186594485e-01
2.447178146810504995e-01
2.138752796864487049e-01
2.345952046524644452e-01
2.565518631279718464e-01
2.213661668971599328e-01
1.951008037174290222e-01
2.212812690274161831e-01
2.182791348187615443e-01
1.491833500958028302e-01
2.180516661279247037e-01
1.576292875526489889e-01
1.516105389641723977e-01
1.970669173488259207e-01
1.512002106963890036e-01
1.119117918945884832e-01
1.084778332870629663e-01
1.476257354844273950e-01
8.818840285728982153e-02
1.444018628637631363e-01
1.489419378355241741e-01
1.248719437191136150e-01
1.038956682965864742e-01
1.011336410136556979e-01
8.479004895146134702e-02
1.379211486417402377e-01
1.135478373713634248e-01
1.020353292640715365e-01
6.785433942334569146e-02
9.929104492080143007e-02
7.291619443557513514e-02
1.074130023652527383e-01
8.617912772041896874e-02
5.623034852235631736e-02
3.477104894384298872e-02
7.610665498472507506e-02
4.240850398920562730e-02
7.798997890268077882e-02
2.477267546179436064e-02
4.102192963474106391e-02
5.203127419119775443e-02
4.959430292639663979e-02
4.440230008684636215e-02
-3.669287848882159253e-04
-1.614333164217742964e-02
4.661414587126161413e-02
3.674354015216430014e-02
3.742907021398308998e-02
5.214725485012820794e-02
3.222214348074274592e-02
5.673096790609381650e-03
1.142571655951986689e-02
-2.723565655865554241e-02
1.117617291362993891e-02
4.501348093003312151e-02
-1.238251532189544972e-02
2.985670991507362315e-02
-2.582828235713085716e-02
3.882518292656665648e-02
-2.116772336206808325e-03
-2.368052507871925075e-02
-7.513633851944081718e-03
-5.942192834343287128e-02
1.632909611392228608e-03
2.953302812073047359e-02
1.695683605185085291e-02
-5.197531205157755393e-03
-9.874483210095721941e-03
-2.449459816752953649e-03
-3.274105677852041235e-02
1.800364968967680876e-02
-1.470847684010403479e-02
-3.525456180993556676e-02
3.348453196250280456e-02
-1.040607991647836926e-02
1.093942769760985687e-02
-2.570610324575938604e-02
1.705691066032215264e-02
-3.566657992999620191e-02
-1.652722940750206079e-02
1.438570747127477720e-02
-3.484779731885659371e-02
-4.291719393143710731e-02
-3.458052894822934847e-02
1.462775368325396758e-02
3.753269734905920890e-03
-5.205582675182183865e-03
-1.067419191595541522e-03
1.650935031003812614e-02
-1.321643365339375195e-02
5.052228632224668725e-02
-3.282981472837309678e-02
4.718377624993060071e-02
-8.066791437259534375e-03
4.084186896293407615e-02
-1.061030766109579727e-02
9.001777770233762924e-03
6.677702632754686091e-03
3.705220930907040383e-02
5.098238977548270878e-02
4.201771312183832929e-02
9.113482074297973856e-02
5.588910090938915831e-02
2.236574295780976301e-02
8.383256469979999403e-02
7.382345196303277679e-02
1.088606398199959240e-02
7.186674177287800946e-02
6.110518797720593948e-02
7.351182487780594244e-02
7.686002290452340069e-02
7.045297885809605198e-02
8.946627143373447194e-03
8.813160973301252532e-02
8.508622797068178534e-02
8.885600876587176900e-02
1.405137817438456838e-01
1.066790284271167955e-01
4.489957679703417137e-02
5.614348876803035293e-02
7.861620300116832494e-02
1.860346009705951542e-01
9.172462857369144407e-02
1.523419052363277626e-01
1.060556689303784189e-01
1.588949281037331240e-01
1.909227263299611566e-01
1.260540172225387001e-01
1.642493683323147935e-01
1.917598852746957849e-01
1.146211104761970523e-01
1.133869987955488795e-01
1.318659823761196837e-01
9.368479603505858178e-02
1.337176851815362610e-01
1.364650217561414747e-01
7.130654155492711921e-02
1.037548222703470191e-01
8.170929610913738039e-02
4.067112778333242806e-02
1.171643744942024584e-01
9.923664644822044467e-02
1.517228992042392033e-01
2.085344847774062149e-01
1.673225052191463502e-01
2.365315956606590664e-01
2.295178779981902339e-01
2.701763238664040556e-01
3.364513407326754080e-01
3.555800450579178484e-01
4.011534081950617336e-01
4.523164701667353182e-01
5.428891039843499744e-01
6.372518923977439353e-01
7.402507890556692116e-01
8.195799710894118295e-01
9.267493795435127746e-01
1.018259969230280060e+00
1.127169367685152190e+00
1.212762301052676905e+00
1.334421970086223874e+00
1.336810240546218775e+00
1.421079297732691149e+00
1.402822745629743961e+00
1.484220932821734396e+00
1.451870636821200211e+00
1.399629177217605269e+00
1.339759693402629681e+00
1.290283662121791686e+00
1.279715307525309154e+00
1.133172543416269162e+00
1.067160604757534381e+00
1.003249681297210483e+00
8.644039336747704194e-01
7.821370356665277024e-01
7.142666250533050709e-01
6.331611973503105117e-01
5.363330144221625240e-01
4.587971177088701613e-01
3.717570927591957730e-01
2.879584936001550188e-01
2.690441038585810740e-01
1.675742399299501584e-01
1.172525582781908660e-01
1.635931828715559422e-01
1.306011272771332443e-01
1.408926039633753013e-01
1.258756041775920820e-01
2.776769281380225829e-02
1.132097273105873991e-01
1.200944713932850239e-01
8.364309591316944348e-02
8.416334331191673013e-02
6.159292628139838993e-02
1.352759457790833064e-01
8.988486720615460057e-02
7.283411799855983582e-02
6.832240057570640457e-02
9.215224593583104529e-02
1.561774624927659283e-01
1.115457327543767085e-01
1.204453091469881998e-01
9.762572665683144635e-02
1.662687389817681383e-01
1.003188469066526312e-01
1.180633098482199994e-01
1.134886635659591581e-01
1.017155547439923535e-01
1.831197785954198076e-01
1.704558877837830111e-01
2.057923723028666219e-01
1.587578624491888524e-01
2.175829966208107646e-01
1.441683560070493586e-01
1.713935956925078663e-01
2.308988988127742836e-01
2.196697543055084190e-01
2.444981025290869914e-01
1.851315425726300090e-01
2.294217654547867080e-01
1.648282236094137931e-01
2.423382145403515930e-01
2.148102891444493012e-01
2.077613418646038768e-01
2.286250195642384186e-01
2.142784914162291221e-01
2.266030098101614598e-01
1.964933798407088317e-01
3.200811265680307272e-01
1.774392760632447497e-01
2.150140631561932858e-01
1.775681182265250180e-01
2.250121812890202300e-01
1.729819267140426664e-01
2.040668252379760350e-01
2.250156217382386914e-01
1.941955819506909486e-01
1.860101503845376925e-01
1.881237244721454538e-01
1.911513258947288574e-01
1.923674709560347640e-01
1.441766378393503634e-01
2.152207217519932492e-01
1.541389993031467565e-01
2.181721124589554583e-01
1.894910323199201496e-01
1.428599178187496821e-01
1.097778971993291497e-01
1.530898282286497769e-01
1.495847395199529639e-01
4.410089357477781080e-02
9.649730300800202221e-02
8.795588799815151626e-02
8.506331232093433670e-03
9.648205500475573460e-02
9.186970149462193869e-02
5.518549096447841751e-02
9.175262528744423940e-02
1.456012918067829676e-02
9.306867383343112032e-02
8.999880221862135987e-02
-3.036647526996977264e-03
6.057351438400578741e-02
2.181006297735034460e-02
5.526177427173482176e-02
4.357670038832352211e-02
7.070998715049114924e-02
5.293498129854481982e-03
-2.951488249865115432e-02
1.182544366231576966e-02
6.355388931992919654e-02
3.771446532803877233e-02
-2.204324622661483352e-02
-3.373290729042979774e-02
3.329996783639205260e-02
2.303863622881850010e-02
1.528402422083565554e-02
-1.634338865401437427e-02
-2.531083100172204156e-02
-2.328147800160209474e-02
-4.376371656554059464e-02
-3.928212008537379507e-03
1.754400095125251136e-02
-2.047521116575670361e-02
-1.126361061054318574e-02
-1.045268543142450351e-02
-4.748357335111808020e-03
-4.044223920467994449e-02
-2.431241426968999003e-02
1.988793854292284641e-02
-8.109201198572796310e-02
-3.569854798088906156e-02
-9.982553685539595489e-03
-7.540182538197467976e-02
-5.728242046315786679e-02
1.457441425129148149e-02
-2.750495879643436586e-02
-4.311096295123191535e-02
-2.874293266583244008e-02
-7.033399259523005764e-02
-1.210497919032935826e-02
-2.533206023825325393e-02
-4.915840153799991979e-02
-5.446819406332287228e-02
-1.937758801682650314e-02
-3.654164312337225551e-02
3.772927325024939826e-03
-5.696606614706295479e-02
-2.022464755560524768e-02
-6.771127255959966118e-02
-6.515800826666684475e-02
-5.291737489722062732e-02
1.719961381868775896e-02
-8.438905976476124282e-02
-7.816769865390107985e-02
-3.899893973434587213e-02
1.613057205412302131e-02
-3.668689595587418945e-02
-5.849636430116182673e-02
-5.514450636070365730e-02
-2.392436865050132436e-02
-7.636294954455029316e-02
2.295211460275408538e-02
-9.943369575902619162e-02
-6.231290555914523188e-02
-4.108189738722858864e-03
-3.148531737347753240e-02
-3.728749638852007359e-02
-3.295425711156976800e-02
-2.805879570863464845e-03
-2.467107814788781217e-02
-2.567482914617937734e-02
-6.162326031058289189e-02
-4.985072460324883187e-02
5.937374315895645183e-03
1.066797031160204162e-02
-2.544332846058654576e-02
-1.029188857473770785e-02
2.165275477262169207e-02
-3.313045821698701321e-02
4.659502563241101764e-02
7.370920462132862783e-02
-1.775019656365756093e-03
7.623442429000416853e-02
4.532711401849368049e-02
2.579778280406198193e-02
7.125208457617701607e-02
-3.247728449125912575e-02
2.998766949624684375e-03
1.577983373699497205e-02
5.270691003864991231e-02
7.352724275373841156e-02
5.551953082651819166e-02
5.253861641778494879e-02
7.809070279851970664e-02
7.265040988845899994e-02
6.569914356407710598e-02
8.228314812192619176e-02
1.189725819522212541e-01
1.330465383671880497e-01
1.189952874547044320e-01
4.877233274556901782e-02
1.487506315562265313e-01
4.226232389996667504e-02
9.458409586998384189e-02
8.065281500941515191e-02
1.437860388283956348e-01
1.017335871830540306e-01
1.016136816080358829e-01
8.865072997527342902e-02
6.884103595143982457e-02
4.503316728105227762e-02
9.273244025784849187e-02
8.918414559592519053e-02
8.187838993233055584e-02
8.402399201277316321e-02
1.030288267499292199e-01
6.936346911502597190e-02
7.866585895177313770e-02
1.552848996953649086e-01
1.319834942484022222e-01
1.166389696541607623e-01
1.015181080988369622e-01
1.672276082784403817e-01
1.511335287200607502e-01
1.721443765680943094e-01
2.913652547729312370e-01
3.615096833210684757e-01
3.192882082294856150e-01
4.195485470116374072e-01
5.098028688843112555e-01
5.719937646894498462e-01
6.847188261676036003e-01
7.852975182815863375e-01
8.744158459666847572e-01
9.313400751306580849e-01
1.044374749511670197e+00
1.128105347191284302e+00
1.199106331176919671e+00
1.263477084944556683e+00
1.341737547590801327e+00
1.328050748210696685e+00
1.375953407662229511e+00
1.484833727276088755e+00
1.391134654633136902e+00
1.314531500921949148e+00
1.388048476965117350e+00
1.260974495295318576e+00
1.140324086892646527e+00
1.112828179501138326e+00
1.014007248608268741e+00
8.932135484699802452e-01
7.798172012161280753e-01
6.847157425852502532e-01
6.401656954549632683e-01
5.360244760787405971e-01
4.693493463693638179e-01
4.249855993139755039e-01
3.051072138126346700e-01
3.161799575454511402e-01
2.100457420668871700e-01
1.978158136798792988e-01
1.372427150457890266e-01
1.437390173143388017e-01
1.685562924581813227e-01
1.447691939358963786e-01
1.103496640553770503e-01
9.042849636414879155e-02
3.343253755605346544e-02
4.582887356831424203e-02
3.000193767891676244e-02
2.887875505744307708e-02
7.456351065750851936e-02
5.743378018805662955e-02
1.113606614442605031e-01
8.798852787601349479e-02
8.888946909865766410e-02
1.220647258438636862e-01
8.650177913418463649e-02
7.723663751311055092e-02
1.349778973207088062e-01
1.724801257851372172e-01
7.557964502714066557e-02
1.107157914464323711e-01
1.576266134832223498e-01
1.500664960050641372e-01
1.009982053334838731e-01
1.325563944445280196e-01
1.789497615669471964e-01
1.807829097635146876e-01
1.568788377586834426e-01
1.843310160066341241e-01
9.089800904096481671e-02
1.801212100613752143e-01
1.931282186568955839e-01
1.484926400404585067e-01
2.138337266534547920e-01
1.904192107096099873e-01
1.795804947146740493e-01
1.945410960622545316e-01
1.138886912828394049e-01
2.244693983661948944e-01
2.408303261150200603e-01
2.353231979454945277e-01
1.854290509763041328e-01
2.150635591382135670e-01
2.466159044909358444e-01
1.847644542550522240e-01
2.151225933944978796e-01
1.987613413742890800e-01
1.968231047373381060e-01
2.628008272976498638e-01
1.926921726378665878e-01
2.035133806456936312e-01
2.104656538382902731e-01
2.887959492998668498e-01
1.640585617052572331e-01
1.576543250788062511e-01
1.749607006957566158e-01
1.562623359493362507e-01
1.945478408165811079e-01
1.774947442090036021e-01
1.270328046002292544e-01
1.537648422269545789e-01
1.632928305670150182e-01
2.053945221137682409e-01
1.449255395928095436e-01
1.251420213572842222e-01
1.418505225626240374e-01
1.149720184157192043e-01
1.438804079346970022e-01
1.246028518125005813e-01
7.340720962348598611e-02
1.607201956360853334e-01
1.083265875217447882e-01
7.275866387000337610e-02
6.982332913938876784e-02
1.168002761081720353e-01
3.907040114996628705e-02
7.553478812584907276e-02
6.270192859775856886e-02
9.064136119663487867e-02
6.062627305337119077e-02
5.285956342744757563e-02
3.876370967006866758e-02
3.728426962395244015e-02
6.167630276792609306e-02
1.698574200169864629e-02
3.932959696464855687e-02
6.151772542403211724e-02
-1.183427759332314477e-02
3.457537268816773812e-02
2.815009521650676388e-02
3.161782755649949345e-02
-4.208579026829244174e-03
6.834142530043961494e-02
-5.071477083213662973e-03
5.870907808580968362e-02
1.564134137316268436e-02
5.034658802699643054e-02
5.891381546514776885e-02
2.244197945754443368e-03
3.059129854825817785e-02
4.319274689211839019e-02
3.338148499417617487e-02
-4.990577557393058306e-02
-3.054991540609377706e-02
-1.875197832129616576e-02
9.756773998771124667e-03
-4.230239592503316076e-02
-4.778772357466707504e-02
-1.254438468168506127e-02
-3.155639740649722469e-02
-5.652603833911587494e-02
-2.529452391731114996e-02
-2.171260611926554077e-02
4.636956832839170262e-03
-3.793506463579713467e-02
-6.008829398152097656e-02
8.639954874799536666e-03
-2.584278449361198174e-02
-1.348500541052640930e-02
-6.519956756414677090e-02
-2.936002824292741412e-02
-3.112488598696931327e-02
-4.186342983214601243e-02
-3.617351802498815910e-02
-7.812182356906760550e-02
-1.642602125257115048e-02
-5.838246275241421035e-02
-7.546645158406262155e-02
-1.517427033691315374e-02
-3.702958380306207303e-02
-9.442127131838347343e-03
3.039255871186775232e-02
-1.401284657741626131e-02
-6.515100977859281106e-02
-1.917033096554768279e-02
-9.550956972479450469e-02
-9.658139290217599565e-03
3.886071963000538310e-02
-2.218293013768479066e-02
2.445484645208865007e-02
-9.651725698338806808e-03
-4.529431214250322080e-02
-8.121844666404816337e-03
-9.110634046806728031e-03
6.456519780821207144e-02
-4.353209768442452277e-03
4.692060181699948818e-02
4.727668862585378967e-03
-7.860677678635102916e-04
-4.796078112218205014e-02
5.259085859895847037e-02
-2.567745410126275052e-02
1.301658023578603982e-02
1.404436014311301675e-02
3.643558341988480109e-02
3.470062696435607941e-02
5.936748217749293621e-02
2.748642896887633358e-02
6.450374859001044292e-02
5.597389103797295595e-02
3.685530480560729460e-02
7.850707301444900810e-02
1.172368374063524482e-01
1.061784268789872643e-01
9.519780094263431691e-02
7.636393636554965336e-02
-5.561633993744312388e-03
7.058587962068331445e-02
8.620767580756197312e-02
8.585492343184203401e-02
7.969355088003024501e-02
1.338047400421644162e-01
8.119032282618608709e-02
1.080330959331210205e-01
1.553875503721978968e-01
2.055972213024412631e-01
1.377390376593166654e-01
6.555288255652506890e-02
1.470913767663105387e-01
1.728736299670071974e-01
1.395918060806925487e-01
1.809243797871850357e-01
1.444020034049702528e-01
1.511190716523808097e-01
1.571788945404827831e-01
1.208273224028104387e-01
1.306118403749028101e-01
1.333904968917447587e-01
1.149554344128877470e-01
9.879376439872414317e-02
1.589262104355732008e-01
1.307546284522658753e-01
1.370212899555243724e-01
1.173044871215032647e-01
1.689509022005700467e-01
1.542861877953845551e-01
1.818856833625242531e-01
1.720273660432250218e-01
1.571749791040084332e-01
2.102148606932472130e-01
2.150981768352835388e-01
2.982583270331248815e-01
3.053148662512981670e-01
3.796533336758106669e-01
4.222853355547783183e-01
4.896209615456159625e-01
5.816611370602388087e-01
6.932476401676689326e-01
7.108730234187897734e-01
8.306833375834626887e-01
9.400961114170912625e-01
1.025158442849436469e+00
1.119904748285344143e+00
1.244328625571181179e+00
1.318719310698285963e+00
1.364382169614161588e+00
1.396088753698000673e+00
1.401718379660559899e+00
1.498039498825451510e+00
1.457510566899064663e+00
1.386972415371764855e+00
1.398006913622019676e+00
1.336013727247958638e+00
1.244199048709516031e+00
1.174690252294552151e+00
1.099488677178746876e+00
9.792264323638567580e-01
8.708170652983351356e-01
8.146592286585531140e-01
7.169059568799275306e-01
5.752657235565802329e-01
4.955165421452068508e-01
3.935309779653746731e-01
3.442083222457104630e-01
3.239595333693885970e-01
2.533897490896188653e-01
2.484209967780174610e-01
1.799938672299934983e-01
1.301651422825895188e-01
1.150949295034257025e-01
1.519430552520683042e-01
1.499420634527858787e-01
4.544212603642095588e-02
1.023243872195739035e-01
1.405604133251905363e-01
1.031860541895458783e-01
1.023114773758459217e-01
1.891574292631843235e-01
1.068511577917812538e-01
1.850347361245571476e-01
1.089026059559366766e-01
1.475675325165213547e-01
1.260699252710179297e-01
2.083188303994253920e-01
1.286891314760086058e-01
1.553258515148337460e-01
1.416939439518474231e-01
2.072020732339844851e-01
1.831400175464949209e-01
1.551320824035214985e-01
1.826908944839121807e-01
1.785716302894142238e-01
2.177044584212434464e-01
1.715855615283218560e-01
1.290406395848743837e-01
2.329867072745312184e-01
2.576582294670568540e-01
2.300100456527695292e-01
2.260274119594427589e-01
1.899904755834878889e-01
2.237155371447034080e-01
2.282885079640966375e-01
2.511628629606502683e-01
2.192612832790276634e-01
2.847117577730297056e-01
2.574129055951537293e-01
2.797785189451555410e-01
2.633481194040380724e-01
2.192089099902075622e-01
2.572329863164049546e-01
2.592883809542340656e-01
2.803140202246446888e-01
2.289454424989169068e-01
3.142372138661075898e-01
2.497328593247896689e-01
2.365205493767926215e-01
2.257208171772594196e-01
2.461598494882932808e-01
2.290625655922583215e-01
2.439708744742584701e-01
2.733707694687844691e-01
2.268282407868745798e-01
2.405632720047117257e-01
2.353977668925707478e-01
2.073823039343533070e-01
1.481525241034069296e-01
2.042248534695360884e-01
2.020210356994168455e-01
1.636218993376441777e-01
1.333077872846659961e-01
2.153682966785353259e-01
1.837086780318879509e-01
1.642363809296502053e-01
1.462837089765356702e-01
1.733073439634167656e-01
1.965772359668021829e-01
1.662494668490856475e-01
1.447640272888550683e-01
1.637758401578837120e-01
1.805464338931781210e-01
1.180131167224540839e-01
1.698090971786321290e-01
9.865139448418762391e-02
1.392523783856171871e-01
9.659644179902965311e-02
9.695646459151667507e-02
1.026151309215404400e-01
1.262436142003957873e-01
1.171966745981293107e-01
1.330445652324045436e-01
7.105845708791233561e-02
8.503336636574401752e-02
8.298725658730804478e-02
1.015455792041381200e-01
4.256451899262557459e-02
7.156822915975172283e-02
3.340508275680421219e-02
8.520524794983373729e-02
3.104254862214876967e-02
1.270343020713002313e-02
3.687718659938153676e-02
8.708796369907989554e-02
4.255648778832331336e-02
1.089310620682032021e-01
5.454258513581148465e-02
7.490152619164894277e-02
9.106590367561526178e-02
3.971463097417789190e-02
5.580405309469664565e-02
5.369101350702811665e-03
3.382832607998829955e-02
2.234309702182341040e-02
6.544828128336002693e-02
6.727932819358371785e-02
7.228937761344179924e-02
-8.075853297887836818e-03
3.517399802065716841e-02
2.974756037252819854e-02
1.123176879713673817e-02
3.235872075555764477e-02
1.891772947221822057e-02
1.885590331575532491e-02
4.374114195392353466e-02
1.212757948367011729e-02
7.138572146246049271e-03
-2.858204784728817296e-02
3.160681143636524110e-02
4.724979718592811628e-02
8.392115844013590259e-03
2.067792935552991568e-03
2.953827482938414448e-02
4.168360305117232989e-03
2.604684285975059077e-02
7.627546718376235907e-03
4.763715710572707929e-02
7.312387354451086591e-03
9.553709898754425556e-02
2.364303414564349753e-02
-1.473784447890963065e-02
1.279890109768503856e-02
6.502505570185006245e-02
6.952886314340703255e-02
3.491038234640564397e-02
-1.058641168245966907e-02
-7.670344421892537345e-04
7.332426103055728062e-02
2.713909539361978110e-02
5.431857925489837202e-02
5.018601705611858838e-02
1.123690790901383033e-02
2.814266732743848226e-02
3.533786717580261749e-02
2.980511373954099902e-02
4.334706386454710569e-02
5.621861787687419676e-02
5.613015560068133902e-02
3.147481593672341038e-02
4.416063604884819249e-02
1.015691302983778577e-01
6.080021548385729918e-02
6.739846915091915469e-02
5.006104094625610235e-02
6.839013947328502485e-02
6.392244552484106779e-02
4.955855361040498175e-02
1.222072363198028200e-01
1.014108435470272573e-01
1.714552808697411002e-01
1.639346208009066219e-01
1.042226412328757235e-01
1.087563678895064612e-01
9.059684379646870678e-02
7.653244988532238724e-02
1.352900117313612649e-01
1.314957875792027164e-01
1.517979708290499441e-01
1.097059066274029132e-01
2.355848466344128700e-01
1.939674824717932955e-01
1.275483226006154935e-01
1.275053697712793532e-01
1.561420229125896064e-01
1.680605875680883377e-01
2.274164209029889139e-01
1.842130144144945025e-01
1.747856377690746588e-01
1.401346672975349872e-01
1.666863038085010795e-01
2.092905745032404285e-01
1.702825761812440108e-01
1.480809782766816518e-01
1.818308324035098900e-01
2.022130202916815334e-01
1.956699980179363030e-01
2.196906891579865073e-01
1.811574800472198488e-01
2.172011061418039624e-01
1.551992048036829330e-01
1.679412941614461807e-01
1.850699998768614574e-01
1.389033547257781387e-01
1.781145487296855734e-01
1.559600330749671693e-01
1.977410398261101321e-01
2.067101882127612145e-01
1.446380998037358478e-01
2.691067561960500676e-01
2.240049475799849310e-01
2.684813539161009510e-01
2.662600610361617881e-01
3.308057309390722844e-01
4.207494010195913514e-01
4.220221944325699415e-01
5.341199477784677185e-01
5.972486136974490822e-01
7.005014371487590097e-01
7.095036677144522796e-01
9.058388941259097882e-01
9.903356296477051623e-01
1.057491622106557783e+00
1.189263487516406093e+00
1.263576500853919038e+00
1.346092243471125771e+00
1.415089622945018721e+00
1.408943276068348016e+00
1.470820613457664905e+00
1.501228364936613824e+00
1.482945007792034087e+00
1.503058766907418242e+00
1.459396582674934439e+00
1.414801236003604634e+00
1.303276313403255005e+00
1.224322741492300581e+00
1.187858156444461466e+00
1.079481252252761259e+00
9.658332461779673972e-01
8.839339826490705265e-01
7.972452429381482464e-01
7.133705418638028872e-01
6.294776115995969201e-01
5.259785929891772627e-01
4.548159472091599098e-01
3.710188841431553142e-01
3.285680424059407301e-01
2.917867001966457097e-01
2.309200957593404435e-01
1.776841639753192481e-01
1.678925869802996296e-01
2.131739842284194886e-01
1.841519895198734380e-01
1.798069435221590351e-01
1.496562240800538290e-01
1.328970783966550162e-01
2.038307119329893780e-01
1.840893308226864977e-01
1.935221484244734891e-01
1.053735602630812840e-01
2.121644540467277351e-01
1.764001194469307088e-01
1.641715879304219416e-01
1.964128596098659307e-01
2.165432403683197338e-01
2.125956619388233715e-01
2.183622607878750732e-01
1.957697923576974530e-01
1.772622723060663930e-01
2.069482114076502954e-01
2.706746115145898801e-01
2.043300908555388817e-01
2.478856021397661258e-01
1.865923465011227467e-01
2.338453349855129926e-01
2.777767547951675020e-01
2.192193614939082769e-01
2.306319773803276463e-01
2.765677558023522664e-01
2.626123414700962666e-01
2.785752190849242194e-01
2.998978330700560746e-01
2.370916479761948359e-01
2.475806431335966507e-01
3.211370346777046025e-01
2.638734489011612672e-01
3.164150664778641597e-01
2.892540091674088987e-01
3.562456813947052492e-01
2.900336028820743040e-01
3.341604692045686553e-01
2.819726874524179361e-01
2.945871077592412957e-01
3.041351730795133212e-01
3.276722890386430942e-01
3.037595346664494489e-01
3.584916178163765621e-01
3.382061131040381419e-01
3.215376079210256477e-01
3.233314174640404826e-01
2.899729264761077285e-01
2.767800389671314365e-01
3.001619391615710786e-01
3.199352505249966061e-01
2.705143721077948316e-01
2.818019949567556193e-01
2.580025395670835220e-01
2.526162152785479953e-01
2.554694585016943353e-01
2.840232654860567196e-01
2.138588285862896010e-01
2.747340481726418537e-01
2.495682892875503156e-01
2.377184272948694443e-01
2.608427111219444594e-01
2.466676877112710109e-01
2.441574189057084121e-01
2.313132220237187620e-01
2.017506497280360800e-01
2.309562444578063256e-01
1.920665404660008291e-01
1.764984950342693426e-01
1.712204218564485902e-01
1.120668452314744212e-01
1.734826652174752404e-01
1.585052327508114645e-01
1.488839464758339726e-01
1.761303036652361875e-01
1.744484321225030776e-01
8.211597794844791021e-02
8.160481086578286192e-02
1.387258879329311412e-01
7.646580285513708553e-02
1.250607924080615607e-01
1.229611814179854545e-01
1.137340203983464859e-01
9.040119667129184466e-02
1.535158908732424110e-01
2.605719452715497125e-02
1.442617514135768053e-01
1.013237621539251759e-01
3.560895225650236723e-02
4.668349687333647052e-02
8.952642940823596351e-02
1.289181317349095413e-01
9.031865703970330672e-02
7.916697356527944984e-02
8.577516176018457061e-02
3.801424845235358563e-02
5.947769767810785063e-02
5.910467796912720340e-02
7.369586762849221484e-02
9.158242537952047957e-02
4.998769735830525807e-02
6.343893519339305342e-02
7.149908739556601334e-02
1.158802079206553565e-02
9.644828461657074803e-02
8.199987923742635409e-02
4.188587462016414575e-02
8.407582893766360477e-02
6.459243888083024410e-02
5.563920197757019070e-02
6.293291183428305346e-02
1.059342010146005486e-01
5.908798349429318642e-02
1.098418395088867350e-01
5.574841140144123214e-02
2.629899507408132997e-02
3.874535841195335395e-02
7.143105448825980142e-02
7.662072267924850688e-02
8.342439111309295219e-02
2.027430192520781813e-02
7.994385481317736741e-02
1.339686385318660800e-01
2.386786071613771626e-02
8.764625850207716229e-02
3.742835166806138258e-02
3.407394814433240687e-02
9.787410273535718241e-02
9.810511801714121016e-02
8.516731913137901011e-02
7.913625009163599566e-02
2.776354424943995244e-02
7.667865245534459528e-02
2.674777931126485694e-02
3.920791357022436474e-02
6.040927322769006763e-02
6.112760317517644537e-02
4.225212125490082626e-02
4.083884100900643521e-02
4.682997317657143499e-02
5.233320445343393745e-02
5.450378964448257535e-02
1.375884803858236638e-01
2.283709298255574838e-02
4.197951873130253281e-02
5.048844496187469139e-02
8.886291525112952061e-02
1.436731265481312469e-01
8.380401439842155575e-02
8.863996034290909376e-02
8.426435450265698512e-02
1.055260532790464473e-01
6.878591230516585553e-02
8.865194524083969130e-02
9.441461687889160515e-02
1.354426362832038266e-01
1.004818574223493854e-01
1.275607900754258672e-01
1.254333862523802912e-01
1.108562123956192969e-01
1.599587119324744622e-01
1.083501496999562524e-01
1.821077768944905362e-01
1.829853058505326591e-01
2.100934476026223297e-01
1.482036899705430621e-01
1.824121908831209671e-01
1.461594544747938096e-01
1.857415396131628094e-01
1.756534523085721278e-01
1.692149394738851065e-01
1.625526609736084038e-01
2.308174897457648533e-01
1.864288979559079185e-01
2.178246296006844662e-01
2.119579232782107248e-01
1.519113376322989151e-01
1.811601129137823674e-01
1.822798325789046214e-01
2.283105514080219500e-01
1.849997294497965905e-01
2.431851223291039976e-01
2.071113257927272022e-01
1.849327288926042867e-01
1.628372936960752748e-01
2.337801762101979763e-01
1.877411589148245130e-01
1.757100002110318915e-01
2.386133301433769893e-01
2.254897137547143826e-01
1.771317351669897122e-01
1.565038247008651850e-01
1.700251243433790194e-01
2.043510153912832528e-01
2.095331680402141572e-01
2.413396778807704868e-01
1.947440608042654564e-01
2.645421181691280377e-01
3.051790429795933068e-01
3.897854189314942652e-01
4.421010742249311676e-01
5.138858528707962448e-01
5.256414052238514989e-01
6.512139034681873051e-01
7.567310896464529701e-01
8.137376973842361805e-01
9.157019707077393988e-01
1.000236108951634506e+00
1.119488704631643072e+00
1.194751783288186653e+00
1.301847213297887995e+00
1.351609185716563744e+00
1.413699632200522416e+00
1.444603337789982067e+00
1.555768204311243519e+00
1.466931159770406001e+00
1.508341716025411339e+00
1.408633371590801708e+00
1.423105062350892069e+00
1.357706769729656981e+00
1.284532542699759583e+00
1.192593525528576892e+00
1.090097128426625428e+00
1.014782112083501664e+00
9.214051138851729883e-01
9.346283262485166610e-01
7.439802623231135392e-01
7.013285143798685395e-01
5.455008466612553120e-01
5.138557159914636241e-01
4.727950134411340044e-01
3.687355380977849761e-01
3.627596185417634733e-01
2.349410404583039402e-01
2.892521024237821869e-01
2.285206271115168830e-01
1.881484809076179876e-01
2.208412939704176570e-01
1.465067406607770961e-01
1.746668262121081061e-01
1.561759642355137756e-01
1.613534632961093895e-01
1.697972797056425676e-01
1.007011641743940089e-01
1.660013517191724353e-01
2.125280685344277665e-01
1.441916396270125633e-01
2.027502483264250477e-01
2.076568570591472707e-01
1.572558978994917367e-01
1.275391553592467864e-01
1.972143251856269264e-01
1.869419682012982697e-01
2.127423775416688034e-01
1.782834195165527991e-01
2.095220361962508715e-01
1.897986158098677600e-01
2.305104240490709333e-01
2.146869152710862150e-01
1.981419963351734037e-01
2.569178262178847261e-01
2.105753328048005635e-01
2.591393436235267522e-01
2.560714192833982161e-01
2.503287084193931977e-01
2.759305336609350068e-01
2.194329692743884341e-01
2.685799711654547339e-01
2.521522380911627725e-01
2.331638784022086186e-01
3.163610137916458287e-01
2.491772879935679752e-01
3.156568879238074721e-01
3.513110309989760371e-01
4.241385812037291592e-01
2.257370258355072545e-01
2.905438065461523056e-01
2.563851847555834174e-01
3.207575428090816971e-01
2.838571286567573848e-01
3.342082703098987473e-01
2.942244206266527717e-01
2.852204417052735530e-01
2.869912604803581679e-01
2.264470888987901720e-01
2.472568654445901626e-01
2.887637751897988436e-01
2.793456013279904115e-01
2.356847655290692234e-01
2.672376298067339895e-01
2.022804331417414891e-01
2.710771803030967431e-01
2.798573234365295814e-01
2.689700780538163971e-01
2.717678152911518485e-01
2.032596468993143612e-01
2.817184454241886682e-01
2.155642924493002821e-01
2.478317633140430520e-01
1.492370518816836522e-01
2.215263174593147810e-01
2.208868738260312270e-01
1.950151147131468921e-01
1.376327718425252034e-01
1.935210059484175349e-01
1.163554435273677773e-01
9.917672091863793948e-02
1.586888082855053284e-01
1.585321822772854938e-01
2.171776419735833019e-01
1.564716342338430544e-01
1.500820024118537099e-01
1.082417398726598506e-01
1.310804856823156173e-01
8.492152326544263885e-02
1.356531287532850294e-01
1.420507764579311272e-01
1.111976884171652913e-01
7.075164341490534914e-02
8.918350893890795994e-02
1.187830656485658887e-01
7.449113113906634387e-02
6.454054831967276362e-02
4.479071343973754088e-02
9.834707204208606446e-02
8.604543289531868533e-02
7.335072149589030865e-02
7.497467979290781126e-02
1.774190714740868716e-02
4.912372202245138264e-02
2.276048361317361060e-02
9.826752202060466679e-03
4.104233438346190088e-02
5.357703044039088119e-02
4.839215995812661680e-02
2.273344811210416955e-02
4.525953595255353262e-02
9.296266546040009293e-03
3.316988280739853467e-02
-2.412570271742372693e-03
-3.275115539879595167e-02
4.276663929537175002e-02
3.078160082986607787e-02
-4.965758864079425003e-03
-3.092107445444042951e-04
-6.700352256108214888e-02
2.181706130164149521e-02
2.448483860033338552e-02
2.551987721889890232e-02
3.272882590074745884e-02
3.897019466152461947e-02
-2.921321069140383336e-02
2.224482479675422494e-03
2.749000324954177510e-02
-3.195195905286481869e-02
-9.767625711026416829e-03
5.004546477311690167e-02
-1.352588064219757344e-02
1.001780441600336191e-02
2.229387887391907561e-02
2.582877888370102570e-02
2.753754782361917536e-02
-2.079163709388446787e-02
-1.178681222544238245e-02
3.497981778689088217e-02
1.673640411010055701e-02
1.380662609168277488e-02
1.869751488074163082e-02
-4.408409961097648627e-02
-3.715915884531911795e-02
1.539745649863363472e-02
1.683229325733304541e-02
-1.062285611576592285e-02
6.163740863968505956e-02
1.360574561781274783e-02
1.969014914696539525e-02
-1.775331391737926257e-02
2.043756188454274453e-02
-1.947405437981515261e-02
-1.001509208275266558e-02
4.550850229736928126e-02
1.738926378312197207e-02
3.402939929117096418e-05
2.166377166922507647e-02
6.494480902281660195e-02
1.022551624576132356e-01
1.381347142357444366e-02
-2.104565569316623613e-02
4.278108547679035367e-02
2.308002252834889800e-02
1.000610277663518816e-01
3.939800448135803018e-02
8.036900373862523872e-02
7.316439207236995201e-02
8.245306761924799110e-02
6.792082996691119201e-02
1.286146908472488304e-01
5.214566315643117539e-02
7.880499434002043169e-02
1.244955641372310906e-01
9.833810272200693703e-02
7.545891802152959738e-02
8.331353936160422469e-02
9.633716484891861886e-02
1.175904575451610229e-01
1.226416571369491337e-01
1.293828119024509338e-01
2.062853211447158996e-01
1.540619780084755419e-01
1.797544682328096333e-01
1.488884756444888713e-01
1.331112688375802877e-01
1.420511914290305266e-01
1.840922839780947395e-01
1.788459178875870526e-01
1.600161993371959912e-01
1.717816503615045287e-01
1.596872772665714757e-01
1.639161435501221287e-01
1.377306526021025712e-01
9.835834968115919619e-02
1.270980293617695878e-01
1.360814096912373039e-01
9.135170521718584402e-02
1.654259977284365246e-01
1.212285112933549902e-01
1.528658202494429519e-01
1.573458339198369749e-01
1.396379651307109448e-01
1.419731995234839450e-01
1.706894466824304402e-01
1.359993171705321802e-01
1.448084964780625705e-01
1.639384880186993965e-01
2.352620456060839083e-01
2.083371080874632519e-01
3.028679629316831101e-01
3.107135913540117200e-01
3.503084261493986107e-01
4.192863654436748133e-01
5.104747880289559614e-01
5.937333738817281992e-01
6.674122256527396102e-01
8.470645877688223191e-01
7.674496269222373934e-01
9.201442813519566943e-01
1.021826159355242458e+00
1.136796368666812329e+00
1.190788727254519230e+00
1.290703819263044672e+00
1.328255503110342683e+00
1.403653496328060912e+00
1.402036575651528727e+00
1.407911394816495187e+00
1.439091510778367056e+00
1.446927756974091928e+00
1.346037120638288176e+00
1.371174298151764726e+00
1.251076951807458926e+00
1.217389534456404965e+00
1.122020384717429264e+00
9.765767077976696964e-01
8.867969219650151391e-01
8.596592741288752171e-01
7.588268075497561771e-01
6.108795419842115715e-01
5.435758399623373816e-01
4.866798663442604145e-01
3.919824284803257730e-01
3.372283433204865122e-01
3.039999625660285143e-01
2.040807584704662503e-01
1.913069450966075336e-01
1.727739881224778506e-01
1.533295295603480102e-01
1.389050981467988555e-01
1.152508413409383398e-01
8.801583917420054137e-02
1.428820766475750181e-01
8.136259978295663775e-02
3.706808243048318602e-02
3.111864804688838776e-02
8.497801161014739701e-02
1.304976741705090870e-01
1.224535272808524033e-01
1.182223916081880377e-01
1.924672188160641839e-01
9.610866255048058915e-02
1.497598772495467856e-01
1.154646152744027987e-01
1.268693392051698510e-01
1.490537311926151687e-01
1.751825689688451537e-01
1.611428958751384699e-01
9.898865355941147137e-02
1.557525931240336392e-01
1.774600591069571964e-01
1.280014809570457213e-01
1.749892160576334843e-01
2.184914508731269078e-01
2.053790676607896437e-01
1.573239436785578704e-01
1.919084167116907325e-01
2.456457861409823973e-01
2.026050554004291682e-01
1.885873216900660898e-01
2.136401578141848001e-01
2.371079479545206981e-01
1.738420084544895494e-01
2.062434151407022409e-01
2.207445244770527004e-01
2.534761428362326541e-01
2.197761653889120370e-01
2.395246644020666560e-01
1.905707215710805147e-01
2.244145916943848240e-01
2.621140875673990678e-01
1.966355396385276455e-01
2.545625383593672075e-01
2.490235734099269238e-01
2.391555256199693058e-01
2.848101823454409209e-01
1.869555728556341889e-01
2.090163605095998745e-01
2.214499517651657978e-01
1.719842617914894567e-01
1.916617425657632934e-01
2.049147509844165826e-01
2.236191880045035607e-01
1.761096165402450953e-01
1.622027120628707353e-01
1.583929910181481882e-01
1.886855000709531105e-01
2.339051309981935167e-01
1.441820595883226974e-01
1.428867455057307168e-01
1.504037346699600153e-01
1.787566300565192057e-01
1.132921265576137815e-01
1.855120913214503564e-01
2.029276704843942514e-01
1.493795725337602187e-01
9.441543300986210419e-02
1.242847356019086691e-01
1.270957441239199126e-01
4.319635064760625476e-02
1.811950670580877443e-01
1.241100718374157086e-01
1.324398467009660074e-01
1.258261410940094138e-01
7.293062338937730815e-02
7.027378858342583912e-02
5.121360922704797092e-02
3.783091207788496363e-02
8.882910881606317921e-02
3.154515928757462701e-02
4.771681937828523706e-02
5.502254388946867941e-02
6.546824104568027547e-02
-7.700484488272617278e-03
7.138643937413470530e-02
5.907439664085981090e-02
5.770094538542581281e-02
2.020963874875884858e-02
-1.083783491119142892e-02
2.308043429568862326e-03
-2.873044895660300385e-02
-2.114233233898214076e-02
3.205837111295989361e-02
