1.416811871210473361e+00
1.416557000147889767e+00
1.372580927500483883e+00
1.347080087614415334e+00
1.282647439319867466e+00
1.201451420529110914e+00
1.117398201113392497e+00
1.005686645930335077e+00
9.418081710042190968e-01
8.183866322533561721e-01
6.844184580569121490e-01
5.903741731454267283e-01
5.808837982090780949e-01
4.876579430871197385e-01
3.875421444237885926e-01
3.475243854959855772e-01
2.586147396498091888e-01
1.990771939971761606e-01
2.093031884912587293e-01
1.397223639343038448e-01
1.313846524433453511e-01
9.037859618884597213e-02
7.165263360611337506e-02
1.445573212909473937e-01
1.100436617175805931e-01
1.321815426276936600e-01
6.618828092559884968e-02
3.464604583376106745e-02
5.119639581678166879e-02
4.497320437885522770e-02
6.300023528622242242e-02
8.256922635695723711e-02
1.221374387412244994e-01
1.440285956931171563e-01
8.268722441548539970e-02
4.700286248560821278e-02
7.485676978378318080e-02
1.149013884662113127e-01
2.554227092658786086e-02
1.004360632051317648e-01
9.565045363728866268e-02
1.083647824714419478e-01
1.627038970945550722e-01
1.952854737265007357e-01
1.574469371043206722e-01
9.304380303781678574e-02
1.162434393797661530e-01
2.028579284528255755e-01
2.010281727958558029e-01
1.914553436713961609e-01
1.614211690363037133e-01
1.640382812499998622e-01
1.912065085317621316e-01
2.542387012337576913e-01
1.786778010918209647e-01
1.785523673535602540e-01
1.978077867459802075e-01
1.557834356427237332e-01
2.156590978289183169e-01
2.026731676086654388e-01
1.677918580663295134e-01
1.672750974508617205e-01
1.931936929957042415e-01
2.017223835055411696e-01
2.166477093059459846e-01
1.940920951989811016e-01
1.657104573327098651e-01
2.212105673873164813e-01
2.243723661829435112e-01
1.962026187534453292e-01
1.872440436357015736e-01
1.592794194990383438e-01
1.959024319793790381e-01
1.339411550704891485e-01
1.518727952093009426e-01
1.847033077308421201e-01
1.891249561745721175e-01
1.541142076168354746e-01
1.479488579714563490e-01
1.510400304213844747e-01
9.238881562386597190e-02
1.424148440075121980e-01
1.475028276449312781e-01
1.119426458607482022e-01
7.079915042980383655e-02
9.625410526751540519e-02
1.143818999389042412e-01
1.244811979086722503e-01
1.292895270068138980e-01
1.088838437851111229e-01
1.071923105328020931e-01
1.209949834580755779e-01
1.197573584804847158e-01
7.254787599079855209e-02
2.865540059986587673e-02
4.281768820040923046e-02
4.670285115777281226e-02
5.075511577970759358e-02
4.714387305496819947e-02
7.768289712747350473e-02
5.274433736801297651e-02
2.264380920208153292e-02
-1.595594011905793197e-02
8.172148877525628463e-02
7.961391875678749952e-02
3.617278767790919891e-02
5.704827758644941127e-03
-3.151078679693878476e-02
1.057916797135918796e-03
-4.299606955217497029e-02
-1.428522869036711468e-02
-1.269924335278763139e-02
-3.420822675647176847e-02
1.287676703807824619e-02
-4.009900974308536897e-02
-2.562084811866818107e-02
4.059984148399740228e-02
-5.509770316447053229e-03
7.249939082735759599e-03
-4.229285491837307676e-02
-6.100444451013725677e-02
-2.693399013014721385e-02
-5.029410328436508676e-02
-1.438390141329395217e-02
-2.992385104591494330e-02
8.080711376413474145e-03
-3.498788322727983818e-02
-1.865043800013246877e-02
-8.272037880536924070e-03
-2.353924860831651394e-02
-4.343520232963137689e-02
3.724401361505633168e-03
-1.029980473695464582e-03
-6.388171555725244422e-02
1.500350417329099351e-02
-7.221964931073884819e-02
-4.367150835770351042e-02
-4.839665357926775657e-02
-2.647599939549140705e-02
-5.255699962416721105e-02
-2.787550873956819511e-02
-6.870433305184880934e-02
-1.125407751962731739e-01
-4.108901947595925558e-02
-9.356911884867777363e-02
-3.606333949200801747e-02
-6.153873589123791399e-02
-6.520629241021098921e-02
-4.583186975544259467e-02
-3.676840533029221425e-02
-3.007991408984329526e-02
-1.013485308822718173e-01
-5.964087506782740633e-02
-1.101407649182254561e-02
-2.950592935916735923e-02
1.834448090478307813e-03
6.521488297569372206e-02
-4.195640357594662695e-03
-7.917535318911116116e-03
-4.100987456533505826e-03
-4.073748249823479217e-02
6.090809234839379693e-03
-1.160839695823463746e-02
5.620260712842564677e-03
-1.048157951788491332e-02
3.861643606760964409e-02
-5.613946587583858172e-03
-1.137035195564481405e-02
-1.279621799992435027e-02
2.485189850095227693e-02
1.181544932571249040e-04
5.545478876867895868e-02
3.437255801657407989e-02
6.023283274177018698e-02
5.175415568874703470e-02
9.246422683902918993e-02
6.017328170717038682e-02
4.257378625528183969e-02
6.102691478727603758e-02
9.909858114489547565e-02
4.299703860342380529e-02
1.023825424440708565e-01
1.014223514864731890e-01
8.594589548156215952e-02
7.366365229453834818e-02
9.932679314085882116e-02
1.258014304483883461e-01
7.649089401274727917e-02
1.182787447969466110e-01
1.326463728715344403e-01
1.138051211138289831e-01
1.113963344461813276e-01
1.280393920862890056e-01
9.954939240547511226e-02
7.880852277891886581e-02
1.417968648446797930e-01
1.361598856960914150e-01
9.352279890458384259e-02
9.544714887975494499e-02
1.444008491461232779e-01
5.194530337821713639e-02
8.655016219274414002e-02
7.702586060646088306e-02
1.078451404141041181e-01
9.020692055940830734e-02
1.593662121532898879e-01
1.171814012593939136e-01
1.243882550637978035e-01
1.406305918508577169e-01
1.996632541241805947e-01
1.880540828855049584e-01
2.976081861537778206e-01
3.788757486043811684e-01
3.586702160469487088e-01
4.724250696738598321e-01
5.337720566712582659e-01
6.029265271259154346e-01
6.822854637700142000e-01
8.198633117326635800e-01
8.904912830476955365e-01
9.619023375664629283e-01
1.113260778564691966e+00
1.169884792705637055e+00
1.261725305959393584e+00
1.354422887993003366e+00
1.363586651849676201e+00
1.380130387953630633e+00
1.380854034896432658e+00
1.404678048684703029e+00
1.390944317702131450e+00
1.363727776504519484e+00
1.215240668142159475e+00
1.216455787849567427e+00
1.137934338618765251e+00
1.098238251917455832e+00
9.535883700054197387e-01
8.144590126004985775e-01
7.432468966891695450e-01
6.634740714915561277e-01
5.497502828131681785e-01
4.392955301168842697e-01
4.278898406538325094e-01
2.807324231141579141e-01
2.653801961183477331e-01
2.572126214275886058e-01
1.975221006052321759e-01
1.331091225704946202e-01
1.443318861121506980e-01
1.023083105462253145e-01
1.260720194427438212e-01
1.276970711194345270e-02
1.100971860534028512e-01
5.510892442735305929e-02
4.555482252763745632e-02
3.899002885877018987e-02
8.461961418517063849e-02
9.543447497982227024e-02
1.125766527933206029e-01
8.590786919070877992e-02
1.350444389118928001e-01
1.153095868099979215e-01
7.372567415694269988e-02
8.383369272094673419e-02
1.521868268891981013e-01
1.009056644925718366e-01
1.044158672548081424e-01
1.526145566061098413e-01
1.595017344771942902e-01
1.434038529445585131e-01
1.571556256423800868e-01
1.212418292514436807e-01
1.091675454987152405e-01
1.392535205852682145e-01
1.867768253664297828e-01
1.581644982984011238e-01
2.138229324394091413e-01
1.783117370066769902e-01
1.425211962530132936e-01
1.577878296628661137e-01
1.549042878937359757e-01
2.036608069472563010e-01
2.149560764015233105e-01
2.199251039892222148e-01
1.773467230905942937e-01
2.309806471600100719e-01
2.429524850419522153e-01
2.016058250365054816e-01
2.215372733026231000e-01
1.908782242049884281e-01
2.174835330360651020e-01
2.270399477784902920e-01
2.276786951411219062e-01
1.669811065569915542e-01
1.984440485137755894e-01
2.227618584714431971e-01
2.158239096478350161e-01
2.238428456774610442e-01
2.083122155775984641e-01
1.700789802831825237e-01
2.425622849562234506e-01
2.169812904697974443e-01
1.622438215350287538e-01
1.969928446515127607e-01
1.961787898114748518e-01
1.621403905067504425e-01
1.571579325655728665e-01
1.778215851471121878e-01
8.356561909025295165e-02
1.801780970479733013e-01
1.521669993987281311e-01
1.601716977917342910e-01
2.018217617901454375e-01
1.477961994721694317e-01
1.191318195856247153e-01
8.597495917494951678e-02
1.387569198457976327e-01
8.752952323303382631e-02
8.930999263264421950e-02
1.364829700614899055e-01
1.081240250342644094e-01
6.797381764704837903e-02
8.824743321900696547e-02
9.155636256431773368e-02
7.840590975082667446e-02
5.945086708317279256e-02
7.412154622605707233e-02
8.304985418216342952e-02
6.530076721070754431e-02
7.044001662682092268e-02
7.023071395306088038e-02
1.840691954480074000e-02
4.839236671763098852e-02
1.175055713956202341e-02
6.246478298373880217e-02
6.240003108485109307e-02
2.780969328842845117e-02
2.140936759370723474e-02
3.955322316032697239e-02
2.681068782486010008e-02
3.577409789128928319e-02
-3.456189169827586505e-02
2.402880987947578900e-02
-1.537092205023776748e-02
1.238354802060906770e-02
2.320984360953115208e-02
1.480559753802801817e-02
-5.340808738364927200e-02
-1.830265090395350597e-02
1.146715679386916750e-02
-1.856976050767646796e-02
-2.404974984457252871e-02
3.237667254950699069e-02
-3.223306225908530165e-02
2.135003522838680237e-02
-5.480680586161061629e-02
-1.362941846755974344e-02
-2.897319402951879785e-02
2.216584008890245400e-02
-9.834874601289001622e-03
1.200704078224968524e-03
-5.520304413446375930e-02
2.521147514636568054e-02
-1.305163658881806389e-02
1.386543970284399158e-02
-5.145196353837128145e-02
2.587794746882446373e-02
-2.105267506106751549e-02
-1.627232875891941946e-02
3.478281899804297472e-02
6.303035935034433795e-03
-2.334413041248927997e-02
-5.277159790056128175e-02
1.129314896021323816e-02
-5.349732638163585963e-02
-1.156406224270114039e-02
-7.531309369113368957e-02
-4.834715645842746490e-02
2.755991708886983138e-02
4.248998398134395948e-02
5.491420015917247016e-02
1.297988388426430523e-02
-6.906189019507865887e-03
-2.336438594939220861e-02
-1.433686864528706945e-02
6.882394994011362815e-03
-3.726710369860210259e-02
2.961754616395099321e-02
4.453717101280932344e-02
-3.375744247305269286e-02
4.387211090576938199e-02
1.435259983382796214e-02
3.975277949254044790e-02
7.711180124032349092e-02
8.279678841450881233e-02
6.962217157696569403e-02
6.484557581430530626e-02
3.996073129183789693e-03
6.750160622600877292e-02
4.955040294979804610e-02
5.609538827184112203e-02
9.779501818139604841e-02
9.402069054976194828e-02
6.224452516179866668e-02
1.098618312744660125e-01
7.063011035917067526e-02
1.686649736139384792e-01
1.345142186136857598e-01
1.089655152830374119e-01
7.960193493570381917e-02
8.977230626747596809e-02
1.236750450219999964e-01
1.170243372469368937e-01
1.498999109569184307e-01
5.633421896295050246e-02
1.149702010226385518e-01
2.265625259885638010e-01
2.065262013346771397e-01
1.603003558721860233e-01
1.733903118188069858e-01
1.508511127472765556e-01
5.162871203705633044e-02
1.670892624351536238e-01
1.937469582326939721e-01
1.355731268088548047e-01
1.069333181245614023e-01
1.442729123973270078e-01
1.386577912599403772e-01
1.693172192864891845e-01
1.453079466957334087e-01
1.344533439513810325e-01
1.916704967463956910e-01
1.728001157951553346e-01
1.394208948895286071e-01
1.267643255702413652e-01
1.894634445125248923e-01
2.383329087983908079e-01
2.295560596064147307e-01
2.883739505255667468e-01
2.822805274757824723e-01
3.639066894515577411e-01
4.335676641987901703e-01
4.787162505229101694e-01
5.663423668813983847e-01
6.318852262998471137e-01
7.572122455915268890e-01
8.059759050070534059e-01
8.664964086633252238e-01
1.026368112495598339e+00
1.073736872301091605e+00
1.170854976028259831e+00
1.262200674744182738e+00
1.278372572593756251e+00
1.344397722511384563e+00
1.444275836402838076e+00
1.418279067266364324e+00
1.502220404245668384e+00
1.433468999578906722e+00
1.413360552902438672e+00
1.339563122436711717e+00
1.241456496262812959e+00
1.189351668320510980e+00
1.087961752032118534e+00
1.062546537612264252e+00
8.809086840620828918e-01
8.149288544039419158e-01
7.208286254415191552e-01
6.609956824935949715e-01
5.773114147635031168e-01
5.093068260732146468e-01
4.021107789279894651e-01
4.276583317248567329e-01
3.642018295797603833e-01
2.148181198202152031e-01
1.650242360573322964e-01
1.837873983266221922e-01
1.788380693578722203e-01
1.748837739013922865e-01
1.742363685044858168e-01
1.264902014594436186e-01
1.260420340916625914e-01
7.143105217684435349e-02
9.617553490545788231e-02
1.300808410445312147e-01
1.231415488041876505e-01
9.378090650981021903e-02
1.283618466723312479e-01
1.503065317847290805e-01
1.146397583167885481e-01
1.528734009217598278e-01
1.424906740134928573e-01
1.990719885613291273e-01
1.936066491676172729e-01
7.608985771348945881e-02
2.013262428700756668e-01
1.703703111973441098e-01
1.631368721059296423e-01
1.818515481095087649e-01
1.991957473699746961e-01
2.097864462424186005e-01
2.070288621383558347e-01
1.873809761734490931e-01
2.210393608159942347e-01
2.371841698422766653e-01
2.401122360262444577e-01
2.623019944780344281e-01
2.712335354055311343e-01
3.276183412360245684e-01
2.382281238656271394e-01
3.159516142027487540e-01
3.022196522772443439e-01
2.310778749439824920e-01
2.439657577087380735e-01
2.275304487789952812e-01
2.308796283650633163e-01
2.587653808444124182e-01
2.125878539927174571e-01
2.026657544904851560e-01
2.749444276808006848e-01
2.440814292788780204e-01
3.124588873682977996e-01
2.309452926264500550e-01
2.577169741244632606e-01
2.119623256066107131e-01
2.759212399020419260e-01
2.165269355134651352e-01
2.741821606810279643e-01
2.363337970701232804e-01
2.999109872016124112e-01
2.630577013024950617e-01
2.887243247600520535e-01
2.071087654810490897e-01
2.632981454392178122e-01
2.100540176207587595e-01
2.589614364110589539e-01
2.846793892928801695e-01
2.217416546775776709e-01
2.199227491397731937e-01
2.032218781466792190e-01
1.569239069881107618e-01
1.575861518906524761e-01
1.864094546840467381e-01
1.426345022700383491e-01
2.086378228039975635e-01
2.056390399732363483e-01
2.163910050393867412e-01
1.554335521147976462e-01
1.614182513944921460e-01
2.011722380900327622e-01
1.276375100506644822e-01
1.366956576301483761e-01
1.209493692489468364e-01
1.066508576717276197e-01
1.144358971919513801e-01
1.070510970404510431e-01
1.086555443144199690e-01
1.349834660367790207e-01
8.800187476310619705e-02
1.051835497211628251e-01
1.478876767145801407e-01
1.390071755106430940e-01
5.657087916872319266e-02
5.822232205265343019e-02
8.182247507742471115e-02
6.433388863734325336e-02
6.412371591603908960e-02
8.921496165719017268e-02
1.086688623332409398e-01
1.632885427314157215e-02
6.360272784431765525e-02
8.596222749896223481e-02
3.361317797908298932e-02
5.750499214055512093e-02
4.646188925525125690e-02
1.615210569194049442e-02
-3.606765813600376624e-02
5.021483392243353272e-02
3.577729609306176672e-02
3.256967169177697047e-02
6.960447495693831282e-03
6.923840168115333316e-02
2.698224940255643939e-02
1.661604347985166236e-02
4.460501075794062742e-02
6.145271437249219537e-02
4.553139693273100530e-02
6.484705767589354908e-02
4.332190608486606587e-02
1.039537622571774372e-01
6.839333798185769087e-02
3.844774327305738870e-02
1.504501564237101241e-02
-1.328215877589938865e-03
4.094325663068371784e-02
2.494844414303491742e-02
6.403744711283929081e-02
1.668194982396467574e-02
4.489620015580389478e-02
3.656440727183507544e-02
4.140636080979407524e-02
4.358845997871794997e-02
6.537584730884743456e-02
4.765162847726225198e-02
3.121459898610100953e-02
4.565467583072829738e-03
6.817331557597541836e-02
3.062724854209090963e-02
4.122379541574593825e-02
3.773299935158983681e-02
2.049685504282193135e-02
2.844417474105893559e-02
5.410013110659649127e-02
4.817990062014939484e-02
3.380972541385467156e-02
8.323083587185824139e-02
9.899022396735711327e-02
8.374031791011110615e-02
8.179106764491408943e-02
6.415536898664357668e-03
6.972666928868426206e-02
1.140024384176214767e-01
9.162018963151521977e-02
1.085661843355008177e-01
1.296237971027321689e-01
1.408925740997900300e-01
1.306655633389203208e-01
1.606551785880895034e-01
1.071948673919050077e-01
1.332853018354299701e-01
1.295785510987848277e-01
1.014259264991361625e-01
1.366062765281239599e-01
1.494714952944203035e-01
1.634323591840287637e-01
1.854090909404436383e-01
1.328684533146888280e-01
2.409182284125952755e-01
1.376310768846867039e-01
1.799729668815076289e-01
1.681182404091390858e-01
1.387307546460215812e-01
2.049376130650802375e-01
1.918703808734654459e-01
2.171497912085612048e-01
1.354462421151697016e-01
1.453005447378738491e-01
1.800088280114047756e-01
2.259726204926977289e-01
1.981349555889650171e-01
1.713602392702759936e-01
1.949902278313364601e-01
2.117893091808070727e-01
1.915731330854603676e-01
1.791544323648044945e-01
1.674690540029601660e-01
1.703169506776397446e-01
1.701147488129178542e-01
2.112101445881003903e-01
1.403773133318824695e-01
1.958150718071300089e-01
2.119432277754369764e-01
2.057176878721800051e-01
2.526956280166638980e-01
2.494309207950666796e-01
2.884153361342394195e-01
3.000095313667876518e-01
4.037742335976674535e-01
3.592248584968136815e-01
4.183740834035160061e-01
4.713290578471280301e-01
6.456788515785188975e-01
7.039988111983848107e-01
7.957650313619968330e-01
7.955786275605946090e-01
9.881759018008637874e-01
1.046709007794397239e+00
1.123144969973937091e+00
1.229190550409211324e+00
1.321238580207739766e+00
1.287186246578108317e+00
1.436055456137387720e+00
1.485318057420113691e+00
1.450586649033624553e+00
1.529438861631714497e+00
1.464655930336414613e+00
1.402103811080652962e+00
1.418573618025978700e+00
1.373326236941482037e+00
1.237615047439091898e+00
1.169697905055280041e+00
1.140585662264370859e+00
9.606866080827353160e-01
8.453964783537943894e-01
7.508686742656904833e-01
6.226637615368637579e-01
5.584555086574397587e-01
5.446795663300029178e-01
5.114561467607822154e-01
4.409330960125236176e-01
3.557258357870465293e-01
3.132130315352240624e-01
3.108665642652249650e-01
1.826500991547228836e-01
2.089998741093903600e-01
1.645278348042864824e-01
1.725394193504982132e-01
1.052013526122526216e-01
1.931214618572912323e-01
1.810590635814818827e-01
2.077339552366705144e-01
1.528717752604704661e-01
1.782297821360924184e-01
1.949255651531551781e-01
1.176602421487364381e-01
1.734425022093784019e-01
1.931849777565292081e-01
1.343268342844983476e-01
1.987257169762517428e-01
1.968260434069321052e-01
2.236410213105605449e-01
2.372187387279013349e-01
1.976418477043033473e-01
2.106978496209287177e-01
1.917476115570206918e-01
2.386847818299400736e-01
2.056188382856238006e-01
2.313420945511179272e-01
2.935998261831999634e-01
2.380157392229009239e-01
2.511688180722077557e-01
2.529855956313998844e-01
2.553896047049439844e-01
2.456636074464085273e-01
1.887585453267804914e-01
2.482977353557197231e-01
2.158224471480508500e-01
3.198674291974935024e-01
2.427199972878383016e-01
2.575181317760225630e-01
2.843792532478257029e-01
3.606313411284025050e-01
2.935870696335969310e-01
2.949085528964337510e-01
2.310583162280865355e-01
3.687826441281346623e-01
3.314960046059011178e-01
3.014175237662921614e-01
3.316856305631404878e-01
2.346987775756657346e-01
3.320050260312664703e-01
2.496840142643801386e-01
2.787979964976488034e-01
3.255038871126253452e-01
3.713556096974657272e-01
2.949479877906905356e-01
3.496494750596859102e-01
3.040961905909829177e-01
2.597402985625181238e-01
2.815391780077296513e-01
3.254234660927292633e-01
2.145973450909265390e-01
2.558900053223039928e-01
3.063959540622690492e-01
2.387962131796737553e-01
2.433954683257215645e-01
2.068327131979518507e-01
2.595628365770560331e-01
2.277449876880165980e-01
2.810645322922376010e-01
1.748537081882400868e-01
1.859996220833449732e-01
2.520525150403968850e-01
2.361420771495636728e-01
1.593625944464921451e-01
2.628813918125337823e-01
2.132978269181642073e-01
1.910125528603495992e-01
1.497009991588438838e-01
1.916767349731207937e-01
2.003839797624080432e-01
1.381144111482951464e-01
7.689148325893818692e-02
2.092392545171278817e-01
1.799666293647156912e-01
1.393674892407983368e-01
9.129019035945623584e-02
1.525262849066045812e-01
1.140318180683704552e-01
8.211328148999876009e-02
6.121669263807164724e-02
1.352172445349543728e-01
1.413302769341935883e-01
1.563061840186190654e-01
1.039297843191159532e-01
9.861194096031106193e-02
1.063787554550906511e-01
9.494821017857590917e-02
6.742673205252208701e-02
4.894029871847439123e-02
7.884989622347834959e-02
1.265735699235390477e-01
9.689129024296547210e-02
5.241267442482016453e-02
6.872192814412636519e-02
5.959921643494386911e-02
8.599563838974362551e-02
7.396233973385084315e-02
8.533598510735276865e-02
7.213353261647270642e-02
3.744283931732394349e-02
9.290662509866866314e-02
1.163050804732936871e-01
4.529111512135596679e-02
3.056898269309365340e-02
7.098407429788194944e-02
1.007142158373592195e-01
6.437343349216226307e-02
7.368725956957143663e-02
6.197607244431593831e-03
3.800237513455087535e-02
7.672181968201842450e-02
2.610943095446316073e-02
5.078847523011762594e-02
5.124460512734095585e-02
3.008115572188606660e-02
7.107545060051127794e-02
7.709913101404386460e-02
9.497085163836796462e-02
8.036715045854261885e-02
3.706479140117755616e-02
7.354303264606408541e-02
6.267283113570144837e-02
8.716639064682409066e-02
1.041725572295290059e-01
2.760712987054947387e-02
6.609897108959550405e-02
8.945663506047944746e-02
6.733928169672279140e-02
9.786428119025061823e-02
1.690367720822315983e-02
5.892554857952949504e-02
1.079807150855464776e-01
5.155148308292860360e-02
8.840793720250708643e-02
5.417906676856478615e-02
1.372247781719216908e-01
5.792076091912348040e-02
9.510268904254777500e-02
1.051755929412027946e-01
1.062206104177949306e-01
1.016762993897250694e-01
1.289661862683988969e-01
1.299304261563521967e-01
1.179616021367998063e-01
1.062535599554975674e-01
1.346630038164806642e-01
1.890823477653083839e-01
1.460072820785438541e-01
1.300404593758564542e-01
1.150497428362402819e-01
1.375265306631925644e-01
1.179879839301685579e-01
1.222933754944624113e-01
1.552210540920143655e-01
1.456661057190996589e-01
1.760190062375956987e-01
1.967141266122313936e-01
2.136950371290259609e-01
1.584439053539899722e-01
2.405885521128747762e-01
2.312842776125715871e-01
1.917072169634954082e-01
1.842636532400376281e-01
1.976567664933613355e-01
2.048227190886245386e-01
2.127540234377946204e-01
1.456633461908047045e-01
1.596105441470996866e-01
1.815314133110445260e-01
1.842786920418227614e-01
1.920624293342498290e-01
1.626763864389728087e-01
2.103796768422960262e-01
1.706789962230046143e-01
2.270665517588674187e-01
1.638173130721419235e-01
2.148667260026490278e-01
1.902207671999271432e-01
1.954802204059953030e-01
1.804044608664009675e-01
2.250659516015814932e-01
2.224371522795990652e-01
2.734024849268238411e-01
3.190803803083703261e-01
4.007918990545850102e-01
4.502131832884606610e-01
5.081015385991660693e-01
5.393789172408216537e-01
7.117646593280220202e-01
7.823479605703997919e-01
8.562732154595489309e-01
8.619201118859255439e-01
1.007808314994675492e+00
1.092766237502645232e+00
1.163238126474683165e+00
1.272894031032813400e+00
1.345307117458074408e+00
1.408592169164432972e+00
1.401906354075296512e+00
1.467957865574341936e+00
1.500347617548316137e+00
1.435709230658801072e+00
1.429699287091284798e+00
1.394889468229056240e+00
1.301576052738477873e+00
1.276601262490309807e+00
1.141458364210449217e+00
1.026642689138345776e+00
1.045476619208872027e+00
8.737915523730287459e-01
7.872773948948497136e-01
6.453519051141162199e-01
6.670024328106958222e-01
5.524780498847298160e-01
4.247581347110255812e-01
3.841324754015129628e-01
3.396853695871499546e-01
2.590600609561384271e-01
2.337341681310901031e-01
2.612202330314951082e-01
1.845809905334092893e-01
1.879502532843474460e-01
1.727002788439112035e-01
1.435291252983737775e-01
1.233964390037479847e-01
1.600689756534951214e-01
1.044605901889474608e-01
1.482526523728341927e-01
1.638765509554105937e-01
1.551908391975289625e-01
1.190216236946851636e-01
1.131262430073874531e-01
1.879684692952234282e-01
1.991483813864770025e-01
1.619812599350689553e-01
1.463490053757985354e-01
1.709879897054865094e-01
1.555037454932653718e-01
1.967085179798273575e-01
2.048220029183456525e-01
2.091521517500118665e-01
1.931733682971772392e-01
2.142936707860266798e-01
2.083450491676280547e-01
1.791538163915707693e-01
2.698839418810509705e-01
2.169228160064028410e-01
1.868472332211228715e-01
2.583562058813062001e-01
2.823701979691620734e-01
2.353255023224847808e-01
2.505017742304445627e-01
2.744351350866305328e-01
3.407980090673864981e-01
2.636673527950400553e-01
2.455247781053867817e-01
2.568875597653061393e-01
2.650754622998693355e-01
2.238259561584153567e-01
2.606557222638117843e-01
2.185131153859055098e-01
3.101398924627901676e-01
2.159952967231350551e-01
2.827257509885472420e-01
2.414717767373535107e-01
2.515104645192836608e-01
2.499035668255644993e-01
2.488370676516525604e-01
3.381185029439779388e-01
2.815325803286382045e-01
2.805619691273774086e-01
2.788839053525573042e-01
2.535028556358785989e-01
2.336782293576649960e-01
2.248868073630184983e-01
2.602371062697248494e-01
2.146208370415180755e-01
2.422576120289290924e-01
2.110756885731326360e-01
1.519141705053089764e-01
2.177260569976747218e-01
2.207736301231326692e-01
1.895513208972963992e-01
2.122076956373750156e-01
2.107770698911714258e-01
2.103690248851781686e-01
1.929977709911432360e-01
1.858256389443719570e-01
1.877375808734131624e-01
1.593862327674470392e-01
9.660042395547407956e-02
1.274244632765367813e-01
1.325976335013015761e-01
1.335951902759446863e-01
1.655062649874312897e-01
1.383187977237499700e-01
1.301921208713217593e-01
1.138449682598474816e-01
8.742830453937727730e-02
1.181684280881012128e-01
1.187060312418395935e-01
1.279508737474505942e-01
7.075288453255965115e-02
1.405828939930252874e-01
1.177545270677016614e-01
4.477435495543319321e-02
8.495810970854808519e-02
9.168723901851390246e-02
1.061796177931590007e-01
6.008424500000312390e-02
1.048693550604595237e-01
4.670456497276311014e-02
7.058995404518103589e-02
6.990362048758790026e-02
6.764745837799229777e-02
6.553388602331620960e-02
2.497931793152231503e-02
1.790377867226472519e-02
2.099549622936715959e-02
5.456813092706328319e-03
1.119360698675494169e-02
5.865664759329924927e-02
-7.954388178252683184e-04
3.175600004572146084e-02
4.002906906564621115e-02
1.771113757105805681e-02
5.469686020891321998e-02
-2.132118791850971806e-02
-4.112782687757474825e-04
5.980554408802113420e-02
1.395153186320591786e-02
2.026663478073875355e-02
-2.166461203246865946e-02
-2.251231745720069441e-02
2.145983203984422327e-02
5.172854443939428615e-02
-1.926887107804440419e-02
2.783584854679894277e-02
3.914325057451185919e-02
-1.218240194275170378e-02
3.250309340877689107e-02
5.701945761182164452e-02
3.899159822683113258e-02
-5.611625433052633109e-03
-6.925913956310264172e-04
4.013245277447376191e-02
4.877182890538296622e-02
-2.385643075569124361e-02
3.625906798403209785e-02
-8.688914089368404009e-03
-3.416513573724484776e-02
-1.535683479345872210e-02
3.811996563982233965e-02
-1.611683381093474351e-02
2.921227060626176153e-02
9.583390901519774421e-03
-6.161980328931606840e-03
4.567569052946179181e-02
-2.533721795859707193e-03
5.575454593151644989e-02
4.855484605617767235e-02
4.311421640673163136e-03
7.140580664280433976e-02
2.306117593359626600e-02
9.285637396851079139e-02
8.948270896999867274e-02
2.697493515861249663e-02
6.440640913184203509e-02
5.028804368095553257e-02
9.898502060685027137e-02
4.874079745275772951e-02
1.089869615741326930e-01
1.144700977011912507e-01
1.441529095851671605e-01
1.247692001923888239e-01
8.323797304154494092e-02
1.596393782606820577e-01
1.506617835299380315e-01
9.898682876307918210e-02
1.038271216907619976e-01
1.318960111391732359e-01
1.632795139096104853e-01
1.195144680209772048e-01
1.080466031227258206e-01
1.191323068157788961e-01
1.573465323170703534e-01
9.776626803081020500e-02
1.487245656308043562e-01
1.267815307866994867e-01
1.964900857667921108e-01
1.055014334998159581e-01
1.154993552829627623e-01
8.605444216942639835e-02
1.693048352248526234e-01
1.131105040844301302e-01
2.014772694682635534e-01
1.457227443758878083e-01
8.059954071607169923e-02
1.206536949705192124e-01
1.195149389601260353e-01
8.105865140568584148e-02
1.670491474690207201e-01
1.189862641092025997e-01
1.773703968498661909e-01
8.460860592253131862e-02
1.609015097313237219e-01
1.814051382886633645e-01
1.528877311504501235e-01
2.164762953121388278e-01
2.459993484901836780e-01
2.494049839141209146e-01
2.983258596922435668e-01
3.535938230259227377e-01
4.375760898740762017e-01
4.926499675206539863e-01
6.356751588269241582e-01
6.252409227371215072e-01
7.301381619607398843e-01
8.102839331101593379e-01
9.412956704677438724e-01
1.070885054309779649e+00
1.150632951212904542e+00
1.211919836071010836e+00
1.271589987299246660e+00
1.334369538824695667e+00
1.427489561161495724e+00
1.440239506801235692e+00
1.380696104497563859e+00
1.433482139615812834e+00
1.389096807621495122e+00
1.301830658385905393e+00
1.283124787870704386e+00
1.253547249180214207e+00
1.150914767667326144e+00
1.016972925905752945e+00
9.879997022595841116e-01
8.700611456959621570e-01
7.865819428137851288e-01
6.304969145767675975e-01
5.541833726777797287e-01
5.229374436647882263e-01
4.320342228278313823e-01
3.866482113276107913e-01
3.115981719222911672e-01
2.801196624156689352e-01
1.421294575771192004e-01
1.625905599414383118e-01
1.526920044154042311e-01
1.704235675850901965e-01
1.067045900264734504e-01
1.121940853880974281e-01
1.239044730666953587e-01
6.042957705359693066e-02
8.072710708188619855e-02
7.337330112032472429e-02
7.857830265366050337e-02
6.090484441622689288e-02
6.899781251273419402e-02
1.399264348648009970e-01
8.808940158069290816e-02
5.878388104440186723e-02
1.129142873284785242e-01
1.042679226859008906e-01
1.406065754216389574e-01
1.717951644617190521e-01
1.677989592220531512e-01
1.675381187091271595e-01
1.359772385338063605e-01
2.111424341542088579e-01
1.614467069231985963e-01
1.619579583923823618e-01
1.726407179116793422e-01
1.830638786222658632e-01
1.760842930489716074e-01
1.803032711475808236e-01
1.774655654579993802e-01
1.546615365997887070e-01
1.641698629344134353e-01
1.948096520378823915e-01
2.407980355717125875e-01
1.726980413491674138e-01
2.718561953489118665e-01
1.834032804777462056e-01
2.499080679512258041e-01
2.297377627123647348e-01
1.949694433212303124e-01
1.914807777856181170e-01
2.349630848237523328e-01
2.339894860131954135e-01
2.731795433590555322e-01
2.631335645263629952e-01
2.410010579318259127e-01
2.306914572697809918e-01
2.202430195165338001e-01
1.734589447184832212e-01
1.685922358676432697e-01
2.262901131589209192e-01
2.521995300723351430e-01
2.106933163742686077e-01
1.456103126403948955e-01
2.530732080017395469e-01
2.165495284813143684e-01
1.833080460803847289e-01
2.373474852627298903e-01
1.391779861949735686e-01
1.602077675767832055e-01
1.487084605999723919e-01
1.507622560976854265e-01
1.751412019464602954e-01
1.554220228316631758e-01
1.401844994252242904e-01
1.869934298773502923e-01
7.535393444570567811e-02
1.942279012021731477e-01
1.326387477559837214e-01
4.864456646487251568e-02
1.339987247821461669e-01
1.084416656871229623e-01
7.398173941251492969e-02
8.101286829029064052e-02
9.234085757477197842e-02
8.828062320577548250e-02
8.988196292231467877e-02
4.364376676758133927e-02
5.676417300449779907e-02
8.241743781818856862e-02
7.103328464416083787e-02
7.458027142763185013e-02
5.123984759577152742e-02
4.609674740551513578e-02
8.179192857501438318e-02
2.937260567782661730e-02
8.133542164559001697e-02
-6.120963441282420425e-03
-8.539913222457992670e-03
7.166142319811436012e-02
-8.026997281473585016e-03
-1.057242824590798325e-02
-2.408595247784404286e-02
3.117798503877025618e-02
2.622290666103631318e-02
1.335485444921215986e-02
-1.025830691175375758e-02
-4.350184507965990793e-02
-5.253592277110093189e-02
-2.708624452437890379e-02
-9.345882982154784385e-03
-1.791555227346510251e-02
4.590776287436745817e-03
-2.497690581263262155e-02
1.328045069576708204e-02
-6.778909274049153832e-02
-3.218441888743889950e-02
-4.457069794661575740e-02
-2.867589969680657200e-02
1.262251697381055332e-02
-6.893605358358599611e-02
-1.611300756692665703e-02
2.032024201184096796e-02
-2.290495016709805792e-02
5.525627150975334634e-03
-6.456387253305805041e-02
-1.019770650753169805e-02
-1.016413611762368996e-01
-2.112705463065128048e-02
-6.794363442532025399e-02
-6.772414109985550046e-02
-1.009990347172311509e-01
-2.861688897071398494e-02
-5.450565476393335468e-02
-3.467419495031834331e-03
-1.297208153974770475e-02
-2.017324976530968095e-02
-5.042565556333845900e-03
-2.999003728450899339e-02
2.368254053977780771e-02
-2.788149199715653920e-02
-1.630654721871532820e-02
-4.200102954366957686e-03
-6.813102582853813871e-02
-1.480048934644852959e-02
-4.284834662928810323e-02
-2.538985475653114318e-02
-3.583878704070835725e-02
-1.253019291998310608e-02
-3.631768989702764683e-02
-4.433876417891742527e-02
-3.979958447366892249e-02
7.963072549701188940e-03
3.672968101882483072e-02
1.761467837578228196e-02
3.455018079103337747e-02
3.339781551259777409e-02
3.005088655330001579e-03
2.780680292042126550e-02
2.500045604257802867e-02
4.185268429940326024e-02
6.863351105062982793e-03
8.061054701723804894e-02
6.457618733842913905e-02
9.179179810916239524e-03
3.813074456395033895e-02
9.463087500088629422e-02
6.469597211175573404e-02
1.281945364325027537e-01
3.862775664313738283e-02
7.619273758270114771e-02
1.372529875626233020e-01
9.760289376538933137e-02
1.010383361815670733e-01
1.178386650388594387e-01
1.712374893113152718e-01
1.091179728563169971e-01
6.890126244282793189e-02
8.568448532310918297e-02
1.219449282352897124e-01
1.018410208606140566e-01
1.170294754330732101e-01
1.064146919539049746e-01
6.864227817094906148e-02
9.187841279985842213e-02
1.279749908026959759e-01
4.959219593429228107e-02
1.366556821019461465e-01
8.339033167180598394e-02
9.994120984478668812e-02
9.573891428735151199e-02
6.032909734617071529e-02
1.049650792277384559e-01
6.956158261724586234e-02
1.342051779284027524e-01
1.196503091718531947e-01
1.144678560909891535e-01
1.834703567445724604e-01
1.041868635045399283e-01
1.703339438685528007e-01
2.224584117831232000e-01
2.384894756817401706e-01
3.105085453979864463e-01
3.249755231882561768e-01
3.813391291030018282e-01
4.849267971740381933e-01
4.938694178550550595e-01
7.022393822699346533e-01
7.012698510281946129e-01
8.096048089037330975e-01
8.859186562707181967e-01
9.339460154222146704e-01
1.058352055865863006e+00
1.112577840408528251e+00
1.218111853111784271e+00
1.343155520109063028e+00
1.348525705898106386e+00
1.365897350332903937e+00
1.437362950641094095e+00
1.416412351476722620e+00
1.401097147872934379e+00
1.387932672237335074e+00
1.259277000626660703e+00
1.220598765111624129e+00
1.097457845848585523e+00
9.997352721186270053e-01
9.861769653781764511e-01
8.789585174186627103e-01
7.289641275006684129e-01
6.518282389333447391e-01
5.628441286893489659e-01
4.839867899227094372e-01
3.516319255782731079e-01
3.281818980199456837e-01
3.052753320226846978e-01
2.616438989455243114e-01
1.620250813797106670e-01
1.465873245567930472e-01
9.943270007053850446e-02
1.157367652411064735e-01
9.791912309165926032e-02
5.950751965895344220e-02
8.462187899451883988e-02
6.223564145939014525e-02
1.545946156090452772e-01
5.218534603430170782e-02
8.784939494699434137e-02
1.103795343519144156e-01
8.577233089262153998e-02
8.744015613111628948e-02
8.426891991617641020e-02
6.971687156325601098e-02
5.240241480454391199e-03
1.030621180300395345e-01
9.607445026515934461e-02
1.208487407483930243e-01
9.922079470504738263e-02
1.062682998608969059e-01
6.500673599344786169e-02
1.274602850045608304e-01
1.393251791636945791e-01
8.677344828602856497e-02
1.378408498501356161e-01
1.578186155525708456e-01
8.492908384013608813e-02
2.213884079267993688e-01
1.743306825232595059e-01
1.574084071232254578e-01
1.579172563137584695e-01
1.352807200163580748e-01
1.930680283789783236e-01
2.140404574709502961e-01
1.458875063733179878e-01
2.223862191306690272e-01
1.853514362133265314e-01
1.866243825637005638e-01
2.604687640946349303e-01
1.933908523624809639e-01
2.211761405469561126e-01
2.065893306339235402e-01
1.496328947031334566e-01
1.682842905083026253e-01
2.111871303046863046e-01
1.897968346160370245e-01
1.942515336568378381e-01
2.081097213816899272e-01
1.363581478653920209e-01
1.618724251472394571e-01
1.875361220671314666e-01
1.709976770443248362e-01
1.660668073522161559e-01
2.096152480904679150e-01
1.702920431101384025e-01
1.352709468554162409e-01
2.248010788045160246e-01
1.896654517738991796e-01
1.990951724738256601e-01
1.315748602619623009e-01
1.474427100191568196e-01
8.476269278364481630e-02
1.602680628173954736e-01
1.767032589270692566e-01
1.075848849212651948e-01
8.440093410540625007e-02
8.449014079035008229e-02
1.341727560426904942e-01
1.523743279808768558e-01
1.425351225091115448e-01
9.674504321837465448e-02
3.268291544371391272e-02
1.376684066792393246e-01
4.009573724060924715e-02
7.250056665771464903e-02
8.661411756758766178e-02
1.086692073720441076e-02
9.411700843382882209e-02
9.736582093626804102e-02
3.987567266232938668e-02
2.444207189070793373e-02
6.334457732518747330e-02
4.267142875424580206e-02
6.842910254548983939e-02
4.569145202182915005e-02
7.554132476565311727e-02
1.479987739418504172e-02
1.509708891652944418e-03
2.363786617124301326e-02
3.528448568028509646e-03
5.677959796977952167e-03
1.197519864880175477e-02
1.389828561381545313e-02
-2.728013248982877684e-02
-4.122685132186910267e-02
-5.495311743299714780e-02
1.489111959820210718e-03
3.253058339177522518e-05
-4.654489802398187326e-03
-1.844306216116083780e-02
-1.082748891942327679e-02
-5.434954348404880120e-02
3.548662727127797206e-02
-2.756753169270160370e-02
-1.180496763139255584e-02
-1.727014586726084017e-02
-5.868229540419221679e-02
-5.463205182116043224e-03
-6.623557859639422896e-02
-1.266909562551672350e-02
-2.559513033053247011e-02
-2.704454294361068392e-02
-6.246840060666775107e-02
-2.639536148103074908e-02
-4.699323522660248803e-02
-5.298579329739749877e-02
-4.097763063192066263e-02
-2.349198471531504379e-02
-1.235831212999767212e-02
-8.789927411285308745e-02
-8.238157311369592728e-02
2.140029482782054848e-02
-7.302732703479315746e-02
-1.306377428186319967e-02
-2.159932944394688317e-02
-3.411540953587835490e-02
-3.600593866674077492e-02
-3.346974495433315683e-02
-7.206739283106744498e-02
-3.151911303161288036e-03
-1.081127259634997312e-02
-2.571594547748146803e-02
-3.347238284869921698e-03
-3.073415771166220986e-02
-1.082601123527746415e-02
-4.758790521637348836e-02
-1.609090930745948195e-02
8.778685645909792279e-03
-7.752422807942721539e-03
7.465159368702366238e-03
-1.501307520948694241e-03
1.238396681734454247e-02
-2.912751886261497752e-02
1.323274800311353278e-02
-2.866780423928932953e-03
1.415032319516646570e-02
1.300894013813164857e-02
-1.696522619871479454e-03
5.152864393639784713e-02
3.408894442565251620e-02
1.398309884101320288e-02
2.370583997273763288e-02
9.884098453209640145e-02
2.968821288013715615e-02
7.133309302480184133e-02
9.675833110854550889e-02
7.337960558558180579e-02
1.122750942405934677e-02
7.568928787250034373e-02
8.934282676364746489e-02
1.144099251435558018e-01
1.422052526179203025e-01
4.162768443827220138e-02
1.192187708413491448e-01
9.668666423959168532e-02
1.194748755281080099e-01
1.600805150526042331e-01
1.093089352646988005e-01
9.653946324043338745e-02
1.245841148947497978e-01
9.965092605240388757e-02
1.323958735074409754e-01
1.138361358904906862e-01
1.143292618848855968e-01
1.418891648521462545e-01
1.328920112693940947e-01
1.527376855988402948e-01
1.172941709249788050e-01
1.137111234315812125e-01
2.144753427635193860e-02
9.327100499407411927e-02
1.360372597873506506e-01
8.173470990453993168e-02
1.232821583526616249e-01
1.076134499017910306e-01
1.098748605057242866e-01
8.904866880046330424e-02
1.046599337525860318e-01
1.366142491572556183e-01
2.300422428794153817e-01
2.773927150492482840e-01
2.728039741910294191e-01
3.629382721309974968e-01
4.109511810791984798e-01
4.792023372266318582e-01
5.013646772645945493e-01
6.056602804606657786e-01
6.845426492459207868e-01
8.124067677604118742e-01
8.460081464866803236e-01
9.747496814260758757e-01
1.024958654295508254e+00
1.169606668369420621e+00
1.200274944637322649e+00
1.263305499122609366e+00
1.282539826904579128e+00
1.445890481042205078e+00
1.407180100614159324e+00
1.421660210032728244e+00
1.360324447411996207e+00
1.372196156464151162e+00
1.293488566936469963e+00
1.212820093434587854e+00
1.165020661252746059e+00
1.062459151978773608e+00
9.908379680837831049e-01
8.203431095989429656e-01
8.332999840576823525e-01
7.228600853332380893e-01
6.366153173234353480e-01
5.399010958347153499e-01
4.558391580195260695e-01
3.985114455549518819e-01
3.082313989137501764e-01
2.554466162534435036e-01
2.471251943974359377e-01
1.453397253848949244e-01
1.531928432658455075e-01
1.389322217825080807e-01
1.119365070635397474e-01
1.034809441102754884e-01
4.732490620304047324e-02
1.827171510118249798e-01
6.089966948355082788e-02
6.889274838642236998e-02
7.195030922607832669e-02
1.326373313392698594e-01
1.230467950247029901e-01
1.173855219655420556e-01
8.271395031494199745e-02
1.300062929666175593e-01
1.274790499981354186e-01
1.620549532729924913e-01
1.627587385966051958e-01
1.538876473110646348e-01
1.360575837553189282e-01
1.219201241679672698e-01
1.231007087815498835e-01
1.221798021797955713e-01
1.704268805721559921e-01
2.296412500546280433e-01
2.423173801172133768e-01
1.951140082816226751e-01
2.141117904012610207e-01
1.568603224978404875e-01
1.762389845784698150e-01
1.502306579835094580e-01
2.032742747095061253e-01
2.107014076368773914e-01
1.935217450469551848e-01
1.994216290444880413e-01
2.381720127515366270e-01
2.747190686591129971e-01
2.808659220542775170e-01
2.522224980852516563e-01
2.523654793744545266e-01
2.676163355725824089e-01
2.535038332240655001e-01
2.236720093396246667e-01
2.258779207594796279e-01
2.138116780285825302e-01
1.978134984743928626e-01
2.510036902202855136e-01
2.438392939048867336e-01
2.018923020610232100e-01
2.642000723625546055e-01
2.016480547680682966e-01
1.869841467950631442e-01
1.866004232787137340e-01
2.472515804353957181e-01
2.230335132316972890e-01
1.407380051905603446e-01
2.036630241066823832e-01
1.717776302778791231e-01
1.265796402902635565e-01
2.091035475058588833e-01
1.898745798285607633e-01
2.295674991118646646e-01
1.826505479181957659e-01
2.035951123542957819e-01
2.433092017473653945e-01
1.737472315068872009e-01
1.892486098027013897e-01
1.915079708815632109e-01
1.557428002038073189e-01
1.825419200743992054e-01
1.988715487597978726e-01
1.345589122772418988e-01
1.100612966832118511e-01
1.464046674147578830e-01
1.537849934169093769e-01
1.034141967655190508e-01
8.009361606739671957e-02
9.203799525116314328e-02
1.189221323184181806e-01
8.228429113997118294e-02
5.625188704347764551e-02
8.936813956037252538e-02
1.025396799847458490e-01
1.087393562916547513e-01
1.317102989210249542e-01
8.634907138080652467e-02
1.062859227118859301e-01
5.786520696177658435e-02
4.324343225013677072e-02
6.716758210840678700e-02
4.240791901496986094e-02
1.026820005574497485e-01
6.777048476038709246e-03
1.067958112535461052e-01
1.222667412733184460e-02
6.171815721828207563e-02
6.238545160302939180e-02
4.232861318937226891e-02
5.931040416750411881e-02
3.372089431937543708e-02
5.501707990975573080e-03
-1.926182862594662260e-02
7.651525958304697048e-03
3.730149261170790514e-02
-6.783039263859747675e-05
-7.332882225807224597e-02
3.482319944036405684e-02
3.503192311812075577e-02
1.530347023689036801e-02
-2.944110729783230851e-02
1.943917779480404395e-02
-1.903807316420370876e-02
-1.244004250889021307e-02
7.463681447817583151e-03
-2.281870893375423370e-02
-1.283494216751627712e-02
-8.099053248335600502e-03
4.209735979041591414e-02
4.878636200905167586e-02
9.153169918964853061e-03
5.900712061107574527e-03
1.577757944460187259e-02
3.259476940559905001e-02
-1.353346224839899192e-02
-1.774080557175808023e-02
-1.963595251491387014e-04
2.850532524055764128e-02
1.945219983325732066e-02
1.807167203184270599e-02
1.843231877375409861e-02
7.712634599331057161e-02
2.720157451709886987e-02
1.610712848882846909e-02
3.657758997791067668e-02
-3.599846892974288559e-04
1.565144543941008465e-02
7.119734202000854717e-02
5.408614982377127345e-02
6.695493317893980167e-02
2.975386741404206781e-02
8.181092250504776175e-02
2.438053503573620745e-02
-1.168749473450585163e-02
3.283389749201458263e-02
3.617337815182314342e-02
1.049464413881260466e-01
3.228914958099634441e-02
9.703342093773799359e-02
8.197474637067317382e-02
5.421854466736224232e-02
1.089435543230599102e-01
8.376775770755702510e-02
1.061828658797452085e-01
1.077687871752564669e-01
1.379274671188029100e-01
1.268602900998049843e-01
7.964182383722470671e-02
1.149092276365993592e-01
3.927143850468416131e-02
1.652816530742645951e-01
1.153183410450359103e-01
1.898366182095381771e-01
1.548305832928653925e-01
1.530382289048406175e-01
1.641559154748159777e-01
1.418839509559338685e-01
1.718611549671177630e-01
1.937429493898452648e-01
1.205516525783273396e-01
1.792381733323517856e-01
1.690757436989272222e-01
1.893139748329685235e-01
1.352614557883642654e-01
2.052652826910915107e-01
1.779585013633419033e-01
1.504201309766369232e-01
1.670463805539313951e-01
1.726466346293477894e-01
1.920643588733442764e-01
1.532535952704483784e-01
1.885168883117300798e-01
1.748092087528289040e-01
1.842211352372898903e-01
2.171727840911312490e-01
1.568717937008419494e-01
1.312908311309591847e-01
1.766413707197139749e-01
2.083584061135621002e-01
1.762142510411559282e-01
2.157956906955591503e-01
2.370810220169675131e-01
2.501435218997542509e-01
3.173687032088142179e-01
4.317334015999885755e-01
3.760394481335206929e-01
4.126739699426985042e-01
5.749311257488562976e-01
6.831534660714386753e-01
7.410552774413523558e-01
7.670197392394504377e-01
9.256137426586684702e-01
9.662114805047435917e-01
1.119503074622204553e+00
1.211606125913177401e+00
1.272124347029525371e+00
1.331012723169801681e+00
1.406094821877070578e+00
1.427529819707990866e+00
1.405987910065373381e+00
1.434451281472677975e+00
1.406540624271381601e+00
1.403605103439390600e+00
1.354870160019721048e+00
1.309990297996386666e+00
1.310409594464652550e+00
1.180218393002289368e+00
1.064969800199061734e+00
9.949500058743445674e-01
9.142261833742255650e-01
7.954687716902371086e-01
6.866477363127588829e-01
6.096088149423533054e-01
5.566482908858587653e-01
5.275892624295703826e-01
4.066901895605672945e-01
3.299325155809317289e-01
3.141878049450527177e-01
2.752537062530802103e-01
1.656597419280980421e-01
2.072489955127805317e-01
1.336058245102866027e-01
1.922222753739925571e-01
1.273360378155089512e-01
1.670541303120071097e-01
2.248265930521474165e-01
1.269486281311212883e-01
1.651166428119775209e-01
1.355064229098064399e-01
1.651336257100458338e-01
1.082286626158075193e-01
1.194107829828936207e-01
1.741927000543081749e-01
2.085591108908236291e-01
2.006953821308528896e-01
1.700445295424634073e-01
1.324927617404212110e-01
2.369279662215598159e-01
2.214740901284673602e-01
2.260643084860287644e-01
2.192309208593787584e-01
2.315633438743002481e-01
1.738025512089917957e-01
2.082278577902529348e-01
2.294847223821618043e-01
2.225275869126032702e-01
2.103624099302320583e-01
2.072215218441481044e-01
2.191390299300984834e-01
2.657699109888058131e-01
2.973362604435622059e-01
2.939787585949231175e-01
2.910167339488475280e-01
2.943677749145756084e-01
2.609957039542798451e-01
2.880084023621667377e-01
2.743197980519158086e-01
3.229309206856099679e-01
3.359678783317556761e-01
2.854556796097726390e-01
2.663749657007979943e-01
2.592744324987391047e-01
3.268888601901400182e-01
2.465293599709407757e-01
2.975298405697059390e-01
2.964557157437890389e-01
2.723652050445550810e-01
3.196875372239106339e-01
2.915725528465440974e-01
2.459658683714120997e-01
2.852737459184847002e-01
2.457422977129752606e-01
2.902666853775434097e-01
2.273355353119016764e-01
3.060279667140535231e-01
2.870131742513942763e-01
2.669810287937539051e-01
2.424633406453951256e-01
2.303953023937644895e-01
2.116404882966968770e-01
2.470088802624288149e-01
1.897883588472710770e-01
2.408326899795716625e-01
2.005034138451239623e-01
2.280027506197895570e-01
1.780437175673960926e-01
1.928251117648136226e-01
1.385070498631534031e-01
1.738308854658035529e-01
1.594921256323960645e-01
1.734747109172633805e-01
1.755189795517455853e-01
1.680068668732990766e-01
1.832183971356188268e-01
1.326865006752378229e-01
1.320127441258934775e-01
1.408231515858678340e-01
1.869659768526574783e-01
1.934228260413541345e-01
1.462055185516054623e-01
1.848058994517559062e-01
1.574126183932325063e-01
1.486886803719910388e-01
1.247952466715731012e-01
1.238236696680694998e-01
9.173153562100933023e-02
7.210992347437319983e-02
1.283973454235043110e-01
1.275145237085824057e-01
9.446046376752575968e-02
4.679344581730316560e-02
9.009829937605590144e-02
8.530260213990978335e-02
4.136922725800621509e-02
1.024984346499593080e-01
8.139358088064257979e-02
1.006997696689283517e-01
1.527153500604579162e-01
5.380895249985015449e-02
7.482927858511208286e-02
2.528719293707717974e-02
9.083272524448315899e-02
5.588810827917575774e-02
4.548407449441992101e-02
3.565300118014715774e-02
6.732311116770364756e-02
6.798741683892732535e-02
6.295861376728843772e-02
7.529502908847229836e-02
-9.532009831813161027e-03
3.615981387812890885e-02
1.116180077055753811e-01
6.366323680820411279e-02
2.515280248822503173e-02
3.130354738584369134e-02
8.037579165274646997e-02
4.816212870157032810e-02
6.229402118422797119e-02
1.826498253684117126e-02
9.167957523770974004e-02
1.545529308471414731e-02
5.570304716578075577e-02
5.635258600954710234e-02
6.668395191867183824e-02
5.339032361975924734e-02
1.160267814472736303e-01
6.224722869471831233e-02
6.674824095430123561e-02
4.990665559258125605e-02
5.384852045283822219e-02
5.219729770505163180e-02
5.054990028600973850e-02
7.645734406168211428e-02
5.703066140541655088e-02
4.764924180738802639e-02
7.985256901375566152e-02
7.921925782532712734e-02
6.109780695497094016e-02
3.097151702715073354e-02
5.942651905058517203e-02
8.492118230596003292e-02
4.910705856632784083e-02
1.611485778045058104e-01
7.042835062355728981e-02
1.039226191207131833e-01
1.273826510086351338e-01
1.616090922154912457e-01
1.069836383782925004e-01
7.716326391971137233e-02
1.511305472891280033e-01
1.464783952150860713e-01
1.394469272973829221e-01
1.158391069410933116e-01
1.251151696130991808e-01
1.423924849160905781e-01
1.717017026137231117e-01
1.362955388126189105e-01
1.872366954883014911e-01
1.701036605788583955e-01
1.391825759805090934e-01
1.894082347835258640e-01
1.949252026071444099e-01
1.428228648745803187e-01
1.818359924891111978e-01
1.424363704504108541e-01
2.011147763545287903e-01
1.998538575491289049e-01
2.168796278198127370e-01
1.620165034976142893e-01
2.209667426316944128e-01
2.148749866697352573e-01
2.055428127676784400e-01
2.209423710786920791e-01
2.184122053901693117e-01
1.795913961742312270e-01
1.635869734447102097e-01
2.007203076783056483e-01
1.983713332204925517e-01
1.264140679909617759e-01
1.381950098985600117e-01
1.854147910602982896e-01
1.886165978823882150e-01
1.987686522946388867e-01
1.540520550345036432e-01
2.414058782719394891e-01
2.130323087744127597e-01
2.133123052649836815e-01
2.454976070926777054e-01
2.935817873321705518e-01
3.043287573166311155e-01
3.406200906960826225e-01
3.294886298884325271e-01
3.972715706749355147e-01
5.324695856578209874e-01
5.337443391415060967e-01
6.287293404894477300e-01
6.843025696210789377e-01
7.850431493782057402e-01
9.077386643783931230e-01
1.073990730587992548e+00
1.146641144301824955e+00
1.193101099697440270e+00
1.259276373787967529e+00
1.357360858113253244e+00
1.431215681481246227e+00
1.444628566193451702e+00
1.430955982720450104e+00
1.478820039813711462e+00
1.491793831849537844e+00
1.404025013269184274e+00
1.390561922244184512e+00
1.375529184617994005e+00
1.285001588798435401e+00
1.189714206216303083e+00
1.080184245493103656e+00
9.775696094044060702e-01
9.702102105503089824e-01
8.503843071027149536e-01
7.554837919761631104e-01
6.544227969910090259e-01
5.552459648917077439e-01
4.622449684983782614e-01
4.116473490725380269e-01
3.610857086294700924e-01
3.124038373274025115e-01
2.570385857128333340e-01
2.557937085042680803e-01
2.455921479420465348e-01
1.894937570127320781e-01
1.863088889141338578e-01
2.308609776607206121e-01
1.851783270153089522e-01
1.956813849513554526e-01
1.914306519829551134e-01
2.009913797313997441e-01
1.576059203622571236e-01
1.775383449069382613e-01
1.757871044656821313e-01
1.973084885638477504e-01
1.582835420424241746e-01
2.098514567770612405e-01
1.168478688651079234e-01
1.932156238773599100e-01
1.873061790351521483e-01
1.727414814879772442e-01
2.101961041891199089e-01
1.812342104685009392e-01
2.255176467476604218e-01
1.925529827145423534e-01
1.895099830191770973e-01
2.020690289007736617e-01
2.136712667175736657e-01
2.214918248579254845e-01
2.587026604171696054e-01
2.730292734828276835e-01
2.131755840045380379e-01
2.457405158844437609e-01
2.862092811710386098e-01
2.621045840830715790e-01
3.055083405791588769e-01
2.442682849476073004e-01
3.185791791711379273e-01
3.021503203404635740e-01
2.758054670331267499e-01
2.590213776474495355e-01
3.092339595539576047e-01
2.652114483740677930e-01
2.923605687012189591e-01
3.155543894945125327e-01
2.777886669163416866e-01
3.166229275447054459e-01
2.894387544204856666e-01
3.066521816262307576e-01
2.919486656978063088e-01
3.291521572557824515e-01
3.474506909914488184e-01
3.277476170974826797e-01
3.199440193469209603e-01
2.256748694263855659e-01
2.784426488972698288e-01
2.996406334497402901e-01
2.399436892749740591e-01
3.033519968740799877e-01
2.153566486550903269e-01
2.433168543417068841e-01
2.328895027461694855e-01
2.011958121296021362e-01
2.997667152711926963e-01
2.434868989478849444e-01
2.224929762624825724e-01
2.600254703363402697e-01
2.253391181143504785e-01
1.795865150366633411e-01
2.703533787029550606e-01
2.107623584319733567e-01
1.542999905117278248e-01
1.163828167634000377e-01
2.216782496760087984e-01
2.313865320529418235e-01
2.207085682701012685e-01
1.633865525631639781e-01
1.178306305345722116e-01
1.231270386657067201e-01
7.434308365200573143e-02
1.351601479231334946e-01
1.243465647765225890e-01
1.438263092165818491e-01
1.119936280261432382e-01
1.177747099411750875e-01
1.363679349636712501e-01
1.454278232298762963e-01
1.474072516151341827e-01
6.186138245630975335e-02
9.224265778348679501e-02
1.353870670095613793e-01
1.078425420751306513e-01
5.976193757546045815e-02
1.617535626252973591e-01
6.571956529588286744e-02
6.148783914085713398e-02
8.276474665269253905e-02
7.961149817362331294e-02
1.898487597836780866e-02
7.951917675454570067e-02
8.997453814557715424e-02
8.223928804003480253e-02
7.798835761434858016e-02
4.634051999534184729e-03
5.442360444758700955e-02
1.111893498011608389e-01
6.529568072730350392e-02
6.812246963245621734e-02
1.658550048325839812e-02
4.835466008480895916e-02
4.042063228430987226e-02
6.408297155003170320e-02
6.491679000243302800e-02
2.798225041707277927e-02
5.757021230856838867e-02
5.571494576522637715e-02
4.317686473178567602e-02
8.404895319043578783e-02
4.237371723562475406e-02
3.406952766564906587e-03
4.496759089496910750e-02
4.786244104133782068e-02
4.949432483548876077e-02
7.119820670134510698e-02
3.706112969813962765e-02
9.332234664471389385e-03
-1.077974893458251426e-02
8.392787353376078563e-02
2.331260692831513617e-02
2.903351363445967614e-02
1.318905491664948415e-01
5.156550714088478649e-04
6.275833575787292951e-02
8.829370372205137818e-02
3.174830925066420700e-02
3.618632380294186518e-02
-1.154698913108548330e-02
6.120391692002172257e-02
4.509621593688766666e-02
7.395229321201637895e-02
2.320939367783785359e-02
1.185515355848543867e-01
1.612207812015505753e-02
1.008629372140485564e-01
8.937891173435311143e-02
1.255990464557693032e-01
6.232436155867922267e-02
1.457361540910646902e-01
8.379250091443350701e-02
1.974736302458197229e-02
1.096648018811367670e-01
1.148511592327106368e-01
1.370280808482026713e-01
1.572336675113352733e-01
1.387113116982678362e-01
6.864538209674564406e-02
9.881276713701442338e-02
1.560697387158854477e-01
1.448048126111800560e-01
1.625056170766279728e-01
9.561898142851504856e-02
1.842468933627938177e-01
1.633762147120562946e-01
1.227203508125715714e-01
1.773241152488270744e-01
1.377716872721971297e-01
1.652751484111111002e-01
1.914691050976678743e-01
1.623778895760868701e-01
1.558620596596176078e-01
1.596845957476930034e-01
2.302380336430782382e-01
8.464177360227695401e-02
1.750989492018419358e-01
1.486862725197233281e-01
1.337057017617444832e-01
1.607308648656071148e-01
9.969207391205275881e-02
1.599450098126348196e-01
1.540699778809498932e-01
1.890383475580914296e-01
1.681023004632958284e-01
1.824254861008420547e-01
1.898342352839101355e-01
1.551706101608491539e-01
1.478443975937324961e-01
1.187810389518267062e-01
1.461154251742753929e-01
1.711507138796836969e-01
1.571454663617707359e-01
2.192907861774636979e-01
2.313934256285486157e-01
2.426331174757603293e-01
2.566546489125451358e-01
2.864771717962333319e-01
4.037437505499512080e-01
4.448617407448515193e-01
5.656925571726234558e-01
6.193540565071724568e-01
7.032440905360873851e-01
7.480601178766900228e-01
8.671537419140588066e-01
9.423057098552370947e-01
1.096570300731808834e+00
1.150682721423724297e+00
1.261405732188544571e+00
1.266588071309269647e+00
1.355700657342284066e+00
1.355685360667120865e+00
1.466096225813652065e+00
1.441722835927409241e+00
1.480004877549619069e+00
1.355674607633061246e+00
1.362811789407172069e+00
1.294247839650968235e+00
1.321687735242245809e+00
1.173172857890952603e+00
1.084825153354738836e+00
9.749597417780343500e-01
9.136222014103192457e-01
8.083836270297500848e-01
7.389315585184887958e-01
5.804341469798024455e-01
6.150425705749231753e-01
5.079589747659906118e-01
3.684327714090827599e-01
3.666240185142377594e-01
3.211434021228858349e-01
2.745669405352037518e-01
1.857215498346038440e-01
2.031802488933860118e-01
1.050443114072191209e-01
1.442983995028788435e-01
1.349833281654342076e-01
6.263171369774814257e-02
1.493807955511745333e-01
1.612851926660257285e-01
9.009404322287213607e-02
1.392415423353098591e-01
9.580940882959587679e-02
1.050502809275866700e-01
1.672248208074572917e-01
1.681641679450092408e-01
1.495401991048863066e-01
1.390492292401542540e-01
1.705229221870699641e-01
1.528318155492127406e-01
1.778269306876333611e-01
2.038207291386166242e-01
1.702088641324079055e-01
1.471847580770410946e-01
1.754156683187987342e-01
2.132463797430308450e-01
1.806306827691955830e-01
2.270483641652608353e-01
1.968703608708838870e-01
1.954360396062364280e-01
2.164491631780943171e-01
2.206777882266819091e-01
2.216610543254437515e-01
1.837028918555440316e-01
2.010805378315248249e-01
2.340859749901984810e-01
2.530287312327351157e-01
2.105988641371401571e-01
2.892184648879904119e-01
1.835553568417807868e-01
2.345176901880036968e-01
2.080265859935258310e-01
2.321407805979983918e-01
2.086080951172178399e-01
2.669076956280274637e-01
2.321602185597817225e-01
2.061958937510655621e-01
2.741956252249428405e-01
1.794700580306552995e-01
2.479302699890190975e-01
1.821211350859807121e-01
2.544085184780458531e-01
2.172276583241065651e-01
2.313838207059986385e-01
2.188613848479977475e-01
2.014840579047438296e-01
2.685125940572038461e-01
2.004384346997677424e-01
2.065579289867616464e-01
2.350301431005054342e-01
1.894073937318065115e-01
2.012348723654607541e-01
2.055159884040217710e-01
2.126763907659242614e-01
1.641103137286337166e-01
1.806709299512999911e-01
1.494006838951007499e-01
1.655589099670126685e-01
1.550883566983469186e-01
1.858298843757774377e-01
1.799237883462962151e-01
1.344225162903215642e-01
1.383706815466868301e-01
1.360899088546742297e-01
1.646479276684329751e-01
1.251712266832281095e-01
9.755979496107759774e-02
1.214576691950511461e-01
4.730550833134252592e-02
1.168400504152006802e-01
1.299593231875822152e-01
1.028371332778677261e-01
1.247268243112064079e-01
7.495813110579080396e-02
6.591955323318984816e-02
-7.161259286021057213e-03
3.848230685350222807e-02
6.522842682405817494e-02
4.529583390853801628e-02
4.633339805769308428e-02
-4.379041357419320019e-03
5.094189055482075540e-02
1.353897323542080020e-02
2.858862099294740000e-02
5.056286454226013166e-02
7.633128036774886049e-02
-1.351035931940314239e-02
5.546158081647884625e-02
9.650269585166791272e-03
4.124744369751370821e-02
-9.509983009404556625e-03
-8.987684323406821413e-03
1.111142635499267478e-02
2.184696471715413119e-02
-2.656573696489309550e-02
4.034828794486964437e-02
1.310600004198451962e-02
-1.448002701072745313e-03
5.918040561627459228e-04
6.322775701217316080e-03
-9.355152964325940540e-03
4.946707108026884153e-02
-4.129054211153045106e-02
-2.080305284893771076e-02
-4.715278815935332324e-02
-4.795562576033396418e-02
-5.399998174401557383e-02
-4.564314461303651399e-03
-7.836984648010031362e-02
-8.391652295733106892e-02
-5.132682609317641698e-02
-2.319497834026297556e-02
-7.576627237354832678e-03
-3.902052742412585873e-02
-2.020526367135304369e-02
2.356134022883055526e-02
-2.479708821396765100e-02
-3.068473021014250790e-02
1.301426573020503935e-02
-1.459485723043039626e-02
-4.800804391536399318e-03
-1.393745998833159291e-02
-2.557024459388272317e-02
-6.372770382611336881e-02
1.765791464432020508e-02
2.130711218995548842e-02
3.863565053998462007e-02
-4.005213759511112859e-02
1.475684488328942584e-02
-3.191973167869108230e-02
-2.851234038214031305e-02
-4.093927477276402410e-02
1.489781004584736501e-02
2.716417489775594871e-02
5.489894454234366117e-02
1.957569613857604307e-02
1.395331179542409067e-02
4.887824982546390418e-02
3.830750536093021491e-02
2.788675638079407895e-02
2.850347700280877680e-02
5.805782718583665791e-02
3.476446480772284880e-02
6.050201767878043979e-04
3.572207902005055530e-02
1.205243731575731669e-01
9.939298819694458720e-02
8.834844778372134833e-02
1.533111750428397535e-01
8.788663759156722932e-02
1.014405242971658516e-01
8.593554295014087241e-02
9.703331026293843253e-02
9.731552570997960283e-02
1.480643233154325666e-01
1.172262509105228140e-01
2.065485327309198316e-01
1.069218311396442772e-01
1.208222002561623321e-01
9.741631515679083364e-02
8.452940504262954069e-02
1.061014749381898603e-01
1.357736851551666901e-01
1.195250560378036814e-01
4.298405921119911877e-02
1.496076605337498533e-01
1.583991044475786536e-01
1.161137222845343570e-01
1.019675608779680720e-01
4.990569791583922277e-02
1.118622014973146839e-01
8.487002395891410367e-02
5.587665124277287065e-02
1.383365217960580151e-01
1.480216044901823402e-01
7.970642199587410492e-02
9.160847247056350118e-02
1.184664982537537992e-01
1.584009231554166508e-01
1.341726298417753316e-01
1.643069658181645354e-01
1.948848348903149397e-01
2.096803059966936278e-01
2.209265483396715413e-01
2.212520911490868658e-01
3.076497433203945753e-01
3.878736739912909681e-01
4.810114748663428252e-01
4.892417863909253595e-01
6.247673405168584493e-01
6.919709563502288718e-01
7.666285969552174562e-01
8.818547926624759059e-01
9.766683718844424433e-01
1.069338879196661596e+00
1.118760381709771767e+00
1.221129183606099788e+00
1.359517105914004320e+00
1.361640983245757219e+00
1.344749494770988818e+00
1.412743762152368632e+00
