1.367816066015673959e+00
1.387327751726143088e+00
1.333661497819003561e+00
1.280391522241117519e+00
1.156867372379045689e+00
1.189153763014850318e+00
1.046120208048278322e+00
9.707171017276007285e-01
8.331176800819501960e-01
8.065797081195948959e-01
7.871441137101604646e-01
6.168055738975075641e-01
5.125567963924937409e-01
4.539064365546567337e-01
4.235404050860139824e-01
3.516975830400076997e-01
2.572215898103475951e-01
2.554993290038246045e-01
2.294360999253005351e-01
1.851977504033672783e-01
1.052928120817965552e-01
1.292487888237147942e-01
8.719032522016068043e-02
8.581014046480051061e-02
5.436360191419441212e-02
2.785754773220665281e-02
5.405193054115631224e-02
2.718705719255139902e-02
4.220298287529391373e-02
6.864092779987478188e-02
6.311963762325331628e-02
4.678841007929046558e-02
4.466153924887812654e-02
9.742894266870864850e-02
1.154334420511437531e-01
9.742121835561122489e-02
1.013126726626680657e-01
7.907781603306790474e-02
8.935495259810599666e-02
1.356638844024012081e-01
9.147577251654875896e-02
1.293113762820743418e-01
1.199956461058162699e-01
1.144745676965494008e-01
1.337266714058038264e-01
1.985180825709919328e-01
1.670442471837000342e-01
2.335168598127668194e-01
1.654123390114228265e-01
1.846783128235284510e-01
1.113320833330057325e-01
1.602562084918867646e-01
1.578341715284086733e-01
1.668179593186620291e-01
2.180588398260089600e-01
2.002103206399308555e-01
1.509849629321859399e-01
1.617155254359759486e-01
2.026523100246133136e-01
1.990444531261809091e-01
2.355334709305500762e-01
1.553262126955422540e-01
2.259013686013019717e-01
2.257096572898593945e-01
1.759206713284768853e-01
1.905886729147526770e-01
2.304641274447785104e-01
1.242111244744798365e-01
2.103035919422305000e-01
2.189888010696103837e-01
1.934614079048103674e-01
1.922412959228023410e-01
1.395243349844526859e-01
1.306540735677445275e-01
1.738932826686774014e-01
2.104409269219414402e-01
1.621731124884000785e-01
1.753285411657588000e-01
1.206062281103243011e-01
1.507190381155935066e-01
1.098791190120131378e-01
1.838971108181363390e-01
1.116695445801949432e-01
1.243222719329979686e-01
1.287621940394603204e-01
1.158352060678049245e-01
1.104667693373162785e-01
1.149957545230423511e-01
9.664043987084328102e-02
1.352040517586002577e-01
1.287056731829221423e-01
3.511328532174005229e-02
7.287471485181945541e-02
9.649778570175068793e-02
5.525566517397322019e-02
1.130786212496489029e-01
4.546952108914420476e-02
4.061497631031099620e-04
2.663568473881268439e-02
3.790777485207481867e-02
3.131437135285013856e-02
-1.328896560489445378e-02
-7.698040851547141572e-03
6.554845130344842674e-03
-7.603408118049000131e-03
7.047666612905931216e-02
1.554068557833269276e-02
6.232700986436578994e-02
3.501609139358567713e-02
2.600087539742751419e-02
-2.841271764487699261e-02
7.051135536502446677e-03
5.023674195087388106e-02
1.350112823434888865e-02
-8.470375936960289343e-03
1.126983164547304406e-02
-6.546764260704235339e-02
-4.625581044936814823e-02
2.284280704827722219e-02
1.778927106808777386e-02
-3.828524312214320185e-02
-9.006145330037174102e-02
-8.601447856720886853e-02
-1.750678241960195586e-02
-4.651623579323702767e-02
-6.626910062814457547e-02
-1.321883795013272661e-02
-5.036544126690360723e-02
-8.337370544477458456e-02
-3.679125315727323209e-02
-2.514582573018788597e-02
-8.690427891208321598e-02
-8.019573922658025655e-02
-7.544498018882302148e-02
-3.345007444027459087e-02
-1.705567606017928395e-02
-7.724489878271074972e-02
-6.570560199151367908e-02
-9.253867895498033014e-02
-4.106081122541001271e-02
-6.730833276047396008e-02
-4.192306114144460361e-02
-5.561947544250692849e-02
-4.546759518418826140e-02
-1.099969510583698601e-01
-5.412471114699219515e-02
-4.165200470052773246e-02
-1.081151906953786435e-01
-1.411194916092504970e-02
-2.071581963218019351e-02
-1.898896408453439391e-02
-4.995275104158262286e-02
-2.611060963162929738e-02
5.732322583563716212e-03
-8.735829585679058540e-02
-1.490115834984032800e-02
-4.438397790376066854e-02
-1.077648200103570597e-01
-4.255343308258665441e-02
-2.735821821269059442e-02
-2.142488892340625728e-02
-2.989115269801852909e-02
-2.035322195531691705e-02
-3.675234266032707114e-02
-8.072052912452123974e-02
-4.901068878444784366e-02
-2.240479737664094820e-02
-4.918672603831652362e-02
-5.065952007196287965e-02
-8.889177976889980903e-02
-2.918626854346575983e-02
-1.394407048877034649e-02
-2.823001610100810826e-02
-2.700491079399191391e-02
-3.948841872003088643e-02
-1.863150643397384898e-03
3.757070408115573135e-02
-3.791430289656903124e-02
7.584468936909179171e-03
-4.771222776237822594e-02
-3.410989818682284153e-02
-5.341930053430521408e-02
1.386915079613080387e-02
-1.329637860263577914e-02
-4.618983515835795722e-02
3.400164569024822364e-02
-3.563758693257490506e-02
2.976374854097266209e-02
2.108211334541166410e-02
-5.157419966048008841e-02
2.216337102988853724e-02
1.554029065322970471e-02
-1.517020713481185418e-02
5.896915741507984671e-02
4.168926774878547320e-02
5.810981764245954501e-02
3.333126815828776901e-02
7.793102556899289546e-02
4.333921114719354456e-02
1.091461453836715112e-01
8.689924039178070769e-02
5.724402470491865569e-02
1.058650190053304352e-01
8.940990605282939097e-02
1.112438363433250338e-01
5.592015826344524931e-02
3.341192902840820628e-02
9.988619721956104591e-02
7.484195806966949249e-02
1.203644766697294088e-01
1.264121504635256632e-01
7.277194922969595914e-02
1.512476177459723958e-01
1.090965636077709522e-01
8.695827867873884287e-02
1.302992293872840268e-01
1.229691126522856892e-01
8.977966033145201585e-02
5.425120426255576611e-02
5.571981116739813111e-02
8.961879239987505241e-02
1.146397583400464437e-01
2.705975721570141185e-02
9.193543118102488754e-02
8.763942633260626836e-02
1.295421967466575397e-01
3.236135732140515281e-02
1.268351711233349777e-01
1.102128048147348049e-01
1.626666041921480121e-01
2.660909303917985969e-01
2.667889154350571168e-01
2.630648238953271489e-01
2.538887417559994586e-01
3.419077039570194154e-01
4.624809065614717274e-01
4.873361245812260489e-01
5.422845032867198434e-01
6.640200348518487949e-01
7.455520744993021642e-01
8.841177327733698021e-01
9.062868730208306634e-01
9.995103730262780983e-01
1.124223048323179874e+00
1.193395432862410344e+00
1.251120114443028175e+00
1.302794765031360935e+00
1.399571658304368249e+00
1.326157784082872215e+00
1.342121585181045740e+00
1.379963714402055341e+00
1.285091965936365321e+00
1.287726586302676557e+00
1.202378143421291457e+00
1.067156329326823583e+00
1.013043223741679322e+00
9.475838794068074389e-01
8.015346971066666937e-01
7.626772073168273103e-01
6.428053612346622536e-01
5.530402678874707378e-01
6.515960840086361117e-01
4.673039684782133163e-01
3.898200219230341101e-01
2.520486124582244081e-01
2.059017795800963946e-01
2.248708619173826195e-01
9.304895809808458318e-02
1.119365073415964085e-01
9.011688282386592919e-02
8.662136613008940278e-02
1.222191528696494334e-01
1.252224060509201375e-01
9.371795560764406563e-02
3.361209460975186913e-02
3.724806632885314939e-02
1.083684148257617330e-01
9.705462372255008185e-02
1.115802403303541024e-01
4.907632431212433782e-02
7.281723789346256082e-02
1.288735707161492439e-01
1.231821919099124474e-01
1.289146494574213708e-01
1.234989469214106961e-01
9.133397533611789521e-02
1.386252919478632717e-01
1.310453862513640544e-01
1.134419994110185959e-01
1.173505724627981750e-01
1.480931126445936830e-01
1.466772821497209778e-01
1.426875361086683835e-01
1.591454693319188096e-01
1.478107686701702894e-01
1.822343272304053352e-01
1.852718642931855397e-01
1.920617128911730753e-01
1.294224057880751788e-01
1.591432836337436929e-01
1.644601667842992831e-01
1.495859491266832153e-01
2.430117040643926807e-01
2.087269775132997995e-01
1.842039475243024971e-01
1.876520286886184663e-01
1.620986480060869761e-01
1.555734393217806377e-01
2.258830411904390878e-01
2.887147587723253861e-01
2.391121730619703567e-01
2.167835333578181090e-01
1.911706682488348574e-01
2.086850352005660270e-01
1.510768402449570447e-01
2.086515967572720176e-01
2.024630604122134026e-01
1.645915274579028420e-01
1.558883161966456710e-01
2.193083311911472322e-01
1.577496800733338145e-01
2.599084241618701552e-01
1.491231689600132915e-01
2.176936334098623360e-01
1.325125865536472825e-01
1.977058113173261189e-01
1.609080189148493767e-01
1.668542028352043294e-01
1.797507283585852711e-01
1.399665938234692097e-01
1.870423091877646549e-01
1.717215504178721819e-01
1.219730236366430853e-01
1.061854388124073567e-01
1.371450260999221293e-01
1.463356189323498369e-01
1.039904662094085913e-01
1.248621503705032165e-01
1.401901724046526743e-01
1.248409946768322537e-01
9.201230553400585599e-02
1.407481276837186379e-01
7.483169977698936326e-02
2.566269550672579600e-02
2.651264840875943926e-02
6.727855565841302232e-02
5.907074478192524125e-02
5.844194627326762537e-02
4.689922980015821807e-02
4.488342482988055826e-02
2.253829684991058221e-02
6.921356430112861335e-02
4.000871200211049417e-02
7.180776377740547001e-02
4.613166666684451883e-02
1.701470483138544862e-02
2.203516846911608706e-02
3.371642378159307729e-02
-1.050853392952648055e-02
2.827832587188547006e-02
3.502058185256054501e-02
-5.823721898245386858e-02
-1.759548742802065011e-02
3.061826909574077299e-02
1.897047560819123402e-02
-1.747343368478676551e-03
5.353753974418937189e-03
-5.323217085975093243e-04
3.911082827288915598e-02
-4.168425731554269154e-02
2.707260494490296154e-02
5.342107646404858912e-03
3.293917365769482436e-02
1.284820703462833530e-02
5.081118557351538972e-03
-1.132733613896434038e-02
-1.309412252376587066e-02
3.900470213454794444e-02
-5.521218159205137227e-02
-3.694831969747386369e-02
1.538886068399473311e-02
5.002906720861441392e-03
4.701934684019205141e-02
-3.160907067904000778e-02
-1.178571102210161647e-02
2.325171560764822606e-02
-7.286810404178549472e-04
2.313251873043676091e-02
-3.444470260298765352e-02
2.035672438041192384e-03
-6.119413987090759066e-02
2.664329535231022700e-02
-6.395788286642195564e-03
2.860914414036363346e-03
-2.922175667840714100e-02
-3.889179625204059951e-03
2.430886480826845858e-02
-4.593643393284588261e-02
3.545245200279661946e-02
-1.170888183830213342e-03
-3.496268091638766312e-02
-3.164055471992477386e-02
2.813744323437450401e-03
-2.913489359208606272e-02
1.510818206830269114e-02
-4.408649003384433954e-03
3.509410831909785811e-02
4.097606314465974259e-03
2.066600359122914080e-02
-5.315693164408089380e-03
-5.078391926907750709e-02
-1.152679518292069535e-02
-5.305805580204048244e-02
-7.179891351602294032e-03
6.690082817007192775e-03
-2.612346456456722879e-02
-2.914129099742228390e-02
3.486870317809326325e-02
-5.277284628361601782e-02
4.409081182407390692e-02
2.194719460659306370e-02
-4.620549224851275977e-02
-7.236907125610779479e-02
-2.493528100685215784e-02
-1.210861569264813815e-02
8.995001239891557004e-03
3.380261026109808616e-03
3.772931308779547965e-02
-5.050519019354019097e-03
2.269190582815549043e-02
1.776466899140679082e-02
3.106272129918868918e-02
5.027206354494171553e-02
4.284807811211006207e-02
6.747188523429059615e-02
6.988364264896892997e-02
1.156268337020865261e-02
7.354462613888280986e-02
4.524798810439746577e-02
8.375909595755741399e-02
8.884517341934695944e-02
5.688411907542145068e-02
9.078426723127341891e-02
9.023547359370817644e-02
1.179589900004315850e-01
1.161899160913745371e-01
1.286289311663003920e-01
1.243175086138075119e-01
6.187347249107445074e-02
1.444633298729304793e-01
1.349731011430675698e-01
2.029163612516864390e-01
1.560190969094328306e-01
1.667657752923633330e-01
1.697931776026777029e-01
1.494428376338028386e-01
1.244904180867354437e-01
1.561809128282075354e-01
1.632656596639082691e-01
1.398797269552376488e-01
8.511558182568799980e-02
1.238682723618371589e-01
1.447714609990664036e-01
2.168769401720942736e-01
1.351153341335995517e-01
2.248768226133388282e-01
1.477733384812714990e-01
1.367467874644655024e-01
1.326999800577720323e-01
1.637130802243722538e-01
1.223469166851293005e-01
1.405702926042293188e-01
1.103995079424335141e-01
1.098670052833540661e-01
1.743649753858906859e-01
1.096276459485875793e-01
1.585854938718730678e-01
2.081586578891548855e-01
2.023866039440712639e-01
2.339223821954638793e-01
3.246333573765234903e-01
3.555139306136141375e-01
4.189888994582284254e-01
4.152832992413000301e-01
5.301980958553080825e-01
5.835296192973333795e-01
6.142044714819551166e-01
7.312352827582851988e-01
9.126708679499389021e-01
9.174466185931097195e-01
1.059915871276375876e+00
1.126211773290331619e+00
1.156333267770264683e+00
1.317186887409482754e+00
1.337837482863055927e+00
1.360320169107281263e+00
1.438783243588026561e+00
1.363090461735321668e+00
1.391144454785773865e+00
1.408277713629422667e+00
1.358477644509534787e+00
1.309050470920859244e+00
1.235810271741527799e+00
1.141762838694419635e+00
1.024193298075143588e+00
9.400655539049602716e-01
8.901927564415528238e-01
7.506941776600449812e-01
6.411799794064194646e-01
6.386869068904847957e-01
6.258143405110612179e-01
4.428422237048025845e-01
3.580605672314977617e-01
3.847746892690998011e-01
2.729091050334307988e-01
2.442017943955841208e-01
1.476951272271627980e-01
1.378662554976143595e-01
1.752961931897376313e-01
1.359396414775410622e-01
1.102742998782272055e-01
1.479364979251829304e-01
1.222834691166704846e-01
1.222707613348256311e-01
1.570296400761208300e-01
1.256403567941871136e-01
1.043563532765956481e-01
1.635239060748452933e-01
1.436029547092818048e-01
1.273614866623882791e-01
1.750839647302537827e-01
1.201753217265886520e-01
1.531604776011317726e-01
1.585907403413556183e-01
2.269570449361343889e-01
2.239219906277215844e-01
1.754653235965869251e-01
2.322216713089275408e-01
1.955512903587358076e-01
2.246388879519925774e-01
1.938875659806492124e-01
2.563563134693269130e-01
2.722892904071423925e-01
2.176997241615277190e-01
2.527905154770567764e-01
2.975947489773068666e-01
2.833215950493009339e-01
2.411975342325782257e-01
2.150490998812321364e-01
2.964867019606596821e-01
2.321555793570189985e-01
2.461050547487303175e-01
2.624784645071051581e-01
2.394250435273232447e-01
3.250882145175975069e-01
2.667025957094718569e-01
2.496336611944873773e-01
3.150201359289017677e-01
2.698024540429199147e-01
2.538693740995634496e-01
2.608581732530043662e-01
2.815726320566685481e-01
3.045033701321219755e-01
3.386696127978656712e-01
3.105641263451558998e-01
2.794451157621046788e-01
3.062073286259484606e-01
2.972880445127947246e-01
2.685678799419476959e-01
2.401610586527885838e-01
2.498522047837607452e-01
2.627765985294999718e-01
2.644020637999862644e-01
2.637192835467729868e-01
1.701923302716343844e-01
2.449211364551214243e-01
2.702481257868094011e-01
2.604673005162298494e-01
1.845802798082301077e-01
2.355996532801638010e-01
2.280569064258767542e-01
2.070726056636480461e-01
2.066574194176425128e-01
2.227501712615683749e-01
1.420148191632343293e-01
2.021640885250911845e-01
1.834277143222608486e-01
1.966006481076313928e-01
1.614682559079195501e-01
1.554415278383567967e-01
1.532634316405181441e-01
1.248853263468079761e-01
1.370532677387480414e-01
1.460587493662153236e-01
1.457148888789500940e-01
8.598288859873570722e-02
8.393449596947283320e-02
1.362148107697943034e-01
1.052297916643500503e-01
1.315669816074773457e-01
8.605081138854366041e-02
1.642833446461724189e-01
1.243117826093949607e-01
1.359063872622443825e-01
8.890452099176437972e-02
8.456292566409102929e-02
1.173147409987781442e-01
5.592666237705608279e-02
8.969945533314530040e-02
9.823958244413205643e-02
3.071397978806595513e-02
6.549839354200809316e-02
7.162240522934301690e-02
9.404027048308427617e-02
3.069767372155264226e-02
5.074266960330051091e-02
7.013365113234426573e-02
9.366894553756617559e-02
8.846172820896129607e-02
8.514960586613909421e-02
7.898172127280225774e-02
4.094274111530502719e-02
1.451408449334190554e-02
2.705741988085003102e-02
6.868870975354729458e-02
3.077614179817847462e-04
1.037175364970563951e-01
-7.211748377439097801e-03
1.311446796040361545e-02
4.641774798385091272e-02
3.057637576797593570e-02
2.406016812305335900e-02
2.346416858182076570e-02
5.289091880811112867e-02
7.992396189989087185e-02
1.328961925290485582e-02
3.584366367845047419e-02
2.213700463928593154e-02
-8.733446461168907493e-03
3.262963740830689130e-03
1.424412829441628128e-02
5.849285046890181916e-02
-1.580829772912538400e-03
7.387039144184591455e-02
6.791373505414542711e-02
2.321370899299257315e-02
7.520828164466994425e-02
1.270317440789187069e-02
4.535847097611842710e-02
4.825091730551289010e-02
1.124087394225099512e-01
5.173123805401855235e-02
3.802785114392009946e-02
4.888940418357901746e-02
4.539283301963089462e-02
7.676964824847909430e-02
1.958791322065258841e-02
9.408933250966292072e-02
-1.112829071540255566e-03
7.969526955786043754e-02
9.431961434239849451e-02
-9.281659450038157178e-03
8.133778284550566284e-02
4.330245119502228873e-02
4.227787467082980838e-02
5.702839485914125428e-02
4.754374291635864169e-02
8.751114094613647587e-03
6.768816877087917294e-02
5.681764139226647137e-02
8.344869382269962110e-02
7.361044533144101010e-02
6.396316165469320691e-02
7.253669075721028148e-02
5.194748061120126048e-02
1.458045745270125093e-01
3.627250322430235902e-02
7.182011207736364866e-02
1.032642605351249132e-01
9.711682794480727687e-02
4.580396559841173887e-02
5.341516172086141490e-02
6.801754476690585749e-02
5.530580121408748551e-02
8.486737462552577937e-02
1.420576369275653728e-01
1.202050816488207247e-01
1.805916060751225072e-01
9.655691583229417119e-02
8.796143761249944348e-02
1.234249745767374007e-01
1.028913469231386713e-01
1.492504585386168481e-01
1.845548691967715538e-01
1.522351699075222276e-01
1.303387381894968722e-01
1.473756732629422084e-01
1.459952722376256784e-01
2.132508939609697451e-01
1.848290410805140949e-01
2.205645243819531198e-01
1.418562267944449284e-01
2.652787716557213904e-01
2.254676714846716723e-01
2.261534151370499235e-01
1.950048170648378543e-01
2.267121984991341543e-01
1.567662212658785248e-01
2.085294915720938835e-01
2.023486734811862919e-01
1.755762522432224859e-01
1.918531100366697162e-01
1.797011213368727434e-01
1.429698814433326692e-01
1.520076109559595212e-01
1.342518976665637576e-01
2.012622145767964388e-01
2.308836895357459784e-01
2.309900637928981593e-01
1.693749266530138464e-01
1.755707933815987276e-01
1.568970119422494203e-01
1.951730158317469543e-01
2.378423487952489590e-01
2.472204763896653223e-01
2.213584732331757010e-01
2.781599186167281190e-01
2.457751770431870764e-01
2.832813819876143779e-01
3.615695468936883650e-01
3.733896211426996903e-01
3.742918224742824429e-01
5.427693570274645385e-01
5.836037494324729513e-01
6.868983559850913023e-01
6.942259692920053071e-01
8.498110443987249019e-01
9.466963896257819533e-01
1.045028088177529568e+00
1.077770520367493434e+00
1.148161032636995760e+00
1.266129885568371360e+00
1.318914148723995039e+00
1.437891564027394820e+00
1.381132159485361832e+00
1.447119993196234189e+00
1.471058635447881624e+00
1.457029429746566018e+00
1.357683438913962259e+00
1.324474868209922995e+00
1.309745806773926935e+00
1.201800593420114582e+00
1.173787988796817894e+00
1.111722133373543864e+00
9.452552808403656970e-01
8.424712505366912518e-01
8.131968713966479800e-01
7.198671733570429776e-01
5.887852312692311019e-01
5.035600647556901510e-01
4.251549159802383571e-01
4.791094449729401128e-01
3.899550204113763074e-01
3.065887281263001141e-01
2.659594719812694574e-01
2.490837460990532604e-01
1.906727588669160367e-01
1.299987450485402263e-01
1.572182364589633785e-01
1.532115494501746777e-01
1.568430206569416396e-01
1.510921950715471695e-01
1.710678406537793350e-01
1.354567820410986778e-01
1.847575260072437942e-01
1.149083171154627325e-01
1.698065476624573411e-01
1.785003013991674770e-01
2.254441426146555905e-01
2.121152205596094353e-01
1.466741447918759045e-01
1.751953519567757411e-01
2.184338124272295900e-01
1.694555296269291411e-01
2.511953331634280140e-01
1.649722695235021352e-01
2.693745944632768841e-01
2.581258491529274668e-01
2.312281821419716332e-01
2.591397936341090502e-01
2.404418482462084838e-01
2.347430057907349821e-01
2.719596677004716412e-01
2.563375074858630920e-01
2.674024280681515098e-01
2.408505638474309207e-01
2.013542151397930968e-01
2.657829308152404590e-01
2.769492410352092926e-01
2.531024749318309119e-01
3.470405662442909711e-01
2.906244439837519788e-01
2.915063273412578093e-01
3.069621244347268130e-01
3.103674042245230802e-01
3.170863616767977677e-01
3.036794905532183009e-01
3.158875899478044147e-01
3.569833171009363371e-01
3.269974100151772367e-01
3.399666429984829485e-01
2.699640450293532279e-01
2.518803093347202204e-01
3.277795629166950775e-01
3.241950131191438933e-01
2.802385014921082718e-01
2.957222218951509607e-01
2.421691177366165071e-01
2.987104014210535397e-01
2.707646982669658642e-01
3.081966185302803529e-01
2.586746767031822825e-01
2.479674896024215147e-01
2.579240148144526512e-01
2.383660361942959716e-01
2.716777976820047291e-01
2.517428575047750416e-01
2.479849811919890845e-01
2.232528889189313859e-01
2.728309392482426987e-01
2.302829333944925172e-01
2.247001470130703948e-01
2.033998096833177227e-01
2.228362250790837107e-01
2.070272660100924700e-01
1.843915319619683912e-01
1.664235026922638028e-01
1.593825296049001805e-01
2.064394293164195926e-01
1.729086088316252601e-01
1.793771941347512555e-01
1.922626991196910717e-01
1.057102919816224618e-01
1.813484942613334816e-01
1.139141158887617411e-01
2.166617582871712688e-01
1.067017886784968894e-01
1.285263721528607517e-01
1.183719167911093384e-01
8.560892163297253998e-02
1.933518365060955535e-01
9.696823908839888317e-02
4.948198142320226617e-02
9.908676196714527595e-02
7.703467046873122004e-02
1.066307496510918301e-01
6.575463724942610944e-02
1.279287441059925312e-01
1.242631912305590669e-01
8.788366935759701903e-02
1.692318883273421504e-01
4.403004952835972569e-02
3.397157799875208384e-02
7.443638477505146178e-02
7.064861188771255629e-02
7.705208506657898471e-02
9.306011398846786298e-02
8.936999003857100388e-02
5.710642666436990811e-02
1.268728533041388676e-02
3.272471638763406465e-02
-5.176486286997294961e-03
1.018812179509883953e-01
6.063584434723101602e-03
5.755554709076314557e-02
5.602388119112140102e-02
4.585065895423943994e-02
6.326405478343716249e-02
1.485038299147316970e-02
3.562770798736611400e-03
8.151314838647345795e-02
1.286627598178717580e-02
5.608336882783480914e-02
3.831757814929419304e-02
5.792051407277368918e-02
4.455777748607613747e-02
5.587999299601884712e-02
5.543908455920567441e-02
1.667272342020303943e-02
5.935512830426561970e-02
7.173876969985894247e-02
3.259262031946447147e-02
5.117435894164204524e-02
2.145332961323007104e-02
6.259855366098486529e-02
4.141114704893861936e-02
3.941815285483220993e-02
-2.608199481106732165e-02
5.140322937121080682e-02
6.009286334569872295e-02
8.300221330635507155e-02
-5.795478075485395453e-03
-2.162995914450366319e-02
6.373027203637499083e-02
8.392771395220134656e-02
5.362547293853867775e-02
5.067540724044215794e-03
-2.158314076624083533e-03
2.626342688632772593e-02
9.488008143410386896e-02
3.690108467797703629e-02
8.640390112158639890e-02
-8.888215718012758282e-03
7.200542673004818595e-02
2.986785265595926983e-02
8.035506164659275696e-02
6.295991474936045440e-02
3.994703242323344172e-02
8.480528455134055121e-02
8.108064991680161149e-02
6.151277332036054341e-02
6.045493441234769949e-02
3.367311386426098674e-02
2.618520596847345727e-02
4.478906259048380523e-02
2.615957655785642114e-02
7.244850540685532359e-02
9.836817833722036331e-02
4.398822957116568788e-02
8.225027483133331985e-02
6.838177861691627224e-02
7.992522371956424510e-02
8.369836126069193916e-02
1.106586118057106133e-01
3.251278254917959465e-02
1.161970428105542907e-01
7.528606593032546868e-02
9.410592551685910412e-02
7.283296332199909462e-02
1.113577324781368783e-01
1.778064994823405631e-01
1.024929381299203301e-01
9.302432654379053090e-02
1.581343398981088222e-01
1.603049541078157003e-01
1.739248504809613460e-01
1.763240599667792174e-01
1.724702632335052277e-01
1.775150911225241435e-01
1.378762889885125631e-01
1.281916094102004688e-01
1.466699450309487673e-01
1.265808933434126038e-01
1.540839858863694012e-01
1.545767151175498066e-01
2.396875840612725794e-01
2.098291917155243047e-01
1.652859561897854768e-01
2.349240704142737113e-01
1.615146433198726694e-01
1.496520167931540135e-01
2.326244475944059253e-01
2.290419896335874617e-01
2.031969458281542296e-01
1.853930875022036240e-01
1.919508421256773678e-01
1.685609282439859413e-01
2.065099506622951053e-01
2.275457202074240848e-01
2.066339104667627158e-01
2.027565180420463908e-01
1.255977495985473869e-01
2.086697957827494398e-01
1.736802099841743829e-01
1.675619012971481248e-01
2.241548722994443354e-01
2.312978130783176767e-01
3.176896132227748915e-01
3.882687743027000704e-01
3.701727794119427095e-01
4.530623211141316942e-01
4.658725739542698974e-01
6.151639567025077859e-01
7.149682398213803580e-01
7.367905470904944076e-01
8.498177395197906714e-01
9.109409489942910110e-01
1.005365395041967647e+00
1.120336000996480674e+00
1.171096435394283652e+00
1.276571794447932451e+00
1.339725656459734182e+00
1.360693246180100902e+00
1.452080527749525896e+00
1.430986580596854907e+00
1.437890655818370389e+00
1.489604096782630949e+00
1.393213132120838749e+00
1.360656898474365217e+00
1.218196052830130771e+00
1.108338993630417546e+00
1.034108808535559865e+00
1.006652662303552992e+00
8.864516185918852598e-01
8.125273708888226531e-01
6.600235699676616496e-01
6.410186276114041570e-01
5.073235579363396530e-01
4.462573160425549745e-01
4.132175665814558085e-01
3.233316252449421890e-01
2.945804808880704839e-01
2.231878900902988239e-01
2.420440766998891713e-01
2.294720339420965038e-01
1.831626853892929507e-01
1.884120173941903342e-01
4.523025672031210503e-02
1.434713493287785302e-01
1.297267083436702828e-01
1.322924365959989024e-01
1.547817621177199621e-01
1.137274015336567773e-01
1.548804834531155583e-01
7.585407618185049938e-02
1.604190558052744908e-01
1.539292892421545988e-01
1.723767099208726172e-01
1.474974677929718203e-01
1.187822142428075906e-01
2.081303167594074355e-01
1.508818395498720821e-01
2.020308992794569714e-01
1.680469613004546836e-01
1.698173263028368851e-01
2.614770748781234944e-01
2.146376986184949376e-01
1.977702154941840262e-01
2.492229377386421529e-01
1.801082989199262463e-01
2.359569296896974755e-01
2.290234914418509682e-01
2.515705967731403092e-01
1.903661162349147284e-01
2.602985090863255691e-01
2.090303516065408485e-01
2.515714288926441666e-01
1.784323811416259065e-01
2.555789316027426428e-01
3.069759361697121935e-01
2.233177022703143610e-01
2.777640277930564783e-01
2.582547091683102813e-01
2.535626027272594452e-01
2.860175327827984559e-01
2.333188677180006165e-01
2.587478039972826993e-01
2.557136283587758130e-01
2.462577755571374594e-01
2.517305337617334882e-01
2.300818771114074013e-01
2.194117114588381712e-01
2.668130959949092662e-01
2.516206959934750853e-01
2.264692619213560798e-01
2.693476599557010909e-01
2.204106266439439243e-01
2.215466874452527990e-01
2.492955940137318860e-01
2.188224970302403982e-01
2.656076137076229249e-01
2.582832838904972061e-01
2.351009806470288899e-01
2.624261419081915792e-01
2.378065605823684592e-01
2.218822150685160477e-01
2.281454268465159252e-01
2.207292532984434785e-01
2.458864305093784175e-01
1.701703903120491690e-01
1.674006399373405285e-01
1.664844454091608805e-01
1.890937983479497042e-01
1.166459658064979699e-01
1.454307303440321442e-01
1.630801943240733909e-01
9.371921257197901589e-02
1.127119201869009740e-01
1.082008480516717941e-01
1.265718676810251575e-01
1.360889035837949124e-01
4.691642486067206658e-02
1.127012103594028647e-01
7.463707871534920602e-02
1.381969787326767576e-02
1.445403078494861965e-02
4.454101135637394265e-02
5.165951549531584003e-02
9.872401621635609748e-02
5.982235652529867276e-02
6.024036025434916647e-02
3.223908979506917571e-02
5.985656649527417578e-02
8.836445336029707942e-02
1.844374215293258928e-02
6.899695009569829784e-02
5.478708325410035218e-02
1.049116440061659550e-01
-5.702268828248805398e-03
4.844628317844772852e-02
-3.092143330032329912e-04
3.823290721478287552e-02
3.829682624021440995e-02
4.023755132000945284e-03
3.232438190803436917e-02
2.443266613698261147e-02
2.282789384633673868e-02
-1.512958721639592018e-02
2.355706200286909052e-02
-3.593593126676470489e-03
-1.320200327009695904e-02
-3.632177152693504690e-02
-4.833620769505876658e-02
-4.218840339697695757e-02
-1.628566093149928784e-02
-6.953065919754272683e-02
-2.557974593355743370e-02
5.893830904621123745e-02
1.264940057418068378e-02
3.430256503937813284e-02
-5.902862335676931083e-02
1.751217671498613015e-04
-9.750654586820792571e-03
-4.818154110390238803e-02
-2.421208723819260472e-02
1.865309107138718794e-02
-4.241243722641948460e-02
1.967071615799084738e-02
-5.194673394480392448e-02
1.310932352949624631e-02
-5.942609146504661266e-02
-1.344420388257517793e-02
-4.704242499083907680e-02
-9.119976518528757903e-02
-2.027295097708638888e-02
2.708046278765676232e-02
1.206152686605675359e-02
-2.638502823856275770e-02
-3.788896354133354516e-02
-1.221126619959795462e-02
-1.378655206786758708e-02
1.466493026624324236e-02
-3.566491121210046966e-02
1.943889445334376007e-02
-8.462104099578811323e-02
2.281708675533809794e-02
-7.692537131842627773e-02
2.934416649257674120e-03
2.934171390319349065e-03
-7.718906729362356306e-03
-1.708213257718693701e-03
-8.720696316334071788e-03
-5.742494314304862416e-03
-4.137578485142085621e-02
2.779654973269954366e-02
3.218502791333581470e-02
-1.580760534607399473e-02
2.037309161588059941e-03
1.984887134907032183e-02
2.892400799045779028e-02
1.120648328857901110e-03
-1.237176759052169631e-02
-4.199001580563935243e-02
-2.954859156217914951e-02
5.093551164557374999e-02
1.145102735587464615e-01
6.580629899814371964e-02
2.173709519628284209e-03
1.208412040212047608e-02
-1.094031322148068808e-02
-4.024294500606408198e-02
7.962737638837495691e-02
5.621895486176084478e-02
3.362206937700407822e-02
-2.051338770452763860e-04
4.442723217971654426e-02
5.319117693612995801e-02
3.138622993083702017e-02
8.935884423691650702e-02
1.155191236597009619e-01
5.534073273597592268e-02
8.991474597271592595e-02
1.075099775792947993e-01
3.288392782868986008e-02
4.634468152957724185e-02
1.366675554539922011e-01
9.126969421149122574e-02
1.378738019162409345e-01
1.459203748572621140e-01
1.256348432143578331e-01
9.797016699345520441e-02
1.420873212292610155e-01
1.843043714610992645e-01
1.646725023053557113e-01
1.040979363847702455e-01
7.471814702908451122e-02
1.444860499957726641e-01
1.465230604728733343e-01
9.537282288004977904e-02
1.461804400336764453e-01
1.014523732273196477e-01
9.383642980591111460e-02
1.205668078790493314e-01
7.658026175889418030e-02
9.856010140433021927e-02
9.410918425218628425e-02
1.213926109070388171e-01
8.764254179803113165e-02
8.486505151333695318e-02
8.240203734895355792e-02
1.511186134773103706e-01
9.730357102628392485e-02
1.644900216885461508e-01
1.624370236815908253e-01
1.882988161654836623e-01
1.938390994798893652e-01
2.499214140020876440e-01
2.821288663742538838e-01
3.939781712603555586e-01
4.185344603101981420e-01
4.843588984980636281e-01
5.732409864217079543e-01
6.751245582683970126e-01
7.440803620460383350e-01
8.341775737998303741e-01
9.195145518191772949e-01
1.023594826337815622e+00
1.048069355824688076e+00
1.162041901817746137e+00
1.234355499406475598e+00
1.282553999512420662e+00
1.325289116461423777e+00
1.402714895816942198e+00
1.374274128439115783e+00
1.316672472239586167e+00
1.282311083696997756e+00
1.311544595441964445e+00
1.194524440304564061e+00
1.141673721076127634e+00
1.052627349191626926e+00
9.878299838302512237e-01
8.685996344030135763e-01
7.914734405762623437e-01
6.920972788922362673e-01
6.471556182968879467e-01
5.203584124580239445e-01
4.590732110909643282e-01
3.335689727593851295e-01
3.048671102243827313e-01
2.708330116957933242e-01
1.903883042193916242e-01
1.183526317860241206e-01
1.394756294870637681e-01
1.596521500384009973e-01
1.135313928580887755e-01
7.454690482307163579e-02
4.196686526116168159e-02
5.494045891057053321e-02
9.463558983337941322e-02
9.330227693664169819e-02
7.019640907527296969e-02
4.401551305766440020e-02
5.892645304712802734e-02
6.749319643004507430e-02
3.985479631620062607e-02
9.233149574340820953e-02
8.331371899574974149e-02
1.586519971697121778e-01
1.084059517983588794e-01
9.019802901375223447e-02
1.363440083435544237e-01
1.255802993719509486e-01
7.284231565956161836e-02
1.471054909076208173e-01
1.369564266342962466e-01
1.349434291528961716e-01
1.373864420801654551e-01
1.746574300771707167e-01
1.564927080877117627e-01
1.844353647266250562e-01
1.831687431071810368e-01
1.946950917853400020e-01
1.943302411917314787e-01
1.752502410974453306e-01
1.800384530642140934e-01
1.974951844706659132e-01
1.365248635288615620e-01
2.238055954746466236e-01
2.081647772807858621e-01
2.327338174683663274e-01
1.885320939647291416e-01
1.735878122696980774e-01
1.897095444313703083e-01
2.045730432881642247e-01
2.011762701418121080e-01
2.030191978658015539e-01
1.936518770985509452e-01
1.754060850547729533e-01
2.067334171848993207e-01
2.053806792699304773e-01
2.172420765369287299e-01
2.195750548039095418e-01
2.166627021529742847e-01
1.905219778601124625e-01
1.814842289349468396e-01
2.352205653216029035e-01
1.627010274520420130e-01
2.359152102605228674e-01
1.977809235561354129e-01
2.015130745002942647e-01
2.055057880455310182e-01
1.814039622970725629e-01
1.699139666922392378e-01
1.630499819340112122e-01
1.180801278078310590e-01
1.635080877533316990e-01
1.104845810240645265e-01
1.052667137924991198e-01
1.291192097611652545e-01
8.819563522644027764e-02
8.545964613637815899e-02
1.604905975929101503e-01
1.455497312496833173e-01
8.909656855965703004e-02
8.733036169164429263e-02
1.070355298184020587e-01
1.640271257022478668e-01
8.161025113244499418e-02
4.042014558093344478e-02
4.158165380071326273e-02
7.590882147726485396e-02
5.942034601067155974e-02
7.058356848817542994e-02
-6.971418022527764435e-06
7.628956818131199524e-02
2.966772027629463460e-02
3.278776589053081225e-02
8.473767217568255183e-03
4.176469544656342958e-03
-1.817597834289887831e-02
3.713951472860798492e-02
2.235591506000174367e-03
-3.698468411123183308e-02
-1.845419783489749346e-02
-6.318003144251593817e-02
-5.871134983278052805e-02
-1.367328701152904780e-02
-2.332956778264734521e-03
5.718991316537926778e-02
-4.413956456101472692e-02
1.478050911175955023e-02
-1.188067356019701509e-02
-1.684849124980160318e-02
-4.576753624939777776e-02
-3.235168394204851472e-02
-1.754971151083389858e-02
-4.933587964756851185e-02
1.446497095984643905e-02
-6.695862281892642209e-02
-2.805783481969033322e-02
-3.631603807808379825e-02
-1.633551063218882660e-02
-2.400236537899878841e-02
-4.936481659315127002e-02
-5.837740201819963115e-02
-5.579518299512126189e-02
-7.101856403371561988e-02
-7.116209691579764018e-02
-5.244556506649296346e-02
-4.639575749863214527e-02
-2.363733308707886491e-02
-2.599405456016488231e-02
-5.878568210173736042e-02
-6.298582388320726755e-03
-1.396817544674185813e-02
-8.056516941302858947e-02
-8.522052675727068149e-02
-5.170583214709474629e-02
-8.405981300615342211e-02
-6.039109349019182449e-02
-5.507172140284127132e-02
-3.843601019550135778e-02
-6.542863784945297800e-02
-6.602304913850612356e-02
-3.841778710299264404e-02
-3.400900676904874964e-02
-6.441302894770600806e-02
-4.869472759198036765e-02
-6.756720847620878434e-02
-4.366416883351039585e-02
-6.438964008469785782e-02
-6.287013127020601999e-02
-7.034451754899420650e-02
-5.829014906748920810e-02
-7.924218687490847124e-02
-8.573919202305294029e-02
-1.568109681392423210e-02
-3.018072852282600513e-02
-4.680578904494748366e-02
-9.067235482495383803e-02
-5.694341727090517641e-02
-6.451112229682795518e-04
-5.230025669222630041e-02
-1.094924550516352957e-01
-3.444518245544662960e-02
-2.289827898256453081e-02
-3.267637734720374443e-02
-2.678638084269733405e-02
-6.561802825617343848e-03
-1.362795750675844381e-02
-5.064892984809988424e-02
-1.023407498897497270e-01
-2.310506826514936718e-03
-5.151319174004305446e-02
-6.696487851476791431e-02
1.503829664118413317e-02
-9.553505558014971366e-03
1.168153892883563860e-03
1.591749326608261211e-02
-2.629448117227034531e-02
-1.797197280919616419e-02
7.753192394071917182e-02
4.170235357222720762e-02
2.457421892321264706e-02
1.229065105166626815e-03
-4.077992327912796644e-04
9.144299028546293284e-02
5.869672838687297473e-02
3.678769441115304489e-02
1.274922367218985497e-01
6.526179542924837040e-02
4.775339735987561146e-02
2.767666826891351795e-02
6.674760345078158130e-02
7.075233319654700148e-02
3.814894971576324179e-02
1.426047091052689009e-01
9.300789464263584105e-02
7.380380227026341056e-02
1.398034267577542289e-01
1.113641096465896041e-01
8.149226618230380470e-02
6.922660438359608259e-02
1.132941613861436492e-01
8.431096274820584768e-02
1.258333040804183456e-01
5.640355257815690693e-02
8.161086342237761082e-02
1.279525057657143472e-01
4.988319867625928133e-02
8.352503391231110019e-02
1.214091960145880361e-01
1.147052306509680347e-01
1.072393724580172347e-01
1.144337759314770220e-01
1.426782624322820714e-01
4.106543545044717691e-02
5.548191132213282223e-02
9.043195528566583263e-02
1.098554809094035162e-01
1.292621424151008669e-01
1.117797042366876492e-01
1.943779204367065416e-01
1.996823807076381352e-01
2.791781346254919027e-01
2.929469281980211504e-01
3.296247677900797646e-01
3.361463840142407955e-01
3.983473226665357192e-01
4.952909903647383372e-01
5.528640754627559550e-01
6.090418885387069992e-01
7.481679926352686749e-01
9.279991301588093044e-01
9.733495973062977757e-01
9.926349711659270270e-01
1.120323402550620351e+00
1.185219679336927179e+00
1.223851567673318375e+00
1.307898333620977738e+00
1.303126514778931933e+00
1.318966292300434384e+00
1.328252136481794299e+00
1.278174898382350655e+00
1.295688332584593372e+00
1.246040394533367790e+00
1.150147997634128227e+00
1.130183594249158929e+00
9.984712818717560445e-01
9.236749537656080422e-01
8.110990660858172774e-01
7.613491493724261483e-01
6.433957076052786439e-01
5.933361036749456030e-01
5.106487026967324594e-01
4.251414529431972733e-01
3.665103289140897447e-01
3.273565839430737645e-01
2.596576369499505321e-01
1.970103186004529272e-01
1.713919229158979984e-01
1.498557076386910214e-01
9.255031107680491975e-02
7.807156012082969165e-02
1.062871199662495381e-01
1.000321194448863804e-01
1.292021908795549512e-01
7.009249109720463999e-02
8.848966266766478128e-02
6.925681466727404145e-02
1.440346139353187727e-01
1.308343002675943501e-01
4.100120932273309399e-02
1.143737194638567989e-01
4.357997375191832029e-02
1.742347979566579996e-01
9.468939259677994214e-02
9.642893654386697211e-02
1.846433906498494426e-02
1.106297430584818053e-01
9.868903151221904146e-02
1.127945077340488517e-01
1.486848714589276976e-01
1.634755344494722706e-01
1.371395963491606196e-01
1.541383604908883598e-01
1.698226937079230503e-01
1.563210832087677526e-01
1.320952472141988521e-01
2.234206987977458980e-01
1.419264808735964944e-01
1.988985229006614841e-01
2.183966725725283720e-01
2.402924807143046182e-01
1.831139595073326964e-01
1.922098948049376088e-01
2.190610077893082042e-01
2.106922561191464094e-01
2.213087341767092930e-01
2.447589104224472401e-01
2.227826178065962504e-01
1.867840556130745400e-01
2.869223233199824641e-01
2.113601960399668633e-01
2.214808928015390421e-01
1.966511894281249007e-01
1.487291273271427461e-01
1.557932145322867834e-01
2.113439743572045337e-01
1.623227087095839016e-01
1.553091291053473322e-01
2.138095142440082363e-01
2.107362644610727698e-01
1.927521433105658655e-01
2.284199091755934885e-01
1.788868393825867043e-01
2.005888119409331982e-01
2.117123429534135681e-01
1.577459785284566485e-01
1.659038072570409583e-01
1.673829156342152846e-01
1.674268879159252765e-01
1.402675571734618432e-01
2.422985544487320231e-01
2.098586588114972062e-01
1.600555599338944202e-01
1.135945396708083199e-01
2.094483369041411358e-01
1.636420540491596021e-01
1.613405120449085128e-01
1.193957533821638356e-01
1.356550370623187673e-01
1.433326933109320134e-01
5.884935015456795038e-02
1.056133733172300027e-01
1.000763601587386920e-01
1.108517412467286412e-01
1.088127353087045557e-01
7.337556436505511537e-02
4.055067297408940230e-02
-4.723520714688334704e-03
7.274832696800474785e-02
6.242486327487938025e-02
2.897257384847327921e-02
3.595005208907336991e-02
1.049043255850043155e-01
8.382322877041856884e-03
-1.930676454457475044e-02
4.294417384869585186e-02
9.326256049840841306e-03
5.659775021550242369e-02
2.527362365949237938e-02
-4.563932170517996656e-02
1.194588063693928157e-02
6.306458716606455628e-04
3.993871795560446913e-02
1.578888523628848087e-02
2.033185963035361379e-02
7.084508507754498641e-02
4.378060516218898468e-02
-2.565100618541474309e-02
-2.752540438169209444e-02
-2.784412507003860421e-02
-2.064470307696458437e-02
-4.634919019324723610e-02
-1.008221851690370777e-02
-3.029381699195867264e-02
-8.709642970733772957e-03
6.962428819599724567e-03
-5.120106894645974627e-03
-4.699276423290719984e-02
-1.840560667283821367e-02
-8.088490628331716781e-03
-2.439537104141176194e-02
-2.573676574047396165e-02
-4.534122649179599118e-02
1.198749348745517529e-03
-4.629511351268256886e-03
-3.192723578778659810e-02
1.766886382784966028e-02
-8.033168153030104119e-02
-6.615091471238665477e-02
5.221590123566319241e-02
8.711764459608382916e-03
-2.685262755876261995e-02
-9.546296264641155466e-03
-3.924110802337964221e-02
2.902944572503228515e-02
1.504130416543605908e-02
-4.161754639652842647e-02
-1.318576611554242092e-02
-1.163052867378698910e-02
-2.815674774031100280e-03
-4.805738671220405323e-02
-1.930047380224568510e-02
-3.988835580275437720e-02
2.366838805104360538e-02
9.846795912348303009e-03
-5.466858461814854547e-02
-4.702476448981426915e-02
-4.117715010619230065e-02
-1.098448572478460256e-02
1.610652753168487911e-02
1.100386651066259484e-02
2.778457153817666045e-02
1.419002696708805342e-02
-1.431229689710421596e-02
1.680950503014986414e-02
-6.505342213387285688e-02
-2.698126478633962669e-02
-6.903297224599938553e-02
-2.934706624786193041e-02
-4.591045771863983688e-02
5.601037832200768049e-03
-4.088524374800563826e-02
6.770278871188301420e-03
5.535109106959141059e-03
2.094054042201799748e-02
1.288527077846899314e-02
1.350759959880496776e-02
-2.727182942177688169e-02
1.210438953450731631e-01
1.444447839736027854e-02
6.258406607387774490e-02
4.885139361353487558e-02
2.936075606280902361e-02
1.809289868214575270e-02
4.184641947592444844e-02
5.895829433203812753e-02
4.950922642575610738e-04
7.647291250240012550e-02
4.180319456371715814e-02
1.127354416605930582e-01
1.133124041223966261e-01
6.322348403549706009e-02
4.546932683111024748e-02
4.280923478970923013e-02
1.028629871683709035e-01
1.008099143439210033e-01
1.624763442183903284e-01
8.668551666364851527e-02
8.867071551617296266e-02
9.079402253133407596e-02
1.401723198914729129e-01
9.947317508571035249e-02
1.474144625266861075e-01
1.306697025470215379e-01
1.074295027547254033e-01
1.709627932834586195e-01
1.797629714397658007e-01
1.435462052504408448e-01
1.752210225863762294e-01
1.853755852201818266e-01
1.870418377438730906e-01
1.400368606397701665e-01
1.877055297889790864e-01
1.503216466315139554e-01
1.264924209889510820e-01
1.722256256759897575e-01
1.289939642452376523e-01
1.500594436342876370e-01
1.623315347467607916e-01
1.385303000864435974e-01
1.115169228113475908e-01
1.489313506693761280e-01
1.066765227098422641e-01
1.101199484999843548e-01
1.817546199443470234e-01
1.362487854195106318e-01
2.307641402044309231e-01
1.888822547835218579e-01
2.361499678382625034e-01
2.031933848388703112e-01
2.323150006166591619e-01
3.958217102946911536e-01
4.287208858453612215e-01
4.956210346317649895e-01
5.015495281007406048e-01
5.999735986172073376e-01
6.760411557507833846e-01
7.636238123876365469e-01
8.914176287795831932e-01
9.772603994851828402e-01
1.042697692095547302e+00
1.091842087619546708e+00
1.238825015888064707e+00
1.227131051796823469e+00
1.309412661631617514e+00
1.352726316688125596e+00
1.367757088949289823e+00
1.429032579705186601e+00
1.385327115790779162e+00
1.362697426546361168e+00
1.302928793836613863e+00
1.282948059991338763e+00
1.216258161816049066e+00
1.123092575931059267e+00
1.044786695257193587e+00
9.665466240408062681e-01
8.686062455457362885e-01
7.849620689843326282e-01
6.360969032433078096e-01
5.746870272377608835e-01
5.178024835168115736e-01
4.176836654850339947e-01
3.616536489288193490e-01
2.685851478034079198e-01
3.367652521257701315e-01
2.461569729292740760e-01
1.977292229925849132e-01
2.193243133800041877e-01
1.976836281206293400e-01
1.486275478657897997e-01
1.554835146957097847e-01
1.176755998658535335e-01
1.567988931588401025e-01
1.211023115537707695e-01
1.091011972120712048e-01
1.284285431998018756e-01
9.512257589000019942e-02
1.436496087267441768e-01
1.298249833326368674e-01
1.436086330022804947e-01
1.498769003090632268e-01
1.628826129148745194e-01
1.544755800522867595e-01
1.636383137413229827e-01
1.742371275735592751e-01
1.925194895824982044e-01
1.964990906287130412e-01
2.050083211824811347e-01
1.525157951361647279e-01
1.700582362035983341e-01
2.468023805970926965e-01
2.094151744443231433e-01
2.433223661978397845e-01
2.187984139299439523e-01
2.048447966533812614e-01
1.705285713167077610e-01
1.816148183738268695e-01
3.085894235702087984e-01
2.947346498929747649e-01
2.829407628035868205e-01
2.968076320051546424e-01
2.571992759604287970e-01
2.334033654331858776e-01
2.764370695620125273e-01
2.681444799876407381e-01
2.471635727036259889e-01
2.613517139368456976e-01
2.437853511586370592e-01
2.954576246866426059e-01
3.216694208347781192e-01
2.560341089586982144e-01
2.908628228817164985e-01
2.567535036178829055e-01
3.207315181399088000e-01
3.056846838203832739e-01
2.599163618569371170e-01
2.666171179244989364e-01
2.580512360374343506e-01
3.134750802659626023e-01
2.467140317404275252e-01
2.860595154994957090e-01
2.927421233573207493e-01
2.402272821584456597e-01
2.774416309882958842e-01
2.114047799780895409e-01
2.625124697409988994e-01
2.484525884766794479e-01
2.129600681607000112e-01
2.321341211610322142e-01
1.854762139808082411e-01
2.420638311541465637e-01
1.746516149111835003e-01
2.334174413286004279e-01
2.451189291439633822e-01
1.588729324908526308e-01
2.195681336748833701e-01
1.661955467582218182e-01
1.821846245118443064e-01
1.911094593061825053e-01
1.087444127798067872e-01
9.748315373855204191e-02
1.221812002249330620e-01
1.931088651474524021e-01
1.259950485730416958e-01
1.640885097526901537e-01
1.303856000177378294e-01
1.156217985987309238e-01
1.605574163048573699e-01
1.139722519900556730e-01
1.166181558413964675e-01
6.337291652253997098e-02
1.292794812124431203e-01
8.357922258708980201e-02
9.395011521636889573e-02
1.130120272882142451e-01
7.498206884715399867e-02
7.584568105870037602e-02
6.589407235721822520e-02
7.157705206502089357e-02
8.136094563731395557e-02
4.770225457155258253e-02
1.156228757684256148e-01
9.706356819503911271e-02
6.264963670733381118e-02
3.474714846164643489e-02
5.092425600947082104e-02
7.470157586727689536e-02
1.174787626665365348e-01
7.458279736248560332e-02
1.417008413722012014e-02
4.494697760009668669e-02
2.928768130069605430e-02
3.979098709199227479e-02
3.766116474691346555e-02
2.636154315513495466e-02
7.194881954434664828e-02
-2.104118046351995119e-02
6.485911900429727761e-02
7.531570770210607724e-02
1.093147939630872631e-02
5.071470701289267080e-02
4.312789944179842849e-02
4.397134660127567651e-03
8.257173040806073394e-02
9.874729583363731078e-02
6.565160057940511162e-02
8.205146881750318560e-03
6.993621495306728830e-02
3.799312099653793379e-02
2.029445027033905183e-02
8.090445340320573386e-02
3.450227554479739361e-02
1.645299011364292213e-02
4.242783756318110194e-02
2.730571609369755043e-02
4.986735981108783577e-04
5.196175890894666471e-02
6.266352449332461549e-02
2.554826346752594318e-02
5.461165254251908879e-02
6.525393319959518768e-02
4.856491509505574122e-03
6.775252599836539824e-02
1.757436237798596160e-02
6.641188806311779103e-02
4.208120400304257713e-02
6.944891181095891319e-02
-1.184511593863091239e-02
6.251885961709502393e-02
7.074189406335902597e-02
5.465543251919671719e-02
1.255689647569458445e-01
3.281873415035698599e-02
6.237610462719599125e-02
8.532960557573698868e-02
9.670856584142818735e-02
4.099031194784982790e-02
6.930920253018807431e-02
6.197805248481165485e-02
1.161666924254429328e-02
4.160562517080727829e-02
4.087424680616615069e-02
5.084443565888630001e-02
1.099532142392968120e-01
2.896053555729027895e-02
6.755890683156193233e-02
5.865914921528231352e-02
1.041224337363548386e-01
6.793426300524582628e-02
7.910409829100978341e-02
8.404983722033251836e-02
6.238608433125800157e-02
4.924499875623297024e-02
1.172820832886366654e-01
8.416495145408373069e-02
1.153313833600799199e-01
1.218733308052767084e-01
1.647589026568849202e-01
1.495716983300339753e-01
1.264713325875980177e-01
1.479745077157779143e-01
1.066863809681611042e-01
1.443675746269180715e-01
1.229211259968101405e-01
1.889874178976503338e-01
1.419782590005064515e-01
1.801119620478724981e-01
1.590189868572834675e-01
1.761910276517508755e-01
2.198410776487806917e-01
1.630631703884812822e-01
1.970033019595434642e-01
1.843051483545768976e-01
1.959806021080875149e-01
1.900961568137922719e-01
2.036503977697732282e-01
2.565137482039869798e-01
1.589418747508214436e-01
1.795534807123270460e-01
1.908844419552631899e-01
2.278090606280855357e-01
1.963076833385863085e-01
1.722083945436523877e-01
2.573851933100761435e-01
1.443911742010924870e-01
1.667772942981210760e-01
2.505955186542278557e-01
1.419022072863664330e-01
1.662813310623388052e-01
2.345966345087389660e-01
1.551023886836758736e-01
1.361314560581319832e-01
1.901994936781857271e-01
1.882198699186816704e-01
2.296257535217371415e-01
2.253843334109030261e-01
2.071107374852410310e-01
2.742137042856174212e-01
3.009516213384255123e-01
3.469788750334427685e-01
4.426840640184574460e-01
4.438370837677851899e-01
5.171755533295102625e-01
5.900347685199804904e-01
6.768467833125952904e-01
7.954047777579800194e-01
8.307904351716071112e-01
9.291653754307205304e-01
1.009896386341114116e+00
1.118228119524704578e+00
1.177856611691769029e+00
1.209259506761988234e+00
1.289296476721518481e+00
1.378802930533441717e+00
1.437973136528337914e+00
1.471504015179259328e+00
1.393061687481153665e+00
1.493080293394436486e+00
1.429123420617806728e+00
1.341070285384920346e+00
1.293649286470588633e+00
1.155734661104134586e+00
1.145392203482048732e+00
1.034773173835895399e+00
9.329014912038701146e-01
8.492673602263010046e-01
7.356308258478585493e-01
6.504000989118426945e-01
6.047879201014627615e-01
5.102138882711151346e-01
4.366380464848280685e-01
3.889833095295772702e-01
3.610315372160148861e-01
2.930392830915291569e-01
2.291944079986896754e-01
2.037982268628629468e-01
1.902229421207253801e-01
1.342182140860771200e-01
1.753981165205480974e-01
1.143382730629064481e-01
1.305156366964242420e-01
1.601518774857552951e-01
1.745532953427068601e-01
1.218580145329253156e-01
1.754618264154492180e-01
1.017237502052135700e-01
1.969964049453628019e-01
1.538286842535739329e-01
1.622458212639446007e-01
1.532350568933598389e-01
2.221836444980156144e-01
1.923436204903384572e-01
1.967439559531292959e-01
1.434130668249494200e-01
1.637303256668042328e-01
1.401969915558120283e-01
2.738951484111888934e-01
2.228010393014032142e-01
2.061480847209206935e-01
2.118528144323654772e-01
2.923895903549427189e-01
3.347883220382692482e-01
2.808497058673126157e-01
2.651571538293314156e-01
2.666813847708372487e-01
2.762532275052708708e-01
3.586957581528593120e-01
2.777134348664068719e-01
2.856570344543655215e-01
2.827665466013562501e-01
3.017328316315054937e-01
2.762421965765515797e-01
3.216818366336316459e-01
2.768019664978762506e-01
2.335030117506697867e-01
2.611089694291727215e-01
2.481978474500358134e-01
2.914584873244694951e-01
3.253928590074703364e-01
2.863024387702992057e-01
3.131204779885266021e-01
2.767663236851548580e-01
2.986313306121375355e-01
3.002303366036793153e-01
2.946229374295177839e-01
2.897597976680293952e-01
3.206321755699623743e-01
2.392686407912219537e-01
2.798839249996480927e-01
2.729713234327395543e-01
3.219257245625759545e-01
2.471022573981380421e-01
3.181938671033532895e-01
2.716441449802775576e-01
2.549405334464043271e-01
2.880760167580712627e-01
2.504367212709867063e-01
2.359750333587509186e-01
1.982600924661641895e-01
1.977976097952541257e-01
2.649490591769358971e-01
2.617473468018591265e-01
1.713734660967714818e-01
2.441674076259168769e-01
2.316825352705644825e-01
2.050138224571644019e-01
1.891888819149528944e-01
1.416933455120238938e-01
2.031503794086211567e-01
1.706151203098672242e-01
1.537907871324233899e-01
1.043240023100803493e-01
1.449216332366889959e-01
1.557461975882580285e-01
1.628018816895845933e-01
1.704456639970814424e-01
1.412257836806952715e-01
1.210660911686259888e-01
1.198624489019336631e-01
8.422727658370926518e-02
9.474989071685990805e-02
8.554072355094549662e-02
1.130127567927984578e-01
1.416623907136167204e-01
1.128579543924498052e-01
5.237580717214701531e-02
7.194936630747722495e-02
6.099990669361740614e-02
8.623166631330358989e-02
1.263613560269665759e-01
1.143872108896567541e-01
6.511629218921514972e-02
1.301973854721565349e-01
6.532142504404644945e-02
4.739534676667669921e-03
5.303383710157394404e-02
7.378473256045685325e-02
2.664058554843581547e-02
8.554388496027269528e-02
1.110775837383773390e-02
1.905134163611343912e-02
5.295358908692613525e-02
4.679167853684664674e-02
1.053580449270260233e-01
8.630970063440565609e-02
8.948770761876570501e-03
3.806431727875628224e-02
1.961893597602804018e-02
9.141111327242668061e-02
1.081673061641662548e-01
4.760184362300159955e-02
6.252039595030889352e-02
9.041418817709943878e-02
1.162395122183683127e-01
5.019037083590903447e-02
6.974986474047042972e-02
6.265511519389607709e-02
9.159897042234230180e-02
2.211544633267300414e-02
7.652156173733135058e-02
5.273073674522438942e-02
1.946979229880377305e-02
7.532694165806373687e-02
4.750174625999433603e-02
8.869036915523981213e-02
2.940533610640116979e-02
5.937837874014880585e-02
-6.399606814500219398e-03
5.660888215819355473e-02
2.293209229289852255e-02
4.113636631451629555e-02
7.147589461678048595e-02
3.328965897017971409e-02
-1.116338350474425922e-02
3.863074197348921601e-02
2.647831429671777120e-02
4.488757121146314671e-02
7.267311237759718767e-02
5.172462736462975913e-02
2.177828194897021841e-02
3.550707241784739621e-02
-6.101257297772132160e-03
3.055504432816915500e-02
1.176175606429154252e-01
7.832835727660217295e-02
3.109979318987191738e-02
6.368433609131797513e-02
7.319232867249672592e-02
1.255020245040748550e-02
2.504636519366926217e-02
2.083573707358950602e-02
5.260805444261583419e-02
6.380611756169585203e-02
6.146939175005534245e-02
4.443260896336663490e-02
2.408483676039838844e-02
7.078610118011713359e-02
2.862336784137534118e-02
3.619363007451804892e-02
4.033647185503676236e-02
5.174345664020336966e-02
4.905202374720912806e-02
1.003966814537504137e-01
8.201888871711060514e-02
1.173886455320385380e-01
1.022387543129132936e-01
9.712407848381247877e-02
1.530224629002382986e-01
8.312790354024973682e-02
1.141254471292243999e-01
9.490235730464491315e-02
1.419575927926262360e-01
1.161515197525804233e-01
1.831796655994725187e-01
1.139822058856865550e-01
1.522344737120081004e-01
1.372878317028169148e-01
1.694388340472922638e-01
1.944999042162066649e-01
1.874941719087880043e-01
1.869558449096479225e-01
1.337376929756527444e-01
1.074629361475930023e-01
1.512046063445899868e-01
1.946675582007825478e-01
1.644128463925836336e-01
1.694868363493310937e-01
2.227936464504536584e-01
1.896533401521460216e-01
1.510816587222606477e-01
1.770327719881825967e-01
1.707583595620737471e-01
2.207753444014008970e-01
1.327601180152502280e-01
2.134513917083305234e-01
1.886882727107283830e-01
1.382190889888578467e-01
1.610119837993279623e-01
1.959055355307705304e-01
1.420021630000401491e-01
1.418980832989838459e-01
1.963239176382513551e-01
1.386645753378691892e-01
2.160060588943211735e-01
2.243852472758773309e-01
2.051985848261310141e-01
3.016388825522228756e-01
3.146902761141326388e-01
4.019818640430722900e-01
3.729392774057394000e-01
4.104473266509257590e-01
4.917433143566073972e-01
6.087972414205146121e-01
7.005944222168338786e-01
7.961600764082902293e-01
8.889306816687018165e-01
9.760349286549525605e-01
1.014783317026365150e+00
1.206976471264755491e+00
1.210640715195215655e+00
1.267582092773640756e+00
1.377459355179936562e+00
1.327798983405290345e+00
1.483675338361296392e+00
1.404229581697592266e+00
1.437329486692336511e+00
1.400821336862044797e+00
1.387340009790978268e+00
1.292873092571269922e+00
1.239717967760143535e+00
1.149113206803540566e+00
1.069491717012084342e+00
1.020902284372750213e+00
9.072310768124504099e-01
8.282981676089780088e-01
7.149490480562280537e-01
6.314393909459870002e-01
5.141906748421665174e-01
5.321519546680829604e-01
3.785171448225907453e-01
3.056872054593926524e-01
3.011927127773593171e-01
2.499121702445219195e-01
2.507983220568661964e-01
2.047838374874646483e-01
2.062088069827335279e-01
1.706118931518181558e-01
1.378120475722482419e-01
9.993992922583276595e-02
1.040370440998646950e-01
9.679033775242529281e-02
1.107109951088756650e-01
1.409133123891415096e-01
5.072613694817707658e-02
1.239198256957071836e-01
1.777193521362846196e-01
1.337661452678930440e-01
2.434227417990756925e-01
1.506131677450611994e-01
1.518909274459497583e-01
1.600767493247264028e-01
1.386605175149078217e-01
1.295732335684622316e-01
2.095245961260676359e-01
1.926347079525390638e-01
2.039818848494212855e-01
2.039788739610348678e-01
1.485293287510550952e-01
2.073044744191144262e-01
2.757065527996119814e-01
1.955653313845298891e-01
2.339062112217344114e-01
2.332008354601575739e-01
1.919349345685059383e-01
2.739537661254951573e-01
2.081619764410120865e-01
2.274775214803037571e-01
2.623262109567928158e-01
2.511850377658066957e-01
2.467948967384386572e-01
3.020135450550482381e-01
3.079920840738387677e-01
2.313242973159201077e-01
2.440309663035690468e-01
2.755552770530100837e-01
2.644915742283863169e-01
2.327605526262426783e-01
2.894493564809610953e-01
2.775567404760394541e-01
2.353791438133613911e-01
2.647226221033319171e-01
2.325749448662962071e-01
2.331684465205533241e-01
3.066068462484731194e-01
2.014497883980148896e-01
2.382635906932317749e-01
2.850694175885756243e-01
2.608363242354966305e-01
2.487539212995580895e-01
1.999595547331019518e-01
1.936402047277163418e-01
2.091185504689910823e-01
2.499468134077215964e-01
2.174618358761020165e-01
1.560959497795652573e-01
1.789898531631108902e-01
1.755461893830178310e-01
1.785140375605195062e-01
1.252596901274027064e-01
1.630941289431009911e-01
1.616082236818615903e-01
1.731656186341502257e-01
1.220306497917704180e-01
1.762253653233533668e-01
1.546380368442919762e-01
1.716225256926924014e-01
1.449461943937604969e-01
1.286580815196251282e-01
8.761411673970537217e-02
7.426331608801917117e-02
1.012228749418541546e-01
1.393804118226168454e-01
9.104897136183620621e-02
1.471271683939438246e-01
6.250980665377446621e-02
5.829909250782869257e-02
9.050958697560014532e-02
6.985301315470365813e-02
6.294422808928215596e-02
4.737821441868952932e-02
4.662679326953826642e-02
4.550423658333676430e-02
9.898651559134255540e-02
9.094772852250231077e-02
6.723496981776312664e-02
8.565384413915551332e-02
1.826304798820210448e-03
9.329539738510223001e-02
6.821372682489289241e-02
-8.351890280593011334e-03
7.634273401015115312e-02
5.752261086445353139e-02
4.427034739326824592e-02
-3.229491271628390225e-02
2.136597156786739643e-02
2.219422926287355907e-02
1.388328513452384561e-02
4.392356769073605532e-02
9.480609025357899025e-03
-1.495373847514412831e-02
1.623662467659593711e-02
-2.247876061569309761e-03
5.661207273377651811e-03
-3.671837779807089752e-02
-2.922260670750401537e-02
-4.460923411130746086e-02
-3.631947046778203486e-02
4.042137649604449212e-02
5.930236486643649177e-03
-3.771992271394532942e-02
1.520008006628500649e-02
3.051210278984241991e-02
-2.534821270742512733e-02
-2.333636625679161303e-02
-2.541523574480727618e-02
-6.051432062914189301e-03
-4.143616065678169119e-02
9.019623650578720286e-03
-1.235393165501087048e-02
2.328836391331372616e-03
4.872417653378202651e-03
-6.035643289000239796e-03
-2.285543372006587984e-03
-3.875606411479286251e-02
-8.114898666944500225e-03
1.598829766584411796e-02
-3.690757727008840000e-02
-5.883956766338400979e-02
-2.705410669838922283e-03
3.887266618629288406e-02
-1.500595476946762000e-02
-1.885242976260205136e-03
3.392285309460566639e-02
-1.922338476731638712e-02
-6.864278053303189686e-02
-8.817351419132988047e-03
9.772576893579722201e-04
-1.140439698749315389e-02
-4.262669493950387023e-02
-1.196184086934713557e-02
-3.708787144670252361e-02
-1.544929569827422494e-02
-1.019890547278969398e-02
-3.783715326743720964e-02
1.193396528251788880e-02
-1.430679493658362778e-02
-2.993264880300485972e-02
5.189356610421018423e-03
-2.731988117288914816e-02
2.693487286390287144e-02
-3.440088924208099114e-02
2.905513645001521830e-02
-2.037483916380503426e-02
-4.053981203997469862e-02
-1.993803680534353417e-02
1.445136208416846271e-02
-2.864611867552432564e-02
1.538320603021618369e-02
1.844630018037445029e-02
-4.338131671948523144e-03
3.291343708808994184e-02
3.989238521743482258e-02
4.988243108503702394e-02
1.893409499122174558e-02
1.060325243653547633e-01
4.670356032265856466e-02
1.164139918677927626e-02
9.134699768127951813e-02
8.086142227520548564e-02
4.774674974548961948e-02
6.266139346616904360e-02
7.714064067653597645e-02
5.642826893804450683e-02
1.013086694554048567e-01
1.097895942505036915e-01
1.273975043837413945e-01
5.475189979211098068e-02
1.038297222921500673e-01
9.842429170835523267e-02
9.310828473749752088e-02
1.415340380162121992e-01
1.361488927523133441e-01
1.207553814541741932e-01
1.196643719870768008e-01
9.446927784791722682e-02
1.034147947263226175e-01
1.762773959093215381e-01
1.390041251235749065e-01
1.262682542007263486e-01
1.356880293986255648e-01
1.093839878233375112e-01
1.130964466598408241e-01
1.126259806258247537e-01
1.147408561808415245e-01
1.700639595238708501e-01
5.040769743211732934e-02
1.203234038432483555e-01
8.490726508706605835e-02
1.125590918069030721e-01
1.178228257588555400e-01
8.364648399923627076e-02
1.082331767364331787e-01
1.563777990347002822e-01
1.713782525647672972e-01
1.680110502489931268e-01
2.254050885967748830e-01
2.664550667499401837e-01
3.298282682276183486e-01
3.646763777533837958e-01
4.059927443846447770e-01
5.176874372731381513e-01
4.790364830739779478e-01
6.700937868541714248e-01
7.348613119562684703e-01
7.819561359958679958e-01
8.909943483909588124e-01
9.865400967218800332e-01
1.106654607837240567e+00
1.177725965176180223e+00
1.231498614826648241e+00
1.301572976150600969e+00
1.361684158849753246e+00
1.386248965017412571e+00
1.367847783141775020e+00
1.371011366469400583e+00
1.358598471180652245e+00
1.230514706072753484e+00
1.213215364017215636e+00
1.173387715843504653e+00
1.112682282184308979e+00
9.599601094462962836e-01
8.288779515005861853e-01
7.849939023271738092e-01
6.756551914281803128e-01
5.821376920525299647e-01
5.129296224392130288e-01
4.130556741157415668e-01
