1.518789638042722823e+00
1.478367230170618107e+00
1.421712953193797313e+00
1.368027970797897730e+00
1.313765268453805479e+00
1.214139767896234900e+00
1.199347730779990906e+00
1.074326385025086816e+00
9.700362885576812033e-01
8.534824629689726772e-01
7.319404435565619593e-01
6.800688341359401035e-01
5.561561836783651680e-01
5.287328230928551864e-01
3.696072808906430973e-01
3.713041671221473661e-01
3.059469005551834764e-01
2.735022235718860273e-01
2.658249714044425005e-01
1.657098913053630385e-01
1.261820583610576696e-01
8.063946194524879152e-02
9.007670448966456633e-02
5.899118437669147869e-02
6.371342411739931710e-02
6.379824936260924950e-02
5.123551383356637901e-02
1.908890333356287605e-02
7.006922251315259031e-02
4.579246623575020103e-02
1.108156034880282970e-01
2.613895653406012043e-02
1.104236346134287866e-01
1.168483702082833281e-01
1.271895766664186966e-01
1.297240613934916298e-01
1.161227380707273021e-01
9.640476771123449029e-02
9.642070242095102106e-02
1.054398240669242870e-01
1.116549378537896875e-01
1.895836662915742488e-01
1.330108765750558364e-01
1.679331460945665266e-01
1.421727048698861740e-01
6.644999290701038286e-02
1.372577730827931330e-01
1.806141322125460191e-01
1.920168442127191399e-01
1.599190876726438448e-01
1.124123151616387706e-01
1.606237614478949194e-01
2.050727868888314598e-01
2.043668137929030570e-01
2.249977307286172568e-01
1.941372238562838470e-01
1.463903363396923396e-01
1.925976336089901542e-01
2.163330115006435739e-01
1.459594101978470282e-01
1.892653268948313594e-01
2.136373978197884660e-01
2.116982939698519306e-01
2.158285441556082318e-01
1.742844415841545425e-01
2.151756456107908611e-01
2.184199897708599680e-01
1.971806983266027880e-01
1.874666510113679463e-01
2.173752454200204021e-01
2.590198655384201021e-01
2.327827978185218749e-01
2.032864760182828967e-01
1.395445041464567215e-01
2.110305718483354298e-01
1.578473696126303227e-01
1.841567835934829200e-01
1.497111297137868613e-01
1.562734802353372143e-01
1.518116582448228169e-01
1.716817428574095028e-01
1.821772365498127155e-01
1.440847891816818271e-01
1.417596767672159863e-01
1.586405248682208335e-01
1.342657970705012360e-01
8.986612922949521742e-02
1.205613084426237075e-01
1.379629333206225661e-01
1.034736329182658343e-01
4.737575622627760580e-02
1.136321331444823945e-01
1.102617018012282957e-01
9.294072856117449599e-02
8.971981479565596662e-02
7.738096872728422726e-02
6.308168459327219424e-02
1.886021579037581997e-02
5.187235167696377380e-02
8.880532167321104897e-03
9.812989481398373681e-02
3.868692926130300191e-02
3.375512792654820904e-03
2.424398159205825437e-02
8.108678247495969271e-03
-1.998997149634158116e-02
3.362665212156163569e-02
-2.457306080358078598e-02
-3.302160787937342967e-02
1.168992537946331872e-02
-1.881264559235401590e-03
2.207748384123166263e-03
1.421844292906296325e-02
-2.889022662932699825e-03
-3.281458350890392728e-02
2.515408737563876174e-02
-2.840979708996621556e-02
-9.951483822460444051e-03
-2.691661732108836455e-02
-6.869501972325588179e-03
-3.198225540007917922e-02
-6.560301295306791847e-02
1.665994323077403527e-02
-3.679658070547096871e-02
-4.252607856995756913e-02
-6.040979815506433703e-02
-6.244449528161263169e-02
-4.649778707758808055e-02
-1.056583934294620664e-03
-8.238208804949437303e-03
-4.474420895459523678e-02
-5.842028963621673232e-02
2.603433023900036253e-02
-2.713044226883945184e-02
1.365361151357719072e-02
-1.590304989275479614e-02
-4.337985011900932775e-02
-2.529346832234344311e-02
-6.569291114578004742e-02
1.473068609767818476e-02
-4.359539937988483188e-02
-8.496949926572892886e-02
-1.768985371538230045e-02
-4.669814996454414030e-02
-2.580593777673623537e-02
-4.000882656486661609e-02
-7.119942648899571513e-02
-5.601024154370062152e-02
-3.734099745916050206e-02
-4.687142183879162288e-02
-2.360903409804872635e-02
-5.011325479778012265e-02
-3.303681191562323621e-02
-4.189982132748192034e-02
-2.457852124953339989e-02
1.896199062963101201e-02
-2.041781482354040195e-02
-5.465710758107916040e-02
-4.204196724560834569e-02
-2.356207834980299926e-02
-5.713283581506044262e-02
6.685659527909358635e-03
-1.665205738240835981e-02
-1.579844986200328733e-02
-5.358057690560358299e-03
6.708822788057872133e-03
-5.158831398345477270e-03
-2.537647931869553217e-02
6.686203727673513397e-03
-2.605161761173238957e-02
-1.130299949459025177e-02
-7.892850765512017530e-02
-2.081634006150189647e-02
4.932170354839532367e-03
3.259902951650710951e-02
7.488948618167107218e-02
-6.632660895436494342e-03
5.782906222366986093e-02
6.345082008809788121e-03
1.162296031868461504e-02
1.012582524515213966e-01
8.207952690739286905e-02
1.103336952069445820e-01
1.055684110811257598e-01
3.356773504070072189e-02
9.675233811299760456e-02
1.035623644714462888e-01
6.909422246999719075e-02
9.610197570160633473e-02
1.219593707771156332e-01
1.400406851749469994e-01
1.112561041216302282e-01
9.007339696356034264e-02
9.452607072925772735e-02
1.089187237700956767e-01
5.606894786208608400e-02
1.063668356801008019e-01
7.468794704344954016e-02
1.127178556488980798e-01
6.373690089725966845e-02
8.322688746889048139e-02
7.514426632434149933e-02
2.896233642121451984e-02
7.441068986361065729e-02
9.655880615628438524e-02
9.604892981444669575e-02
7.458343534676509234e-02
6.135717380687345096e-02
1.064897708462359260e-01
7.551943059363114275e-02
1.117355580388917080e-01
1.034660086219284236e-01
1.618251057949126603e-01
2.445701007036268915e-01
2.154057290209925313e-01
2.988826023280782285e-01
3.087298592087616700e-01
4.158381461142138247e-01
4.692874453073974661e-01
5.563606773590628052e-01
6.573693365348080020e-01
6.861501410109829280e-01
8.077842824646092046e-01
8.883759333817079495e-01
1.019738284066791234e+00
1.121948031393148248e+00
1.161217300081559101e+00
1.267013320700818513e+00
1.312482904089478764e+00
1.324596970559281051e+00
1.408938482193343500e+00
1.458056634229605519e+00
1.398897750481023383e+00
1.342452625518590237e+00
1.371914044936336285e+00
1.300325872069834299e+00
1.237394492806648927e+00
1.142281123011003263e+00
1.130056632972241903e+00
9.733873033034704525e-01
9.175762213495368691e-01
8.040647084835540470e-01
6.933910449865756664e-01
6.380438799520334880e-01
5.274088039714325271e-01
4.212030155231402673e-01
3.222881642995331086e-01
2.357707557474971183e-01
3.060730040744357727e-01
2.387252539611582070e-01
1.838859740955005873e-01
1.493416748850850684e-01
9.988265281865575662e-02
1.047136161947848643e-01
7.998224889204821886e-02
8.392681136093424477e-02
5.729263138091721108e-02
-9.701505048734508641e-03
1.158368114792351911e-01
5.068359691532864364e-02
8.322558387632295052e-02
6.719023738029719639e-02
5.159624057303202616e-02
3.043265004688298220e-02
3.791221072215097965e-02
1.307381151997712432e-01
1.060931010197947721e-01
7.472826120063394417e-02
6.617118090234733185e-02
9.294795117946513807e-02
8.762404665544941407e-02
1.489752412228294576e-01
1.397854709494763814e-01
1.440756303068247701e-01
1.628435853790582144e-01
1.909329889976872641e-01
1.239639502619728495e-01
1.253436594306897300e-01
1.881004490331628920e-01
1.704095219106979142e-01
2.281580911979349258e-01
1.652304876938954781e-01
2.114595529839021493e-01
1.806442771388259705e-01
1.853308965832475286e-01
1.650971511262235847e-01
2.497758684400833706e-01
1.768304013785583217e-01
1.620588865739100992e-01
1.877189139740996493e-01
1.789447623061257986e-01
2.224143753289924696e-01
1.758707246000920654e-01
2.166203109021384299e-01
2.621959052841833504e-01
2.310163374289938287e-01
2.280380121847134789e-01
2.104313659602687070e-01
2.314309164998056279e-01
2.497619708903763280e-01
1.439905636405496570e-01
1.686544665439961288e-01
2.167981436425009123e-01
2.405839513634836224e-01
2.279756493918475568e-01
2.472474040448226773e-01
2.009415425546706158e-01
1.891044878909204918e-01
2.166333318868737534e-01
2.033902721869331465e-01
2.075937933259655588e-01
1.116127853435199824e-01
1.473398301748785610e-01
1.591885222873352657e-01
1.393323832554309027e-01
1.925917864548946090e-01
1.112285230536997210e-01
1.847763693372944382e-01
8.341860666948239245e-02
1.045837653777450527e-01
1.194914712917134886e-01
1.461283991526436676e-01
8.443467040159396975e-02
5.895722488246585291e-02
1.001317409495434407e-01
8.730258029974889700e-02
9.404851624361185158e-02
6.399917693569616428e-02
4.906396094778708167e-02
5.978296836932436853e-02
5.165893370244907523e-02
4.093653461068098853e-02
4.684664083402682866e-02
4.487478680877573373e-02
-1.488025011593771540e-03
3.819059120295492660e-02
-5.247151170730254832e-03
6.414957593275640024e-02
1.123402574397604561e-02
4.185587489280880036e-02
2.439945278162070769e-02
1.986283196165346265e-02
-4.143311802618059037e-03
1.672245091574773093e-02
3.447107668315048390e-02
1.450711360529394894e-03
9.126923149404719826e-03
2.493928748613163590e-02
2.402616182034571224e-03
-3.289645659422869156e-02
3.700821576817360514e-02
5.109330462165771747e-02
9.273621320250835520e-03
-2.380561165580587224e-04
-3.660617271657692906e-02
-1.994551334768277298e-02
-2.880789423596122334e-02
4.646528760333988595e-02
-4.919568362067434225e-03
-1.891143023504532686e-02
-6.819833804829421309e-02
-3.786558551529838751e-02
2.589107514707647204e-02
-2.534144589308763226e-02
-4.598084353431028393e-02
-2.201905777277841231e-02
2.541910824226495391e-02
-1.116847591641984168e-02
-3.447180956558479337e-03
-2.728492181605875200e-02
-2.092091874276233790e-02
1.228744697398565650e-02
-7.921173043128757613e-03
-4.920381313708255960e-02
-1.980785566100773040e-02
1.449292004952363461e-02
-4.344323786364187590e-02
-4.013181141365187998e-03
-7.899905395243317363e-02
-3.364221007591698676e-02
-5.409348852532532698e-02
8.221069562198562997e-04
-1.691517545101134390e-04
4.186214232857414508e-03
-3.226723637026521901e-02
-1.112228708745724090e-02
9.801186216313317878e-03
-3.941750360341025883e-02
3.826806172406679862e-02
-9.924133231120161117e-03
-1.110164967028751115e-02
-1.546087769680491025e-02
1.462373867309904249e-02
2.481047640190525705e-03
2.582660072805165186e-03
5.629658382426053903e-02
4.282832798367253863e-02
4.797966477506687699e-02
2.575563818037309230e-03
3.954584912082316495e-03
5.704828816315014872e-02
1.378039399350611954e-02
5.858004882715919792e-02
7.385495882735355899e-02
4.739878660437615160e-02
1.095187132323268836e-01
7.093480418307210322e-02
3.558313164837318548e-02
7.172111405365824699e-02
9.148834869079848497e-02
5.274501089409396742e-02
1.034512811063876547e-01
1.268551448686530969e-01
7.961891415122815396e-02
1.031292355861083282e-01
1.519616219464191842e-01
1.150582974758797283e-01
1.135591018472721925e-01
1.415538607481691968e-01
9.637837472621160750e-02
1.130719134171271900e-01
1.874298421816373850e-01
1.386810247440964650e-01
1.410973817650910955e-01
1.926450608512712825e-01
9.268789554889619864e-02
1.249589845196825283e-01
1.577007083580241609e-01
1.310268606038410555e-01
1.464417324684285371e-01
1.431692019363009216e-01
1.349456215792473601e-01
1.269726912506824734e-01
1.599861416846395379e-01
1.013371999401143919e-01
8.907130596065855610e-02
1.088406452938407154e-01
1.108702951146189608e-01
1.111910001035469192e-01
1.052140272466503546e-01
1.633328778404695703e-01
1.816798755592138881e-01
1.850018313816527149e-01
2.120461465891245179e-01
2.459223569143442201e-01
2.538530075130453478e-01
2.923578568284371793e-01
3.695678830693660544e-01
4.082774462309316510e-01
4.331816096298074514e-01
5.529341586426115285e-01
6.590459159694180835e-01
7.246188969446163419e-01
8.113162207820994176e-01
8.596608568765917724e-01
1.027386714545144963e+00
1.077953152884289389e+00
1.219819358596126557e+00
1.284067909533549434e+00
1.391590710513938678e+00
1.430567303147649572e+00
1.456459377506219566e+00
1.480202261370694439e+00
1.486911502443658106e+00
1.450951879508467490e+00
1.502618218939860917e+00
1.378077518867790285e+00
1.343697735113573932e+00
1.241111298056628121e+00
1.157455544679317772e+00
1.077006338668150764e+00
1.019444204662029785e+00
9.039681050569736698e-01
7.903578791137927384e-01
7.407864135440905828e-01
5.573765478365781956e-01
5.415757705537767031e-01
3.928177600458206409e-01
3.668849729471778676e-01
3.293916418942341440e-01
2.745103618511335331e-01
2.241491430605192792e-01
1.972028387173541120e-01
1.565400044634964183e-01
1.401593475057710814e-01
1.644944539837259745e-01
1.648839919461169701e-01
2.117497496517600220e-01
1.030340544843128259e-01
9.598022491411374590e-02
9.931561197985133704e-02
1.725753458023602804e-01
1.041984849823937853e-01
1.338429640437652501e-01
1.019043325306538544e-01
1.759615286555125946e-01
1.808716817072074934e-01
1.700253127122300367e-01
1.736976509152419468e-01
1.523982173651085292e-01
1.477920316966007674e-01
1.756636050627755907e-01
2.053605333066876870e-01
1.942242510020793234e-01
1.509938772738832202e-01
2.033211545981316315e-01
2.168547261998787778e-01
1.841335412783610681e-01
2.231960848009399700e-01
1.616987853925360430e-01
2.827902667651722712e-01
2.026204710639760154e-01
3.010219102217446818e-01
1.899756950976758674e-01
2.701475744938079959e-01
2.454875800721279810e-01
2.688462782123284267e-01
3.204141459824071392e-01
2.355608410622062610e-01
2.762756502275806048e-01
2.370117548340348601e-01
2.243905479846563522e-01
2.688292882757405966e-01
2.554201008732738809e-01
2.496748026105320151e-01
2.584275140785020630e-01
2.531066302882252761e-01
2.903957231515955084e-01
3.223714961772511933e-01
2.956445884005043934e-01
2.539519615477650594e-01
3.021062963488754249e-01
2.304724897923308702e-01
2.414557376465490401e-01
2.558922996716858078e-01
2.184613290902629179e-01
2.449682024270340985e-01
2.447326988842473960e-01
1.868845487597302624e-01
2.885021260704529467e-01
2.016416653866663355e-01
1.767803030525361974e-01
2.244545565811776056e-01
2.349764456161652637e-01
1.917936965389595017e-01
2.286159698724758438e-01
2.846278298120564210e-01
2.127919248386614948e-01
1.783150640847984414e-01
2.367504809300813862e-01
1.561760128145367466e-01
1.481427882692005205e-01
1.789332109923420788e-01
1.506776660716072358e-01
1.411852891310544089e-01
1.059165258100753931e-01
9.008380553541039948e-02
1.496970337457867728e-01
9.978783217347633738e-02
1.268663178517798751e-01
9.908234418157760293e-02
1.169366244853167480e-01
1.012325659265257832e-01
1.438893127595712307e-01
1.251521442570178166e-01
1.025430057722025307e-01
1.569597767625335039e-01
1.260281023977540271e-01
6.308687443155722163e-02
1.118632930680978632e-01
6.137219091136730809e-02
5.985205141355090519e-02
9.188087708335671011e-02
1.236824494173065503e-01
9.355128632558960822e-02
1.056122463073852907e-01
7.135163526158957992e-02
4.128540810870269528e-02
7.474109773901407849e-02
4.216362880965042470e-02
8.214586277273797088e-02
6.553319419326188167e-02
9.884347027031556432e-02
6.724238612728042352e-02
3.311077575223064784e-02
8.608790686926995339e-02
4.543773174893271649e-02
2.676023742634886515e-02
3.421994354168916841e-02
3.994447261184343179e-02
-8.822737128330600254e-03
4.873298597398564858e-02
2.652126062338594492e-02
4.259489591980961803e-02
2.813656769202414060e-02
6.375224193239212300e-02
5.135527990966938516e-02
2.375147285155345192e-02
1.309560802501696583e-02
2.020743794647426178e-02
9.671298813954998241e-02
4.169594667291384726e-02
5.831137992799717562e-03
8.128653997978764478e-02
7.612384132058380715e-02
8.793280115002953534e-02
4.603309902412999755e-02
2.765273709163421773e-02
1.395835105134015861e-02
2.882846876627560839e-02
1.136503106225295046e-02
6.934548833912318466e-02
8.806626118312410600e-02
8.548909043036391486e-02
2.023647399579393824e-03
3.284483328125349655e-02
6.017522666957801636e-02
3.731245298293808799e-02
9.117065172040690613e-02
3.709796514498842762e-02
4.744875829991071492e-02
3.141306597956513430e-02
5.085512836100429535e-02
5.529880769292506992e-02
3.265866006745316019e-02
5.401271801781919180e-02
7.672275194799563214e-02
1.149171962446793871e-01
6.912265855252223978e-02
6.683947507013779377e-02
5.843076244439458083e-02
1.061648803736334884e-01
7.283883199701160494e-02
5.878018246018994197e-02
1.111063031847043248e-01
5.622683469971190284e-02
1.538318579421786292e-01
9.960001724456515881e-02
1.359960378348607501e-01
1.416111764919714133e-01
9.361292879246141396e-02
1.522627885549158178e-01
1.383848530946096556e-01
1.383222996260058402e-01
1.042568320967705853e-01
1.845314984616472365e-01
2.111991508704085252e-01
1.774120551584986161e-01
1.270038220068984147e-01
1.878769932173618706e-01
1.555146024150212414e-01
1.575089120197249726e-01
1.570901646983739464e-01
1.975223010819898428e-01
1.926157041818087612e-01
1.871652205770081012e-01
2.064492858936307351e-01
1.673884764099247136e-01
1.796264787299805266e-01
1.586885449082982291e-01
1.550503823138285886e-01
1.693805865231393926e-01
1.413207312646131419e-01
1.723125947965912508e-01
1.952837640405559461e-01
1.939265654575532960e-01
1.757650575028710249e-01
1.648404143252422682e-01
1.656676123503650899e-01
2.192184533943220548e-01
2.116796904061546414e-01
1.858987378644372523e-01
2.685784290832612387e-01
2.153077030761355870e-01
2.605403380721367235e-01
2.738753643277788696e-01
2.424723370332345362e-01
2.950735918386935275e-01
4.044733617616915744e-01
4.094087735421745866e-01
4.996254841612487452e-01
5.503118836924963952e-01
6.632394145289333132e-01
6.690406310274257251e-01
8.275598162093460441e-01
9.133909038021719162e-01
9.942457300975575674e-01
1.097925699115617215e+00
1.242183944197206902e+00
1.316135499142788934e+00
1.408284599480183807e+00
1.415865327961780107e+00
1.460874083270949031e+00
1.444116247283742771e+00
1.482973921300797082e+00
1.530098948814811122e+00
1.535115984573825365e+00
1.439062152510941495e+00
1.364025965329371148e+00
1.362427912025741206e+00
1.252931605654124647e+00
1.118959704302465497e+00
1.045370030358101054e+00
1.028115255712700016e+00
8.636019703734238995e-01
7.902638845103000520e-01
6.193221210597675830e-01
6.104001226279602843e-01
5.253362767752941531e-01
3.922393732247499987e-01
3.828091911877657960e-01
3.282392664386286629e-01
2.938826506503373626e-01
2.545275919209581961e-01
1.911413473634133997e-01
2.314752714047270954e-01
1.737323392177902437e-01
1.616061618573026715e-01
1.903840648370139499e-01
1.883186786741501417e-01
1.992256487203763193e-01
1.549811477098172741e-01
1.396920038081116422e-01
1.725817839439433565e-01
2.062163612089755738e-01
1.445037572673017190e-01
1.477694163924059556e-01
1.707973937663995745e-01
2.166016734036978475e-01
1.237999311505425526e-01
2.334139003316264560e-01
1.795363812347851029e-01
2.471475986342951681e-01
1.654039407401774464e-01
2.245854486403199013e-01
2.149963257162663677e-01
2.280925647341401075e-01
2.671215916992578654e-01
2.722909071237956669e-01
3.132176207880401630e-01
2.998146900853367880e-01
2.986421827933209983e-01
2.659117118134983748e-01
2.447417060313409887e-01
2.757532977043678502e-01
2.794140230347859077e-01
3.158261167211717790e-01
2.565948661528758556e-01
3.070082992996239213e-01
2.772537474102153010e-01
2.848370861596005166e-01
2.996259296347745793e-01
3.015636346735074969e-01
3.296940999292591323e-01
2.350828584110642994e-01
2.894416958632073933e-01
2.608365097885518291e-01
3.000916413495730573e-01
3.331079040398770008e-01
3.018947783939698870e-01
2.893948402184122748e-01
2.922129485189569054e-01
3.395299854396105488e-01
2.594490270436034529e-01
2.858858431853018023e-01
2.641192947548371417e-01
2.828938904073822758e-01
3.158043983743269445e-01
2.509201586379766202e-01
2.610662707330899113e-01
2.285976436265577949e-01
2.551360919679639405e-01
2.205195140833654532e-01
2.538522980681247043e-01
2.759600866755286264e-01
2.457816745419512117e-01
2.208738805950843931e-01
2.330154868196372964e-01
1.941695023936588493e-01
1.956536712307034298e-01
2.138523572877537027e-01
2.773581103086486532e-01
2.029430929111868953e-01
2.234772066884567199e-01
1.908297804211682436e-01
2.287915456649135815e-01
1.884226952862753379e-01
1.823781138067365748e-01
2.090248629631455968e-01
1.204490948170211517e-01
1.935866151550771630e-01
1.774843659644629312e-01
1.585285879806716813e-01
1.583429264591443564e-01
1.472596127945428879e-01
9.709527739575299354e-02
5.982323142210174000e-02
1.367216245787130635e-01
1.684884969554538980e-01
1.223494804529665636e-01
6.335029359813799943e-02
7.537915153344937336e-02
1.034331317888566026e-01
1.545362120962841812e-01
9.713101686823352732e-02
1.030345496736776167e-01
7.187151226413397709e-02
7.033292194702747691e-02
5.437287677930335156e-02
1.257725280782480137e-01
8.501002983020181092e-02
9.347106970461263598e-02
2.843671365169989779e-02
5.240521207425354738e-02
4.846899904639130618e-02
8.361700659007836878e-02
4.263937513500402898e-02
2.406943001795640996e-02
9.490739344735260596e-02
4.361438620563404950e-02
9.434145530341882246e-02
4.190463862544591134e-02
6.877551529895467586e-02
6.169383785756096805e-02
5.153519891057722901e-02
6.090954890932268051e-03
4.086427374220404085e-02
6.627703077992409819e-02
2.796570946514979894e-02
4.822831476260509148e-02
6.720964300115561674e-02
5.965944474650490548e-02
6.740235365101882037e-02
5.219629050379744756e-02
-1.291308686801097283e-02
3.631499041011074236e-02
3.129494148780088969e-03
4.866992470217012395e-02
6.892025480728249109e-02
8.484114124745535668e-02
7.534501237889920655e-02
7.029032570758171616e-02
4.462363928313727024e-02
5.584894364896530322e-02
8.130617419549299174e-02
9.832703034503322004e-02
6.509513741608649595e-02
6.226348180683274197e-02
7.992992252003115750e-02
8.559294062485656163e-02
1.071460668889644141e-01
4.558220296751444578e-02
5.051884228086976625e-02
8.790780976805465108e-02
3.454157060311818100e-02
9.755200306205358274e-02
9.774284391521367854e-02
5.341112426691306536e-02
1.047894698126079216e-01
7.363783513992561147e-02
9.549097030293074440e-02
1.307879159207681330e-01
8.583681206831800248e-02
9.210325271614480669e-02
1.302061099953867318e-01
1.439306612899818316e-01
9.789989490683342899e-02
7.542962493647917266e-02
1.783639110994409693e-01
1.675573282873682457e-01
8.722235698283417604e-02
1.359032040738619163e-01
1.912870667883275200e-01
1.809879290631939419e-01
2.057311519716494841e-01
1.441735403756622957e-01
1.627570685038013942e-01
9.699393683427309787e-02
1.900637279688315029e-01
1.865663243307274510e-01
2.183713319325561175e-01
2.070510731507699820e-01
2.104997150950864149e-01
1.849649485964123263e-01
1.735287157062352925e-01
1.909988816032028303e-01
1.871841681628430565e-01
2.122920147213520625e-01
1.676765629879318209e-01
2.071174937551932271e-01
2.348425431992081092e-01
1.754512216048289830e-01
1.872314256223430728e-01
1.676522710325423771e-01
1.631667892795841679e-01
1.682977395439815838e-01
1.591888015606827689e-01
1.857248432242840086e-01
1.548936753872996730e-01
1.463425181447023660e-01
2.090638631781142343e-01
1.862401648938321608e-01
1.621321603898891184e-01
2.003151915655250470e-01
2.541889971735417086e-01
2.800386247428841013e-01
2.810489451922500437e-01
3.106879682400481846e-01
3.416119797869545671e-01
3.357920036750303705e-01
4.494497564228489561e-01
4.626575682375417276e-01
4.986097197607111675e-01
5.748386459475308685e-01
6.724534179303562897e-01
7.863155844427585084e-01
8.716585324177302807e-01
9.360652827944954124e-01
9.985689703704083708e-01
1.212713888517014782e+00
1.258311992260508161e+00
1.363941482434754215e+00
1.386988799034876374e+00
1.439591258683899477e+00
1.510796413595670851e+00
1.507890541064156764e+00
1.510823409854804567e+00
1.517403256067818784e+00
1.412030071824700084e+00
1.453863560555635814e+00
1.328520822149843017e+00
1.262858209903360285e+00
1.168337905826694945e+00
1.076081992418774780e+00
9.924880982780203142e-01
9.229415787881384281e-01
8.301433905898316645e-01
7.189501575710147696e-01
6.308173134821540851e-01
5.176676469623113785e-01
4.595358485709418739e-01
4.292348618523328940e-01
3.433827730003922163e-01
3.447285062406982292e-01
2.171246943640719462e-01
2.940800298048736328e-01
2.084548067231804247e-01
1.628491923375422756e-01
1.528362023886634669e-01
1.260566353420259911e-01
1.284194992328761553e-01
1.521467387793399295e-01
1.650605779434876907e-01
1.497891935842976530e-01
1.809727695723063468e-01
1.062476755441588705e-01
1.650457576055575637e-01
1.724215865368590450e-01
1.884209406802844211e-01
1.156357290562556039e-01
1.607648256623631922e-01
1.591551324676132584e-01
1.830006185861528523e-01
1.694603239522098626e-01
1.829653770668355772e-01
1.865838865806559999e-01
1.701129895130747416e-01
2.008410556347335341e-01
2.042631933631114116e-01
2.158178482204449744e-01
1.906775446166520116e-01
2.542233891394771739e-01
2.476503094842567310e-01
2.816352662995316170e-01
1.978929804930852632e-01
2.512344231057284660e-01
3.254741735869339236e-01
2.728503129956965645e-01
2.574046526332127161e-01
2.320440336595737396e-01
2.283895316905807660e-01
2.232540374707245867e-01
2.753837875342843300e-01
2.518174210766576659e-01
2.378879486962237888e-01
2.613552364718519927e-01
2.835294420739639665e-01
2.534210749569048016e-01
2.145800848054406074e-01
2.479427849288425023e-01
3.147673930665255138e-01
2.863988966615613752e-01
2.581717409745146186e-01
2.671158487141147564e-01
2.736702039742200943e-01
2.666733615990824480e-01
2.838274234400355867e-01
3.001390703607355048e-01
2.600418969043080675e-01
2.627842188242051069e-01
2.337564166554548795e-01
2.760390708350917155e-01
2.745177331068063831e-01
2.190066990607368591e-01
2.560374755752555798e-01
2.720826806856498359e-01
2.398067052275231759e-01
2.410405886816684440e-01
1.618316263818873890e-01
2.172581385785979369e-01
1.953138675007485558e-01
2.038136095569342277e-01
1.278203346423771314e-01
1.293630997734288579e-01
9.276628901026719165e-02
1.704322132253209277e-01
1.390230201641247387e-01
1.265854146214936415e-01
1.458415560452421544e-01
1.296953949933573047e-01
1.430451577971025290e-01
1.264489788930192316e-01
1.077532437962096801e-01
1.062643935255535854e-01
1.741442233840722609e-01
1.783332247851254493e-01
1.129257477989950853e-01
1.000398051158072343e-01
8.248214007416238003e-02
8.823468828760444582e-02
1.104143063820098164e-01
1.064454720859910886e-01
1.136000680501821070e-01
4.693036977014642536e-02
6.355763148317034039e-02
5.709550959721070018e-02
9.474658789873099951e-02
3.174488096027016509e-02
7.990380149665762821e-02
1.957717583572158443e-02
3.960276578372392067e-03
1.764983881896019929e-02
2.580981216818926602e-02
4.668462266229470026e-02
6.822069025183476881e-03
2.360049771183108519e-02
3.999132142103922760e-02
7.856769078780422022e-02
7.890805824232566268e-02
-2.645559833070473474e-02
2.696564609599377133e-02
-2.772325455277591631e-03
-2.403076046258401446e-02
3.594112423138499934e-02
-2.294651870467083812e-02
5.908762552141843399e-02
2.554771957879785685e-02
4.829807668605236304e-02
8.165548220870490204e-03
6.503255806958874174e-02
6.557573206920476461e-02
7.919114569346198326e-03
3.586620697326682941e-03
3.454035809158137460e-02
-1.605301080206510481e-02
4.157945568656003926e-02
1.565505488001464607e-02
2.933388372870320872e-03
-3.168885838223536866e-02
1.371706089879602339e-02
-3.543977622013142620e-02
5.069166071342705304e-02
-1.559694323373319105e-02
9.632477460262441407e-03
1.392034674744691350e-02
-9.324903605853413283e-03
5.828773678141627862e-02
3.146753886833572600e-02
2.252056413398763682e-03
-6.950151692291546036e-03
-6.287693967375172603e-03
5.058650110473367212e-02
5.618079735977912770e-02
4.231703067550158896e-03
3.278761839695040065e-02
3.602673595925166145e-02
6.517605294517937742e-02
6.512355332104213801e-02
2.120943711705663287e-02
6.318825035707781312e-02
6.351280784724752659e-02
3.766713149599253824e-02
2.237232678544576192e-02
5.332606407517086200e-03
1.068518612498096099e-01
7.164149118589174803e-02
9.300217551363518242e-02
1.608629897992457786e-02
6.369851609710483475e-02
8.395734590365754035e-02
7.649391861770930834e-02
6.965471226013100758e-02
9.680078082932119798e-02
6.200722924177361900e-02
9.813697176046325132e-02
9.022685722498116623e-02
1.703467145713596087e-01
9.255536561129090734e-02
1.397778550510901663e-01
1.071269967850662225e-01
1.208875032445916597e-01
9.783294414311656528e-02
1.476299775710277484e-01
1.066421965605449107e-01
7.566416043447544981e-02
1.667058773825081941e-01
1.197432603524900274e-01
1.832170568925396703e-01
1.278856936922536103e-01
1.270195459587116771e-01
1.144414615532217683e-01
1.525593799415755347e-01
1.136235150102099384e-01
1.531768950627243331e-01
1.489207798109953018e-01
1.164470868057611297e-01
1.340554219510690093e-01
1.131823779186934692e-01
1.341764621319782302e-01
1.568022940363024975e-01
1.458507617887435936e-01
9.641054204895965762e-02
9.188384696471024737e-02
1.346962709116441559e-01
1.738250491237896822e-01
1.485790029066188789e-01
1.803763835997988507e-01
1.462967712969953371e-01
1.799086915701601508e-01
2.308715272816292408e-01
2.581233974032937639e-01
2.885805527246843583e-01
4.135363359457796539e-01
4.539958561989616559e-01
5.199914562944276675e-01
6.080374407459809838e-01
6.626489747845056844e-01
7.259415189514563105e-01
8.461336984223893909e-01
9.712320648369423548e-01
1.037487545913170717e+00
1.150979247891623425e+00
1.225662276115383031e+00
1.301246708220885839e+00
1.428445803640228329e+00
1.391910376414753792e+00
1.432276869773809302e+00
1.447746463543739370e+00
1.496082513010930315e+00
1.408531172210051308e+00
1.362178254962513657e+00
1.391134328873722570e+00
1.260905563891773662e+00
1.219779142537544603e+00
1.106983692040886869e+00
9.432399968367835008e-01
8.876264895647300035e-01
8.045946511508372812e-01
7.220674097371684308e-01
6.400801961794571060e-01
5.253532323228505829e-01
4.282052781882383363e-01
3.797119168112718657e-01
2.760602969709381460e-01
2.410660746281889089e-01
2.287858691902340813e-01
1.627093377474002067e-01
1.520119231544188598e-01
2.021929806889550263e-01
8.398539230440539571e-02
1.230836894061046599e-01
7.613503857997575008e-02
1.077247821780013132e-01
1.238025434506784678e-01
1.027166983339493356e-01
1.080762198765875814e-01
8.133456776393151177e-02
1.003058841570302201e-01
8.549768009395418422e-02
8.693436685069366732e-02
1.068279112749246640e-01
1.096440412635470707e-01
1.326617792651843819e-01
1.223190545356082487e-01
1.225901229563817474e-01
1.162067680513251128e-01
1.902494604034242753e-01
1.458593725034675603e-01
1.168913078168301728e-01
1.571767890704207082e-01
1.616386626668529225e-01
1.854497945482043997e-01
2.118070530106906935e-01
1.477797241999359024e-01
1.816563310760492544e-01
1.916416382944564345e-01
1.314734913231088431e-01
2.240022713856266168e-01
2.486334577493645170e-01
1.686501641469241863e-01
2.339355162238576924e-01
1.957568788135861104e-01
1.974879743684278821e-01
1.987785428769717755e-01
2.058081311774684896e-01
2.023797444238780718e-01
2.042602322647220081e-01
2.417241782228465030e-01
1.954444861787794085e-01
2.150217753246211894e-01
2.430866773783924017e-01
1.976770104712500531e-01
1.837462388199598284e-01
2.247073107844850537e-01
2.140642720278375655e-01
1.776242935602055373e-01
1.876739568497028943e-01
2.649173904498401955e-01
2.201491778012984180e-01
2.360747327975592780e-01
2.001082832300303815e-01
2.019355241753265917e-01
1.867162703253945899e-01
1.717802926708796585e-01
1.610324836378930480e-01
1.621330633338826099e-01
2.109722569817873983e-01
1.744085505744274178e-01
1.176834033827802717e-01
1.858029748201729392e-01
1.418342090063174077e-01
1.135867409561310271e-01
1.102112496846549827e-01
1.281906542016277573e-01
1.063653263498357537e-01
5.392096993108969755e-02
8.293274637393058257e-02
1.392611687390221953e-01
9.418970132209732171e-02
8.626470732304217237e-02
4.435554926027533013e-02
5.904204095721374279e-02
1.101477921668099214e-01
1.091147869179996260e-01
9.172058605801163000e-02
8.435741157418974456e-02
5.089883841336354658e-02
6.262334149764284263e-02
2.052859530935062515e-02
1.192479776924995627e-02
3.163832068125390501e-02
5.445674379476644900e-02
1.658746072242759523e-02
-1.897676169370179911e-02
6.866829123665815771e-02
2.410469578418353298e-02
-1.866684167720900761e-02
6.925615383477967679e-03
-9.926921203311511732e-04
-2.972003289293220774e-02
1.055100458467748276e-02
2.505147604183765447e-02
1.724710225981143652e-02
-1.049911153066438591e-02
7.778659666419932006e-02
-7.451829940701015786e-02
-1.108970605674178614e-02
-6.796869709154579331e-03
-1.414334151054269517e-03
-6.713802009698804918e-02
-1.430258096058583533e-02
-3.948495747092048425e-02
-2.126371596482134682e-02
-4.383969953361641081e-02
-4.371897988735395230e-02
-1.103787653084155329e-02
-6.487319659010883088e-02
-3.668623128028678654e-02
-7.405263057572643304e-03
-3.137964745968292030e-02
-8.826585987490295770e-02
-6.907292202733714137e-03
-1.809224284467585847e-02
-5.116661453348435307e-02
-6.300045211999140415e-02
-2.613209230901906641e-02
-5.609727743098630315e-02
-9.316189272533810517e-03
-3.872520186527995262e-02
-2.295585706923243888e-02
-5.342887346575626167e-02
-4.003941689232390355e-02
-1.789895401335521788e-02
-5.425399438298357524e-02
-1.043822998093464904e-01
-4.667858365357003408e-02
-5.981953559478471460e-02
-4.453164554529662894e-02
-6.947880920178728381e-02
-4.787657728366911253e-02
-4.900964328778144308e-03
-2.991714194864344631e-02
-6.322492315587197043e-02
-1.831618881406336594e-02
-6.067217051181857113e-02
-7.976237180401971050e-02
-5.851388364468894376e-02
-6.281611878472252719e-03
-2.584347417431277077e-02
-1.805132553741147991e-02
9.631905367817134023e-03
-9.485150219288106255e-03
-1.601113831903290541e-02
-4.128867830640467473e-03
-1.696874754897552753e-02
8.992010189365101658e-03
7.543448905274072191e-03
5.469583166699439059e-02
4.716481168358402365e-02
-1.708250775668807703e-02
3.008615661850115586e-03
7.741584158780764890e-02
4.014874777477809437e-02
7.523003618063786591e-02
4.679329040409491158e-02
4.772459808848333179e-02
2.642387308386573430e-02
4.255958254671424884e-02
4.667534076769506990e-02
1.368364864443906426e-01
5.073137402456073808e-02
9.589308650017817903e-02
7.079851853537368067e-02
9.122543096846644217e-02
9.510773230577954096e-02
1.838248979912646131e-02
7.138508935311148329e-02
1.026516232863173561e-01
6.106244891193636504e-02
8.252133592983981747e-02
1.187713711332224198e-01
1.384726917034031501e-01
7.038540497048957623e-02
8.307934727515427220e-02
1.086674795102550717e-01
1.119821505901503617e-01
9.242566266709727196e-02
1.171806239641956238e-01
1.002259294200993911e-01
6.394050847013788008e-02
7.262228809862211754e-02
8.950773689086577445e-02
1.118631275398269398e-01
8.113859055679992216e-02
1.133134715210646626e-01
1.337058707030015225e-01
8.335305443383064783e-02
1.531257587272475407e-01
1.143139078327145564e-01
8.994996384833486847e-02
2.039926784828891837e-01
2.721847261988749600e-01
2.162275078352197399e-01
3.094839398799004160e-01
3.646241340430255162e-01
3.946363583584789891e-01
5.954372299278413161e-01
5.620754532052381069e-01
7.095387220288611463e-01
7.863667825433637848e-01
8.677659076652532999e-01
9.498611290694288778e-01
1.098727775088593317e+00
1.159650249471678496e+00
1.254153022613564872e+00
1.316557648326876828e+00
1.389960398905965455e+00
1.349104166387036896e+00
1.371499017316432534e+00
1.448582672991768350e+00
1.365685719529840192e+00
1.408899101775606955e+00
1.313545224590418226e+00
1.234719955358660304e+00
1.214513599569224889e+00
1.126481029300589798e+00
1.014413896911845026e+00
8.896429641295531265e-01
8.077449656377929665e-01
7.002738972208631951e-01
5.740118336028792179e-01
5.307113007141721628e-01
4.613989332276510202e-01
3.717498337102140837e-01
3.575062496938384848e-01
2.291911738763525164e-01
2.089799009032760613e-01
1.604843737176749330e-01
1.377672327236824368e-01
6.378244512817951573e-02
1.330726829719153514e-01
1.184882003663605410e-01
8.364286636986989487e-02
2.284435836008544274e-02
8.661908056219755347e-02
1.972599279034106812e-02
2.605529460420866888e-02
4.982091138896337090e-02
6.129344489947181895e-02
1.046763364326507573e-01
1.021556575172993253e-01
1.100160703905496695e-01
4.618961542776290480e-02
1.123848551775114557e-01
3.702447501767790888e-02
8.134134715208266031e-02
1.252426442284561570e-01
1.419036958105094060e-01
1.119903846601321973e-01
1.090978444603285108e-01
1.365997059715474138e-01
9.744018708187407452e-02
1.379885375939553516e-01
1.470932770227494357e-01
1.943206231314885402e-01
1.890678965197669925e-01
2.134234538288966865e-01
1.800198265698204070e-01
1.422748818058212628e-01
1.502691859167619715e-01
2.087726799643310482e-01
2.086808536730474228e-01
1.756115318390778224e-01
1.687400869334314546e-01
1.897252501950748849e-01
1.991053266791621146e-01
1.632285405014761159e-01
1.487084871506904327e-01
2.432055891951341586e-01
1.694325021426268119e-01
1.783920482886514058e-01
1.919697027583401328e-01
2.201493267435780665e-01
2.322621181216473485e-01
1.595405814304846626e-01
2.395236524489029462e-01
1.566105634237227595e-01
2.288808295851958996e-01
1.983903352869947623e-01
2.413555615543423738e-01
2.236493868626889814e-01
2.052684721920172151e-01
1.848765446737170026e-01
1.293904516254507919e-01
1.965062785922290223e-01
1.678874201058414006e-01
1.719694896279250207e-01
1.211781977571687041e-01
1.170602565213656188e-01
1.456952573315832278e-01
1.384510065662311051e-01
1.224012705711111926e-01
1.272050433472668440e-01
1.416164040828441772e-01
1.680127594561945936e-01
1.597692136697943799e-01
8.713453774165666466e-02
1.199522374579476136e-01
1.169070725739368433e-01
5.860019607450223794e-02
9.856542159069908715e-02
2.845167077079181761e-02
3.254543874144676802e-02
9.758218542282276475e-02
4.059600380028174915e-02
3.960785513260401541e-02
4.501844890210218719e-02
6.525210034171391449e-02
5.227802961877307114e-02
6.856843496858579246e-02
2.218439835397301163e-02
4.262331026067275180e-02
-4.831209154424330465e-03
7.497464728335419271e-02
-1.456102742871503292e-02
-2.112240367615259018e-03
-2.633645688531743162e-02
-5.684805220894575267e-02
1.172615684083748444e-02
3.356398908277593435e-02
4.905044262036274694e-02
2.820086005547856045e-02
-1.818984353212133032e-02
-5.254659641736506015e-03
-3.456775915937668198e-03
7.770497450513273729e-03
-3.251687581662734972e-03
-1.916597520317692496e-02
2.358502522178280297e-02
-3.234404440113779200e-02
-2.254521915111232233e-03
3.706529165357907996e-03
-7.506411761921212566e-02
-2.273170144416116270e-02
-7.361510563193145174e-02
-1.021697553246133511e-02
-1.568702216053807774e-02
-4.366331568156687354e-02
-5.017351156970134562e-03
-4.278644758451211755e-02
-9.780193038804937955e-04
1.000317977116381429e-03
-5.565254137031915016e-02
-6.374410977172521864e-02
-8.035206199573638464e-02
-5.729863115800502144e-02
-1.419376547615593467e-02
-3.583479244938061331e-02
-1.859889825126159399e-02
4.108570446042292268e-03
-1.298268668912404625e-02
-4.409135226625693349e-02
-3.230637574952029134e-02
-2.707289244061920896e-02
-8.551393844891019835e-02
-1.867764253947024056e-03
-6.394424383237719278e-02
-3.767965129712128047e-04
-5.100907185909248076e-03
-3.421079825088421678e-02
2.232977254852801935e-02
-7.944893958830069602e-02
1.513721342111837981e-02
-1.328109155329158450e-02
3.001700984811384032e-02
-5.948182252314133944e-02
-2.530612924297317989e-02
-3.149599505418292783e-02
-4.278164853008582097e-02
3.633418865831229000e-02
-2.676886572645218593e-02
-3.639620709866259185e-03
-4.497928905766022945e-03
-1.525345005175197943e-03
-2.532386565663318281e-02
-1.789995533300495559e-02
1.747064570493120361e-02
2.343237059694365521e-02
1.473321760060088831e-02
-6.835790031437294356e-02
1.066286634338981659e-01
4.772419786779157763e-02
4.265724377616705171e-02
4.264211525950772214e-02
6.395250948423789050e-02
5.623115907820298159e-02
9.657083498439206215e-02
7.538758123482541817e-02
7.115858156616219898e-02
1.081479179160072801e-01
6.311150926321601462e-02
1.075604532443250605e-01
9.234613180642636809e-02
8.719485326226872335e-02
6.965346501830979586e-02
9.919216470009706299e-02
1.182706494778384410e-01
8.282895103480419907e-02
1.164597889254013474e-01
1.358334323790240661e-01
6.566172707863084101e-02
1.534223922743936652e-01
8.121947598228794474e-02
1.244397733561477953e-01
1.260621745797233795e-01
1.255954285331814801e-01
1.442840798951422199e-01
1.076028364470656418e-01
1.191236736975083838e-01
1.426060795174599327e-01
6.622243620603680825e-02
1.282950683640599610e-01
1.046329013255537788e-01
1.172239646806581270e-01
1.125053331052470601e-01
5.373591147091951598e-02
1.286804969117829045e-01
1.351455740308844522e-01
9.863125162255884093e-02
1.737830295021073057e-01
1.823456086228451845e-01
2.397834906388274234e-01
2.002432906882706254e-01
3.002089310996927107e-01
3.189691023821686899e-01
4.034027110860030074e-01
4.128786816419480199e-01
5.021277719609064105e-01
6.207866575381749685e-01
6.863970528759970602e-01
8.109488148272374630e-01
8.939146580129764263e-01
1.013595476516321980e+00
1.063063153178553932e+00
1.150901802533121465e+00
1.271344183891771840e+00
1.372387118576057441e+00
1.363218463525505797e+00
1.382790764829675334e+00
1.463781197623372776e+00
1.504264691522400055e+00
1.420152028967456737e+00
1.407038175517953293e+00
1.390899428114755088e+00
1.287782849362670179e+00
1.256966070751306175e+00
1.177467406576081510e+00
1.126692552333183883e+00
9.671709331393232301e-01
8.158750881736122063e-01
8.418569547013418086e-01
7.065383082001573944e-01
6.240208723584210748e-01
5.158559308469314875e-01
4.742668123374013112e-01
4.031126771727386315e-01
3.039303008476660350e-01
2.874759937425584999e-01
1.909661447944188684e-01
7.866549272955143668e-02
1.785676890224823510e-01
1.115009862979158689e-01
5.396173313579585851e-02
1.447229099183544310e-01
8.662577921926667424e-02
1.336390894123454520e-01
8.208660509320955811e-02
1.038611849521571817e-01
5.956471214572068434e-02
8.178251688295307131e-02
9.497949522419660284e-02
4.628097032787904797e-02
1.639334852609338200e-01
7.960072040717620923e-02
1.015783463412516796e-01
1.689179893466919158e-01
1.495209456524742297e-01
1.714266309739125860e-01
1.843475919601097468e-01
1.809552240650285915e-01
1.759038123067699355e-01
1.576643986392669006e-01
1.555506256418816013e-01
2.373469602836741355e-01
2.037600190270420220e-01
2.087217656185734738e-01
1.956367364818135113e-01
2.358530163081331288e-01
2.436849514641563352e-01
1.886396036576943047e-01
2.633977208520507096e-01
2.610343068293386470e-01
1.532462549568242016e-01
2.545662292980059860e-01
2.721825448002111458e-01
2.074769689889458535e-01
2.818843244895832267e-01
2.143836932543172202e-01
2.247335174194156626e-01
2.528287088883831024e-01
2.438417548817194969e-01
2.476116154079576193e-01
2.318390007341256664e-01
2.048571270974598180e-01
2.439829674776403112e-01
2.717374329966014135e-01
2.054535313358659965e-01
2.413461412548386364e-01
2.382348089597718099e-01
2.191217735672912892e-01
2.482951481491701695e-01
2.473370692323084707e-01
2.039852134800700934e-01
2.296098538612980910e-01
2.455803359185869394e-01
2.600394384618566201e-01
1.583067361466926615e-01
2.430355889416970505e-01
2.442482854669205117e-01
1.969386399649273311e-01
2.135655868732614648e-01
1.722122132684663631e-01
1.969361768043615402e-01
2.124095206782712630e-01
2.324498274757568761e-01
2.116553416056997095e-01
1.721360849996194653e-01
1.847731433498727704e-01
1.055799435931098484e-01
1.546632077397916694e-01
1.739201439801122961e-01
1.481833322451992785e-01
1.191883289841042942e-01
9.672156841807312555e-02
1.170465857373802765e-01
8.139060009591757294e-02
1.657563499331962675e-01
4.622794712958065710e-02
8.296037733427703842e-02
1.167967160327724463e-01
5.947424029557448616e-02
1.376671128165902758e-01
8.311822453894764096e-02
1.049214457602045958e-01
4.212903638931478345e-02
9.833721580518979544e-02
9.104448579573640177e-02
8.863556767772023948e-02
7.066006527147469796e-02
6.000239794393031484e-02
4.778197363766108208e-02
3.663046394103018633e-02
8.176087284401076238e-02
6.126910674522396960e-02
4.910384950058827025e-04
1.384587917269411439e-02
7.781486071523566195e-02
6.211587490312872606e-02
6.145850069788616477e-02
9.006204000790244898e-03
8.559683807231707742e-02
2.732741449399492262e-02
3.593562148414468360e-02
2.955257812080032062e-02
-3.336964665360524912e-03
3.788139115956620090e-02
6.919614686003884921e-03
-5.387782663561452995e-03
7.382852055671579317e-02
-1.899606508587673576e-02
-2.185392540557730412e-02
-2.290320656171879882e-02
6.314031336780934200e-02
-7.532962376421981077e-03
5.074246916176972794e-02
2.678838293278008181e-02
3.668917054153905677e-02
2.306997243277127824e-02
-2.160405198073728911e-02
1.775071750154694206e-02
2.127309278554015762e-02
4.960504162739611672e-02
-4.868451298328430737e-03
4.840200162297907116e-02
3.487781470768192005e-02
4.353070790866275103e-02
5.088195262071193090e-03
-3.383542708610014216e-03
3.878565655814825153e-02
8.251602954107140064e-02
4.991367983747071330e-02
2.320842593995629810e-02
7.223966166143930279e-02
4.928420818826435845e-02
4.997037590690650219e-03
-2.402979006326553049e-02
1.407301855887964012e-02
3.547557723802835516e-02
3.376183319214945411e-02
3.798983142848924577e-02
4.052617195303927222e-02
5.258236744627378667e-02
3.114663027272305401e-02
2.905758038046410419e-02
4.466925798665268010e-02
4.607300165790674529e-02
8.387664889081489217e-02
7.422891765968220312e-02
6.502856415725616346e-02
5.469194130106062868e-02
6.310137323498192508e-02
1.243803546225636936e-01
6.029858419516073015e-02
1.177432853159520731e-01
8.252283844804123025e-02
8.477471277485937318e-02
1.366764229105458806e-01
8.791288932175460313e-02
1.826272277730581761e-01
1.584035547481021933e-01
2.152870400584976918e-01
1.034768846190856351e-01
1.444224096968395599e-01
1.280122028248696364e-01
1.578997857972498087e-01
1.015717585082526048e-01
1.777068458746325075e-01
1.858619366633048886e-01
1.925874401802286362e-01
1.573850282111822207e-01
1.878302456556444899e-01
1.146743541410667200e-01
1.174499871056927797e-01
2.039846511754439817e-01
1.905029417965321825e-01
2.139088095889823959e-01
1.680358971096566900e-01
1.764197691097209586e-01
1.525679987154937023e-01
2.106404520808742575e-01
1.653381864272319146e-01
1.654193983439113946e-01
1.759656585339588186e-01
1.981426092043021558e-01
1.675476624891842625e-01
1.728923444631062789e-01
2.617619332998071258e-01
1.262791041270879266e-01
1.713745270294380896e-01
2.028338290876481043e-01
2.313485782223682341e-01
1.739858960789784637e-01
2.934729594799174723e-01
2.483459344598644425e-01
2.839059787505905375e-01
3.769922277198659577e-01
4.360693393425357223e-01
4.621800509044344252e-01
5.607837820075708413e-01
6.217422944503415705e-01
6.685023483022886071e-01
7.878739563702709114e-01
8.431690247202991983e-01
1.014303148223536732e+00
1.085138004892139962e+00
1.213555911839007351e+00
1.286609089041784726e+00
1.386652810595323526e+00
1.429598521583150372e+00
1.457562437121131094e+00
1.444115036592156676e+00
1.516918295929469140e+00
1.570801745267248695e+00
1.475026382541395398e+00
1.466637666792748540e+00
1.373122707845726653e+00
1.352019584337996960e+00
1.260953922777529934e+00
1.169832181429086404e+00
1.079707816851447788e+00
1.031814799961181306e+00
8.623339362009834197e-01
7.686217498610173893e-01
6.981650853898851983e-01
6.314561244698562170e-01
5.688653856896134231e-01
4.632844839550133154e-01
3.496338695992720624e-01
3.419261080960026566e-01
2.814495154084881157e-01
2.535332358470072656e-01
2.245189457657258136e-01
1.920561925149048832e-01
1.936494852620278539e-01
1.593848864433091150e-01
1.349025366269481219e-01
1.381723626010309125e-01
1.312518376173725243e-01
1.652799768701991856e-01
1.833926773133761623e-01
1.585769837910415148e-01
1.385165913597660448e-01
1.129293391495761745e-01
1.499938740026277306e-01
2.146977322036287272e-01
1.822496179766234237e-01
2.101884381270846813e-01
1.579456866345900212e-01
1.956827281954148234e-01
1.862975105480131066e-01
2.173868931139420757e-01
2.557257412698120680e-01
2.372194524679885064e-01
2.564992555309812960e-01
2.089835876146129423e-01
2.228149140420212226e-01
2.089330885037171681e-01
2.372471559956227383e-01
2.774158808158885825e-01
2.041480603753657030e-01
3.033704640763841276e-01
2.582036077965478849e-01
2.238756331970371549e-01
2.788502115358809652e-01
2.719862963518431265e-01
3.160197399901205628e-01
2.463700089468315313e-01
2.255605312870176959e-01
2.451039575844068397e-01
2.729216523143511708e-01
2.870967512871275273e-01
2.867633836157809646e-01
2.708902530454714852e-01
2.695777863661266704e-01
3.200019035795972355e-01
3.305796061938747754e-01
2.961983395331691526e-01
3.351086167667338689e-01
2.829666035088902465e-01
2.440460969149667314e-01
2.609809888684442303e-01
2.612550711902690836e-01
2.981115228210786672e-01
2.738069443124487856e-01
2.447673409069130446e-01
2.580855220957934959e-01
2.620065402169297619e-01
2.810148399164706934e-01
2.789582602563303593e-01
2.903979899495368056e-01
2.496640283354804590e-01
3.166116435765024550e-01
3.023344438481682106e-01
2.461718304953630088e-01
2.298012045178689788e-01
2.712286124140548815e-01
2.142678869636870931e-01
2.284541756788581457e-01
1.777559830811356600e-01
1.897208657407698784e-01
2.213357099745872636e-01
1.945642660287193737e-01
2.007030932867633344e-01
1.776970302104070032e-01
1.494937750800118259e-01
1.661559641861886094e-01
2.039861136987838053e-01
1.636751287813953681e-01
1.464591638415668196e-01
1.131203823629485516e-01
1.650141924924405923e-01
1.521270575064399000e-01
1.096298491530738606e-01
1.261272162737584746e-01
1.451199723710989153e-01
9.167415700483994012e-02
7.420855367439259387e-02
1.077443589411738178e-01
9.926443924012182118e-02
9.679079418309906313e-02
7.856464083666195308e-02
1.007913439583381643e-01
8.442464908208525964e-02
1.113675838565026111e-01
5.864880068726972817e-02
8.606837408938568246e-02
5.757084551657291188e-02
7.980657683188699392e-02
8.125598365828720637e-02
8.572381259458752845e-02
5.645475019706559100e-02
7.712760171038854362e-02
1.025758047040077892e-01
7.347210559644393180e-02
6.489632502217600185e-02
5.241354662736001646e-02
6.955543723282973934e-02
2.628771343780783587e-03
5.856468507003158297e-02
7.193611417197087743e-02
5.450339264046838439e-02
2.247041420798676081e-02
1.030026223010736264e-01
1.105983114177337689e-02
7.946975823707647102e-02
7.978026191777845555e-02
7.727935438171923410e-02
7.508257263319816077e-02
7.102110532131065967e-02
9.237930603862973267e-02
5.950655098028839046e-02
3.630166369103542817e-02
1.042344086768598604e-01
2.867322350634719796e-02
1.653798372895855240e-02
3.476032754238560230e-02
6.311095248285174264e-02
6.005232300974304438e-02
3.633881232757849022e-02
8.387769382190438106e-02
5.242840759142874257e-02
5.163323742552507895e-02
5.827974110208480885e-02
1.014967136645468088e-01
8.317722308571796896e-02
6.068204976280664603e-02
7.567946491457037961e-02
5.649705077244622509e-02
4.696840589434894686e-02
4.459553592634220298e-02
7.873619150708680015e-02
1.021604824442605558e-01
3.204038729361219362e-02
8.325056142036238449e-02
3.206492320925100753e-02
8.975779293403400583e-02
1.075019235967741016e-01
6.279559668364219360e-02
9.955085608317379431e-02
1.250725151457658946e-01
5.825565548007731465e-02
1.479513233328723920e-01
8.977993591310984289e-02
1.303271579876353614e-01
1.078426535146767007e-01
1.295454181747876521e-01
1.202985520223662369e-01
1.237747228529523097e-01
1.558955088491638663e-01
1.307649615635299578e-01
1.581447010944507792e-01
1.147849110702553743e-01
1.707946324444154229e-01
1.558206340229192910e-01
1.979884758026104197e-01
1.297985501489807014e-01
1.584126832139138852e-01
1.897720667924069071e-01
1.682071449956070164e-01
1.554128249120205751e-01
1.680733176936115014e-01
1.764870616018297533e-01
1.512598369128080322e-01
1.759441853684232671e-01
2.815733113797938003e-01
2.000417602782256221e-01
2.040194856259315848e-01
1.935311578711054470e-01
2.314460572514956960e-01
1.953908682649436734e-01
1.779901701467594410e-01
1.893281986391631699e-01
2.242793498877949654e-01
2.139707774664518780e-01
1.287333286968752599e-01
1.856173361805131816e-01
2.017256916110145293e-01
1.885121222235590921e-01
2.725804250073933788e-01
2.096292646053126429e-01
2.235713877246771064e-01
1.708079841989957326e-01
1.842731162350810525e-01
2.242614745853580560e-01
2.347852488645420788e-01
3.128906842843344749e-01
3.213141377481333327e-01
3.420222063270983992e-01
4.799669751857417177e-01
5.187004129872744285e-01
5.917971503773109543e-01
6.490862879549826880e-01
7.682339646773984621e-01
8.591301613911345170e-01
9.620782149118854987e-01
1.029762277449968844e+00
1.126908245335648706e+00
1.212032346409554595e+00
1.286678358013772172e+00
1.445855782569310133e+00
1.365334339543091025e+00
1.452726411691296571e+00
1.519585046148880236e+00
1.498865656893324294e+00
1.518174984151511753e+00
1.442304797951887707e+00
1.380058425015452395e+00
1.368368127421606184e+00
1.339612343293492547e+00
1.229833032741034504e+00
1.154579939718420878e+00
1.072206148499111888e+00
9.555070381034922455e-01
8.108892053279272982e-01
7.282745327961799298e-01
6.180201355998242718e-01
5.578271920244104454e-01
4.707523853146154957e-01
4.353198450477294701e-01
3.372704064846550054e-01
3.053039231525388475e-01
3.089215000781078135e-01
2.745736441067792577e-01
2.337285533720410147e-01
1.597706369073512433e-01
2.741084772466001462e-01
1.564416278158546059e-01
1.715087145721749529e-01
1.452474372614910303e-01
1.499376951301804595e-01
7.775590408686028354e-02
1.691845979166500258e-01
1.265538006808047122e-01
2.009185706232816948e-01
1.791859484952778858e-01
2.177905645284043956e-01
1.578841497275541572e-01
1.537958339755464698e-01
2.165259472615077840e-01
2.068098989898772833e-01
2.183872837185436289e-01
1.983224749516782348e-01
1.756775468653831995e-01
1.874680864580616779e-01
2.451412774832681385e-01
2.430817791921089377e-01
2.487714695527130648e-01
2.236478088761014726e-01
2.046147449599579893e-01
2.300791548781103701e-01
2.280148566922204911e-01
3.050319393325049977e-01
2.947501630856864119e-01
2.469630133138815409e-01
3.320331262195697630e-01
2.842348421289675464e-01
2.714250493056813429e-01
2.680132441381841146e-01
3.089943634367181002e-01
2.659860645309762850e-01
3.195236119295511434e-01
2.744190843538297786e-01
3.045922403689894642e-01
3.160763642548305441e-01
2.666747230303017080e-01
3.037176383484120890e-01
3.275079061056307417e-01
2.584006376554995876e-01
2.902912656881481146e-01
3.338369705075975857e-01
2.992893838698518216e-01
2.847638173829528108e-01
3.081700824316352949e-01
3.309328235930651951e-01
2.969076293887658036e-01
3.233041625865744062e-01
2.688406492420173377e-01
3.017814580363598065e-01
2.408769410532023980e-01
3.134154952758678170e-01
2.573945807716825351e-01
2.530797109660604671e-01
2.864477349017430230e-01
2.426440370117018130e-01
2.282622379579823946e-01
2.115874021497869684e-01
2.344587974628040694e-01
2.098852602305110171e-01
2.026216599234256788e-01
2.355204540005992053e-01
2.234768545325074296e-01
1.621921517970507653e-01
1.556716653819145146e-01
1.223966795577724476e-01
1.316471467135574835e-01
2.302090978266282950e-01
1.554619664489136077e-01
1.774767882858946377e-01
1.523442931723134885e-01
1.717390132619663334e-01
1.673943521725332895e-01
7.996796281020475405e-02
1.282058997621857988e-01
1.273599927464570680e-01
1.354792212544514429e-01
9.862691866209552516e-02
1.197475187521542944e-01
9.082647729474177534e-02
7.226662496243402289e-02
8.638143717712079561e-02
6.242440437695138955e-02
1.174140399146296337e-01
8.257146894685682414e-02
5.408850681030297203e-02
7.568207113933916874e-02
7.506736931769926457e-02
3.903437441659068918e-02
9.179514755601139719e-02
6.088477782911173863e-02
7.560069544276457054e-02
4.896225741279097710e-02
3.160173398927501598e-02
2.298904597338428252e-02
7.692625755367347995e-02
7.731215493381640713e-02
2.876722125082700407e-02
2.534441338247645989e-02
1.990612953565912974e-03
6.876346149434003907e-02
5.431639136287868402e-02
9.229515545595826098e-03
9.795566446056225285e-02
5.146477357854063045e-02
2.449281892996334198e-02
5.859971801039937089e-02
3.077100069726385403e-02
-5.536400279540810987e-03
7.850237075152043803e-03
3.660010815445762650e-02
3.491872266126767183e-02
2.306885697201565763e-02
5.990522686605136149e-02
-7.440962768648317488e-03
2.547740471257526826e-02
1.760047107971442898e-02
6.527007845572102562e-02
1.286083712347674789e-02
5.119750914395768127e-02
7.310063931107163571e-02
3.455268029372468575e-02
5.376556340144462987e-02
5.381258223773621729e-02
5.636244200537871007e-02
1.504613247308442953e-03
3.483621155927443813e-02
-1.604863816846713309e-05
6.512879642292897231e-02
-1.687869867442882976e-02
5.067393712206546413e-02
3.322668188247845933e-02
2.837422702403010963e-02
-1.374464561947308372e-02
3.967244951154674099e-02
3.375894573785665626e-03
3.532483102667115238e-02
5.219392922141986163e-02
5.358427516469098373e-02
4.370418938288120336e-02
2.241340800344376188e-02
5.552760502025532591e-02
1.132969933186359773e-01
4.610271702560474194e-02
7.060190769364778351e-02
1.050585382636721188e-01
9.037791120607549522e-02
8.007778632259901497e-02
3.350462444268194340e-02
7.574149141051020329e-02
1.028386190782127618e-01
1.041791267402883692e-01
1.260713544899210170e-01
5.815047351484421700e-02
7.334980465967176622e-02
1.332650800640009514e-01
8.600005358842038872e-02
1.028250173073973761e-01
1.266531154559396577e-01
1.420330772930372132e-01
1.561298300657193994e-01
2.327907745747405110e-01
1.663539030398701324e-01
1.553653410749996355e-01
1.472183469840058767e-01
1.945844748174189454e-01
1.117547301383711583e-01
1.415535772645505341e-01
1.480410449088543079e-01
1.619619520572127547e-01
1.600739439550873389e-01
1.525886356567600355e-01
1.627213366435639186e-01
1.786636717367484084e-01
1.112642156611727690e-01
1.850767408279384296e-01
1.011479346172744764e-01
1.169826583924845342e-01
1.491410389506409584e-01
1.339997840080978941e-01
1.624890849158050488e-01
1.878119233536615917e-01
1.065895774567608423e-01
1.460409205587705206e-01
9.637509596601162576e-02
1.791423939668354004e-01
2.081409095785242136e-01
2.014535899549365350e-01
2.623709966451105435e-01
2.965176965809867560e-01
3.147756250437427905e-01
3.963644901551440225e-01
4.129341526772460913e-01
5.047207271255375050e-01
6.039167232273563446e-01
6.855920919861523410e-01
7.698350894506180708e-01
8.712405488162140443e-01
9.519681361093524918e-01
1.060063489528061842e+00
1.130697190980622713e+00
1.252914692599002455e+00
1.341721041109230850e+00
1.367925594672743772e+00
1.431971079704146277e+00
1.444124558338960806e+00
1.510023855833624085e+00
1.516434730409643050e+00
1.482386255339441572e+00
1.460416647845686366e+00
1.411367328568542634e+00
1.324682674668019144e+00
1.282560077863464709e+00
1.143112234676156413e+00
1.003295376253208415e+00
9.434792793596362692e-01
8.530185875526128392e-01
6.972107245184853141e-01
7.074645341987524372e-01
5.799743518775060114e-01
4.761441322032368695e-01
4.362927891918759182e-01
3.570701959216285859e-01
3.117231141887092938e-01
2.783543278728321524e-01
2.374649641895552055e-01
2.142294717524719228e-01
1.780129568743308854e-01
1.502653870179925799e-01
1.104374624459138754e-01
1.308001656278095504e-01
9.901412121958662327e-02
1.063135342070263556e-01
1.254655106201244819e-01
1.018053877967629722e-01
8.905074014569483443e-02
1.474021428715190929e-01
1.435905717898499634e-01
8.658314149413527672e-02
1.192463651548882342e-01
1.186364862933464853e-01
1.028414482642901612e-01
1.266553601179327138e-01
1.378343406783487102e-01
1.345713903749933549e-01
1.386608709986777987e-01
1.842557232902621300e-01
1.366599623940668029e-01
1.835142852129270641e-01
2.056276089072749946e-01
1.895011944191262732e-01
1.934139337969893180e-01
1.716059348065819834e-01
2.151578160025580111e-01
1.539313819443705877e-01
2.225560533333677815e-01
2.229179227300510657e-01
2.019244007996258417e-01
1.930733289641662354e-01
1.876480542569535503e-01
2.869691395191921734e-01
1.920097055356519145e-01
2.046281040456217337e-01
2.098623952409864879e-01
2.512047011972594057e-01
2.334018335888682905e-01
2.368857708632055026e-01
2.378924796750625237e-01
2.226294352015879552e-01
2.870242693091535346e-01
2.973995000238461861e-01
2.971562121714226845e-01
2.143208047615275114e-01
2.174556975995236285e-01
2.094822617566666489e-01
2.364523816451681859e-01
2.377574616057432644e-01
1.794477796709685047e-01
2.167202711010496885e-01
2.433838875886988606e-01
2.463272891325048730e-01
1.909791045987181968e-01
1.816563979507933024e-01
2.029656645977512830e-01
1.864499394246040276e-01
2.226292390489275907e-01
2.158727569733286944e-01
2.229197517825174113e-01
1.440040557793888509e-01
1.475884024020726326e-01
1.649614789833267758e-01
9.961691348343015839e-02
1.720831187649665972e-01
1.556218419648059681e-01
1.836860939440353169e-01
1.613728635276980572e-01
1.485667393051767482e-01
1.221148218566853877e-01
1.324650672921268146e-01
1.693303836255199979e-01
1.142786801553786341e-01
8.286274529269135880e-02
9.715841218486938324e-02
1.189231763402300163e-01
1.064206451333090386e-01
9.992795216316890938e-02
8.046573686214666954e-02
7.638875419913715437e-02
1.012906050752690190e-01
4.910258060454170820e-02
3.622601237613766456e-02
3.164402473071718791e-02
5.537608194325648048e-02
1.252869998879498764e-02
3.497389005278597751e-02
1.002122698447430182e-02
3.533439075946399888e-02
-2.875032664655261666e-02
7.012413312493696177e-03
3.401004802919593839e-02
4.918057350454597271e-02
2.229417812539580268e-02
-3.449492308857279865e-02
-2.160960974233029630e-02
1.710029514676039350e-02
5.876247974831372983e-03
3.619617854618294855e-02
5.326547636859714496e-02
5.055583365210360863e-03
-3.341168972081370175e-02
3.040530954487998330e-02
-4.763689485577503324e-02
-2.603520200098323467e-02
-9.481040038620540400e-03
-1.491542431754462258e-02
-6.710539591000326543e-03
-6.816547433292172165e-03
-2.488841594412635402e-02
-3.434489168612026022e-02
-5.341670802240854055e-02
3.344928998323560415e-02
-3.869583302223029292e-02
-4.377296747660134463e-02
-5.544265348931638748e-02
-6.624776884392155618e-02
-5.218286639199085086e-03
1.003522983384325107e-02
-2.779258074026551284e-02
-1.113698538538116650e-02
-3.089274031386451264e-02
-3.670747006962597064e-02
-4.859489842744220411e-02
-6.884595689140715624e-02
-5.033669154549573477e-02
6.032584827498875535e-04
-2.659227024179627169e-02
-6.053748880002696175e-02
-4.659415818644048468e-02
-4.171684087562743670e-02
-1.466113197049883840e-02
-2.245721860786365973e-02
-7.047403238397162428e-02
-1.864829523085097945e-02
-3.054235339577244385e-02
-9.964159810632127606e-03
2.031137144169528619e-02
-3.564916692299666817e-02
1.736492895183947699e-02
-1.172976226421237889e-02
-8.616098355217077787e-02
3.074361932686228011e-02
-2.316417794342687589e-02
-3.509366260548710259e-02
-4.443239596302775429e-02
-1.986822142226771226e-03
-3.172843627290530127e-02
-9.049488225720755952e-03
-5.903902538108625475e-02
3.059632879444461329e-03
-3.471754926373982891e-02
-8.980074262328732737e-02
-3.363900270359031913e-02
-9.746786092764293807e-02
-2.976286086529451869e-02
-1.421275240209900897e-02
-4.917102514247966710e-02
-4.507852881273063939e-02
-5.016577798296347618e-02
-6.055541923308441210e-02
8.698752295175020410e-03
-3.745975311583475686e-02
-8.673209189148219089e-02
