1.462771238388108852e+00
1.386346345359509291e+00
1.425269038834810598e+00
1.362464164633642616e+00
1.301342881188848777e+00
1.255819873736871983e+00
1.107241774392630385e+00
1.043873641622827142e+00
9.030473261183696865e-01
8.743200818692489218e-01
7.327653644435565550e-01
6.280171729662636926e-01
5.233271126527518913e-01
5.128614974100829116e-01
4.190099765853360081e-01
3.894377300613943160e-01
3.320413319503947580e-01
2.609582128819067925e-01
1.641511528361705163e-01
1.477861182931171358e-01
1.359158521404194297e-01
1.496412023409531833e-01
1.697901844186155695e-01
9.799819487739774848e-02
4.633965856814412088e-02
9.762629230170043193e-02
9.498574379548140045e-02
5.862596424903084719e-02
9.307830197527525162e-02
4.784703732513742591e-02
4.726658477759723698e-02
1.294798319478696891e-01
9.006224614019749108e-02
1.394268569493550824e-01
9.044288188861934752e-02
1.034714955519121932e-01
1.413938155424689369e-01
6.882674298531527013e-02
1.327685809522148042e-01
1.178946967510111909e-01
1.039804541158909357e-01
1.184579073439912672e-01
1.520596333863517002e-01
1.784548411769912024e-01
2.007498832015569001e-01
1.551428457589076326e-01
1.895881394761217420e-01
2.305104456634786692e-01
1.847787284974217181e-01
2.107255476433346764e-01
1.823253651274039655e-01
2.534587603575658155e-01
1.988243160622498173e-01
1.529699566238521546e-01
2.355534482809039376e-01
2.343298019620562167e-01
2.463190758634623001e-01
1.718905483808095824e-01
2.044472055861920878e-01
1.629546233249954124e-01
1.433628940164586585e-01
1.981619342846436815e-01
2.106082466275376597e-01
1.957593179139500983e-01
2.127296943234800175e-01
2.266419591760061303e-01
2.787220907631457467e-01
2.003630212754716755e-01
1.395026969782288961e-01
1.516529100391679208e-01
1.921289771125040957e-01
1.888819548683261240e-01
1.813572501896075495e-01
2.513798708241129498e-01
1.662132462424378843e-01
1.714659108145471789e-01
1.934876588780217177e-01
1.428269344829535270e-01
1.420409480474879582e-01
1.925374412495994003e-01
1.640833963956971064e-01
1.569939661389927188e-01
1.056686772369170996e-01
1.936305763190579732e-01
2.043393053766323630e-01
5.637458584982520116e-02
1.051795276861821060e-01
9.451636478568274657e-02
9.829928680839872257e-02
9.029318101105743288e-02
6.253265999500559613e-02
8.429322823222157313e-02
4.874708475922864132e-02
5.716884646522957247e-02
9.221554556544889203e-02
3.570718130629105952e-02
6.655468334639147443e-02
9.625620901573773980e-02
5.237837069081428820e-02
5.439884319379560684e-02
6.620510009663535533e-02
4.004460781778278189e-02
1.673870604418928321e-02
4.347754851785557567e-02
7.147177724882922134e-03
-1.765028070745956745e-02
3.177280678996272784e-02
1.095454040130244139e-02
-1.044516654182103821e-02
4.833210635733724281e-02
1.041216703502441387e-02
2.350542675335143966e-02
-6.888306140367325692e-04
2.096130200443128977e-02
-2.770408158073381366e-02
-5.703320114773158256e-02
-3.509365427840267782e-02
6.003214046036722817e-03
-6.288110286785948688e-02
-1.840467642904587003e-02
-1.300927848637007528e-02
1.217002396835303174e-02
3.401416322363084999e-03
-5.623489944872019086e-02
-5.887871619780322974e-02
4.346756886330661873e-02
2.958284477820567748e-02
-6.987295951681918305e-02
-5.902255101994494102e-02
-1.425820423326408515e-02
-8.458015710647390217e-02
-4.865707211518713327e-02
-4.535041826020051736e-02
-2.986448873353924477e-02
-8.809196421286608070e-03
4.693985713552270567e-03
-5.867603458300411912e-02
-5.932465988607050350e-02
-1.926053916937692234e-02
-2.696277002081873264e-03
-3.737912683355815169e-02
-6.313441517188225771e-03
-3.369734157887717407e-02
-3.562754396428979842e-02
-5.369786369527048547e-02
-7.661987219234794866e-02
-7.444918910594053307e-02
-6.097830290741966530e-02
-2.602318425346874034e-02
-2.337595464338002374e-02
-3.906967909640497727e-02
-6.455324955921973307e-02
-3.409755172337488455e-02
-6.717899064184393310e-02
-5.423671184900299980e-02
-4.113104796669347918e-02
-4.172776147811936565e-02
-7.384934923327009237e-02
-3.156315302967879766e-02
-3.615524340375285417e-02
3.414168703906567126e-03
-4.613980721293643728e-02
4.394199296123571519e-03
2.369739488830296253e-02
-3.019753335048902879e-02
2.553185727898761581e-03
3.903927509882923474e-02
-6.592633572573308731e-02
-2.071729600657210707e-02
6.463714968290418250e-02
1.817168798156423154e-02
2.782673749024673626e-02
-2.883022178243254546e-02
2.432572700811526378e-02
3.108354544552815318e-02
1.103561588030876894e-02
3.914923891303384584e-02
-2.091261192554119686e-02
8.302054185363602623e-02
9.700576243830141832e-02
1.479224239615634789e-02
6.542200188165989139e-02
3.777987198578833944e-02
8.197696598337957108e-02
7.118152179353920417e-02
6.998403102215636218e-02
1.077853989356079012e-01
1.174907799323536561e-01
4.491679176005642510e-02
1.360308304780779853e-01
1.078431368570812177e-01
6.474170834839820809e-02
1.021288401113063793e-01
9.019421892128728913e-02
1.063216556110488931e-01
1.002759515177399363e-01
8.009949915405412124e-02
7.503789145318924547e-02
8.253681609799268237e-02
7.049478983404255938e-02
1.390799510516250170e-01
9.035801151021694011e-02
9.412829207080911087e-02
1.147916494675370047e-01
1.409619340550221644e-01
8.909117940216269849e-02
1.137836004775309440e-01
9.595486365612612700e-02
1.030208082367402578e-01
9.055083113462883415e-02
1.014136133634473691e-01
1.414021444194160926e-01
1.321127229197267550e-01
1.303832700985054771e-01
1.786457472887062747e-01
1.950968368475970716e-01
2.685452714852502032e-01
2.528351750519399199e-01
3.739832855069610829e-01
4.409193528249850669e-01
5.111827632994068171e-01
5.511136849996867149e-01
6.573109203896357888e-01
7.676524961773908418e-01
8.249386251710831841e-01
9.163201827787171849e-01
1.042968938473706197e+00
1.136675281165677953e+00
1.238420866153126854e+00
1.295843539356812846e+00
1.287076319453446471e+00
1.381157171890210034e+00
1.435568489752145238e+00
1.408551655260709579e+00
1.431468958747571740e+00
1.365174889150329474e+00
1.342468600030527481e+00
1.296086901262343938e+00
1.264987709634850965e+00
1.123102791589185578e+00
1.051129839193720272e+00
9.280798705489312628e-01
8.162086272770993078e-01
7.358134665667935836e-01
6.408216969318486500e-01
5.533473405262636646e-01
4.865508729092888340e-01
3.971687855082075558e-01
3.041207608286494724e-01
2.764973669042870563e-01
2.550285273774589023e-01
2.265579734460104744e-01
1.827174375517984783e-01
1.454010295742780290e-01
1.044263495511401629e-01
3.725789370557766600e-02
5.113202290646200188e-02
9.865330593366977707e-02
1.265854633447376365e-01
4.691407343992362589e-02
9.810748751311912375e-02
5.442222511455647310e-02
5.397281321437122359e-02
9.288236957164358598e-02
6.851630215402379487e-02
4.713964068832472015e-02
8.326915252457726957e-02
8.912155490627321486e-02
6.094957591789377377e-02
1.528774844411947553e-01
1.283328419017890631e-01
1.065457873117714449e-01
9.988481821835254459e-02
1.332034910811659145e-01
1.091958733531757653e-01
1.484956669691687436e-01
8.584465378537978197e-02
1.450983504436695604e-01
2.316305338199683705e-01
1.676805386142692367e-01
1.194037426031816229e-01
2.206821817444636902e-01
1.994340364242251362e-01
1.760521581723425988e-01
2.150965645038824536e-01
1.445793923039123130e-01
1.773179707817068573e-01
2.160782437631358077e-01
2.465220815169585633e-01
1.649401968270312602e-01
1.222433335448570579e-01
2.223896037974125994e-01
2.188276969590650101e-01
1.845962683371033253e-01
2.233286722261362822e-01
2.228859917916548861e-01
2.411716296978009821e-01
2.456265907724061170e-01
1.974197808912553365e-01
2.157653810117693416e-01
1.912188154063707290e-01
2.249187325064561649e-01
1.952708446598731273e-01
2.533747908962927786e-01
2.016975569503184351e-01
1.753808743706668782e-01
1.705115756147021766e-01
1.785446836244095892e-01
1.959696407913097127e-01
2.220202595466974349e-01
1.916014633977327075e-01
1.816432195947630945e-01
1.545809378977439363e-01
1.422886525922493761e-01
1.116418899327668440e-01
1.800900936554503673e-01
1.386632103878851496e-01
1.678444218682728917e-01
1.387404903512581278e-01
9.363235743523021237e-02
1.168623056103483410e-01
1.723678314634715103e-01
1.481731406300585419e-01
7.436131625879212337e-02
7.609305601237488503e-02
1.245627939135207918e-01
9.335967603427054728e-02
1.320801242225067285e-01
9.747897363443386309e-02
1.407615573952455956e-03
3.305028048857511919e-02
4.108115117664903893e-02
9.261672775811408131e-02
1.221497716782015963e-01
7.290706016525848321e-02
1.984388882093961193e-02
1.023765258951027518e-01
3.652807995619136716e-02
5.438774994518506822e-02
1.068349039189942645e-01
2.220160292593740398e-02
5.537342311378229409e-03
6.952127916301961696e-02
-2.467122317033658419e-03
-2.005512857145918051e-02
5.898974923681810090e-02
1.716890449195651591e-02
2.235290994177588017e-02
3.643103502509130454e-02
8.200144544411559766e-02
2.673958751071213100e-02
3.251739737018020937e-02
-5.628875099494385498e-02
4.194531949651009173e-02
4.744074905888449184e-02
-4.130850124982120980e-02
-1.241403393080014322e-02
1.053117027037282771e-02
3.063943869058301586e-02
-6.728535272792866839e-02
-1.567829327797940625e-02
-4.351507829196142596e-02
-9.199897577554076722e-02
4.617607084924535421e-03
-2.312461763580749008e-02
8.047383882996181348e-03
-3.405962999908573874e-02
7.134130195877722708e-03
-4.615947465612751238e-02
-5.557287781271319504e-02
-1.052136738479709024e-02
-3.172928053202894033e-02
-5.473760112228884256e-02
-2.602072987399176376e-02
-6.258376335212594010e-02
-7.640766670728308188e-03
-3.262066997447392314e-02
-2.331404964994710644e-02
-1.828094348884417436e-02
-1.663703877354721916e-02
-3.687561102667165358e-02
-5.118610802485946965e-02
-1.210558167064799961e-03
1.409159518022371632e-03
-1.723817930091012599e-02
-3.373823630836836340e-02
-9.294121862204142090e-03
-3.033051505908119366e-02
-2.833532654710826937e-03
-5.867342701854585951e-02
-1.567040495435158970e-02
2.963011924471539021e-03
3.586031021620939008e-02
-1.811859828925323906e-02
6.117619971025918535e-02
4.852522581701825682e-02
5.071214139024613973e-03
2.556067364283688345e-02
2.716884130218367305e-02
-3.150495639025429478e-02
4.592107136065892714e-02
3.475168947093751348e-03
4.890028812321303708e-02
4.912423722701553253e-02
2.224467860341446113e-02
4.907602139854348733e-02
5.558138648476748656e-02
2.897751574644644168e-02
1.888091031034184672e-02
-2.100373254684738400e-02
5.945193289160196487e-02
9.377351026706864934e-02
5.998858075012847985e-02
9.791503746991661594e-02
1.399361077214306137e-01
1.054206162757397452e-01
1.141799463026829109e-01
8.239627624712388132e-02
1.265190971647509321e-01
1.319828738881923813e-01
1.330637265953801829e-01
1.269553869657933931e-01
1.633297591825004502e-01
7.420256183208140399e-02
1.310943994153808967e-01
1.438926220032345493e-01
9.823154129572787829e-02
1.764681292929831391e-01
1.304110014107934257e-01
1.618549546682646889e-01
1.460656120662413016e-01
1.243578278464991943e-01
1.303133244589700646e-01
1.505768682292633054e-01
9.893143221865235981e-02
1.332362230374251610e-01
1.471176707761378544e-01
1.355337740169644811e-01
9.354270256576839582e-02
1.471653670812157755e-01
1.208524403024083677e-01
1.677052442944396426e-01
1.858726574389898967e-01
1.270069518445305357e-01
1.355216193717465045e-01
1.639859710206949817e-01
2.075682187414800706e-01
2.063862084493927607e-01
2.273051151568309391e-01
3.085394017228040853e-01
3.232501979899490285e-01
4.504756822608383393e-01
4.345053603042063339e-01
5.255523895530644918e-01
5.793058740851101396e-01
7.174367773808673077e-01
7.724141934563678591e-01
9.028736664641420218e-01
1.039322132367233031e+00
1.055004409838213197e+00
1.222303956732623043e+00
1.321337413322279275e+00
1.390938499111623372e+00
1.452856285258806057e+00
1.467075089562343670e+00
1.434837743388594600e+00
1.449978013382793529e+00
1.425293603431149636e+00
1.449469643047110345e+00
1.341875271584122231e+00
1.353492160881140771e+00
1.294962236390690968e+00
1.150175151671414708e+00
1.062897660037473102e+00
9.033831716529351352e-01
8.917711405979241723e-01
8.183652473326704646e-01
7.217950434660691528e-01
5.665001630528309073e-01
5.366972426075206082e-01
4.496105318563705100e-01
3.599681142830599145e-01
3.025937927931435789e-01
3.050595911154300177e-01
2.152768767862479893e-01
2.165248334098308081e-01
1.923449054875190634e-01
1.246047768739510647e-01
2.111777503115119525e-01
1.140744706453273721e-01
1.010910862115467490e-01
8.885041412530990390e-02
1.227558705153192209e-01
1.003433494522567582e-01
1.381342960271418618e-01
1.500023108119256654e-01
1.445938761519861560e-01
1.237186810783534319e-01
8.130800943151460236e-02
7.915095295341069426e-02
2.140103261355681963e-01
1.880060584357215459e-01
1.127516137145792852e-01
1.600472781086865193e-01
1.714298685564474012e-01
2.394713971638054717e-01
1.845518850747100981e-01
1.575824308499932658e-01
1.735541243420632151e-01
2.193887697326024344e-01
2.427981881467733971e-01
2.399855046057625119e-01
1.874661691650639506e-01
2.003195670742061174e-01
2.378626734620851724e-01
2.608009809031388015e-01
2.205295326698068215e-01
2.626542920661576463e-01
2.691149144033480045e-01
2.538757713665493743e-01
2.265629741725039559e-01
2.235918139282825068e-01
2.778851098723026936e-01
2.369176164137510865e-01
2.743676230649196857e-01
2.681406676947036272e-01
2.003692025986128777e-01
2.710881651439464579e-01
2.626962794888583197e-01
2.405919312888415984e-01
2.338992005616484515e-01
3.183137105012491253e-01
2.544375650833643476e-01
2.473793218843260977e-01
2.815097869372496509e-01
2.662629698594540795e-01
2.432517104138696984e-01
2.795415505940707646e-01
2.715322800113705304e-01
2.562582107466622183e-01
2.375500143349553728e-01
2.555087630030478674e-01
2.535750392389712893e-01
2.191804500939101841e-01
2.286900280470360314e-01
2.439247107291687144e-01
1.938164859063996326e-01
1.766707430570352844e-01
1.821161351714677135e-01
1.926416187059156182e-01
2.021218208434075181e-01
1.668879921577606784e-01
2.027039360281054359e-01
1.366428379874329579e-01
1.146676976054029073e-01
1.757298338701854812e-01
2.259947425021353595e-01
1.528678279889674196e-01
1.403690634374204771e-01
1.309356969880567378e-01
1.111171267620757325e-01
1.458710950126608785e-01
1.655570996634417869e-01
8.706357940416115104e-02
1.687423298731133836e-01
1.500253283966336004e-01
9.575402449076364508e-02
1.282429490828654595e-01
5.839291137747104621e-02
1.581833044888462658e-01
6.957045641481121589e-02
9.886725002918567151e-02
6.124112772854361370e-02
1.160171817842858277e-01
4.847341939412828926e-02
5.760072084933316044e-02
6.295389045528899941e-02
7.615167608219867990e-02
8.851683836453276555e-02
6.055150694547912354e-02
4.198928967170682813e-02
7.939019765795889139e-02
5.617469008446156209e-02
2.839223374665644437e-02
4.196685833128874915e-02
5.285549963160749570e-02
5.864596829740373329e-03
2.195342647575658501e-02
3.808972247785307602e-02
2.610796792414448592e-02
1.160343424474518867e-02
8.902894456264499878e-02
4.851274987167492059e-02
2.551065328155842360e-02
7.288075672302973818e-02
5.717412690145960014e-02
2.693907642050037687e-02
8.493564993307892164e-02
4.894945822823101172e-02
-1.609906460042355436e-02
4.252410623980275306e-02
2.064315054594358795e-02
2.698264963341974465e-03
-7.159327130085144097e-03
1.320366027448566237e-02
3.514236758351120538e-02
2.573383809100811617e-02
4.870545628818721828e-02
7.158725775403443348e-02
2.378756512389836736e-02
3.170877646757158663e-02
5.478189614259548063e-02
6.085157542297465333e-02
3.606267452986103295e-02
2.815558726616665744e-02
-4.564343709705306895e-03
4.912778887867589456e-02
7.584689251174842051e-02
6.619094526644644927e-02
9.301157795004319495e-02
5.508487800897380465e-02
8.162858726180471924e-02
5.344823561226831610e-02
4.323361532108515454e-02
4.945386153348871328e-03
9.427581218789404804e-02
8.938399829166218669e-02
3.094823031451841844e-02
5.678265674072917324e-02
1.182265911123744906e-02
4.178826097587352850e-02
4.156181172618279157e-02
6.546266822494585524e-02
1.248220816027589830e-01
6.757318918449882472e-02
1.238394311922771662e-01
9.747631491094269074e-02
6.376957357322274311e-02
7.384913410762770913e-02
7.184027089655511955e-02
1.154405592886289939e-01
3.787695882275245174e-02
1.605922532283133308e-01
1.233047794840714806e-01
1.369745725470387088e-01
1.638873032959274334e-01
1.777628427979195957e-01
1.564022812884035829e-01
1.868734392404909350e-01
1.353455020235870554e-01
1.894783586093393424e-01
1.354437978220032479e-01
1.972140906261740934e-01
1.946164914235773702e-01
2.156487636079394976e-01
1.253677989517388569e-01
2.153634419944989997e-01
1.963641256918469691e-01
1.890661499661236700e-01
1.804816389890919470e-01
1.860376161768829695e-01
2.626695318077498786e-01
1.890961840263477856e-01
2.060635959544265539e-01
2.143337712599991951e-01
1.721282950749965790e-01
2.223271107105949107e-01
1.669906825245774940e-01
2.205378242761145691e-01
1.624304796116875504e-01
1.706341648518479859e-01
2.063503299162733062e-01
1.901200810494513282e-01
1.988418840655374609e-01
1.559075945448542555e-01
2.395736001116127167e-01
1.497833322517952703e-01
2.405236156062308117e-01
2.412819327252081480e-01
2.264108727039844948e-01
2.795065164838688165e-01
3.192138964643236321e-01
3.355965171532799274e-01
3.741813031491175723e-01
4.632308034476205760e-01
5.620598417634530275e-01
5.636410354192726846e-01
6.883463953847409611e-01
7.696300918790773826e-01
9.046727204891494845e-01
9.825686890452075550e-01
1.071818157476449151e+00
1.184496671137154955e+00
1.234564506776002268e+00
1.303865503341014920e+00
1.409975529589655441e+00
1.420933053053308637e+00
1.528820840211835730e+00
1.478955870513243065e+00
1.490287305360592507e+00
1.494020112334856876e+00
1.460364728802409973e+00
1.422100021726493191e+00
1.324014729426224113e+00
1.286843092897065555e+00
1.217473970881316037e+00
1.141752088656068143e+00
1.032266755695338656e+00
9.472036338598726068e-01
8.502502558924590614e-01
7.059118890918049116e-01
6.848823516318862659e-01
5.594035882528465287e-01
4.241653074560099990e-01
4.110787196904377438e-01
3.808155361156829732e-01
3.723884851009900410e-01
3.233011850532493403e-01
1.968081506663863778e-01
1.917620236099475961e-01
2.129113057006982723e-01
1.949095827624795219e-01
1.793184607679305653e-01
1.794394238969122535e-01
1.146289503746648619e-01
1.572821905713697455e-01
1.599821703406921203e-01
1.329901409192991157e-01
1.629470037266531335e-01
1.696713331595881280e-01
1.730633203561835753e-01
2.356065427094731768e-01
1.935205853918524621e-01
1.800621298073613319e-01
1.648596522633057337e-01
2.361359075161192644e-01
2.125625985275116925e-01
1.931777885464068256e-01
1.752216008905383982e-01
2.491542015430672219e-01
2.448494648305363508e-01
2.121149834969863757e-01
2.201141319060097024e-01
2.490649245852468441e-01
2.844840780313275252e-01
2.658312325235542839e-01
2.338940093049512448e-01
3.073118764848334905e-01
2.755752748269372221e-01
2.528234795807043356e-01
2.703901532214196268e-01
2.875076891204071394e-01
3.198611272764372848e-01
2.822677510882329877e-01
2.475693127359658574e-01
2.741478068094392873e-01
3.559571488975939446e-01
3.545658129318095542e-01
3.179251494852902704e-01
2.364966584684228823e-01
3.618459842716310604e-01
2.772992420415804626e-01
3.268126940067325181e-01
3.024115632150983224e-01
3.209784242693883849e-01
3.117844301459922751e-01
3.031969889558119302e-01
2.902019449649970717e-01
2.618112653714510518e-01
2.639623995622804031e-01
2.887174584429741953e-01
2.710393506888552073e-01
2.807333311668854248e-01
3.062744975863959107e-01
2.950927769757994423e-01
2.822735046748411358e-01
2.761321118767600669e-01
2.683364981312518771e-01
2.889896543546650598e-01
2.572128827712242827e-01
2.217291395584284341e-01
3.161606244287800682e-01
2.219166596633544986e-01
1.809323857397061586e-01
2.243536971925392254e-01
1.839427139515085741e-01
1.749379153371341533e-01
2.133886110317101403e-01
2.133501501197964112e-01
1.685129114094414404e-01
1.824864957723917325e-01
2.208083380869493850e-01
1.276554758026975933e-01
1.767575886198608504e-01
1.490313949995253906e-01
1.693328699939750936e-01
1.435159356776126438e-01
1.141876262123589225e-01
1.649020225134274487e-01
2.027373973100092264e-01
1.555408634832723680e-01
1.293512067655658848e-01
1.496156757171795137e-01
1.199083004401565039e-01
1.672515785270193289e-01
1.172292723603162584e-01
1.632996033916960243e-01
1.319586043733151914e-01
1.173335382386498371e-01
1.070651989725918407e-01
1.069166816167375911e-01
5.563826345265605183e-02
8.973940535490393389e-02
1.370162068631681218e-01
6.764994472514196389e-02
7.549963418825034189e-02
9.988721684923959621e-02
3.148143312402137267e-02
4.294411240435587473e-02
1.169163079314707310e-01
6.310124517333561001e-02
1.167128258475205460e-01
9.126325355892635216e-02
5.301240480199372745e-02
9.778818247213405535e-02
5.334347135566871317e-02
2.803977046567470224e-02
1.076739922011963890e-01
7.824284805270226295e-03
4.583097678269836689e-02
1.876158165669444822e-02
5.695066571694926832e-02
6.638648053291193452e-02
7.683767796345516987e-02
1.129218848427892968e-01
7.851602958661391130e-02
5.269369021508742840e-02
4.524764254539073716e-02
2.714731389033440967e-02
5.870077477386579506e-02
3.787884327624121972e-02
1.078384998797368155e-01
6.098379335561861930e-02
2.921432457955949399e-02
5.047332135616550836e-02
8.456010200348645922e-02
6.203289363762039960e-02
4.834648807340327648e-02
4.644937336071845724e-02
7.165235187614746315e-02
5.562525799460629750e-02
3.852274056133634522e-02
6.203177541856574190e-02
6.178570129816614298e-02
6.396351199981054059e-02
8.763206237539938881e-02
2.600022306151476142e-02
5.200109608092656072e-02
5.980491340029259195e-02
4.716504893910730689e-02
4.305462713976915962e-02
7.530059817426840163e-02
8.145764252971557373e-02
6.336474669367156420e-02
1.214937775409610510e-01
7.470251307767841742e-02
4.086565601964008143e-02
1.094717899233310088e-01
6.471676030215887943e-02
1.506368650937803255e-01
7.856091486420553605e-02
7.734686479367457179e-02
1.420446218671536087e-01
1.055704035810184627e-01
1.188705146482166297e-01
9.481446925218983690e-02
1.243867576779650458e-01
1.286261559451468972e-01
1.145021815993467751e-01
1.821664593156698542e-01
1.228802562740669568e-01
1.418269833714876638e-01
1.368631451831262835e-01
1.481713535054683673e-01
1.301115012069414267e-01
1.833341413665751929e-01
2.162085512719149616e-01
1.998403697107690447e-01
2.101408281536662481e-01
1.954840246795468139e-01
1.598172020517593661e-01
1.519161771505910807e-01
1.666633294194533876e-01
2.051149067334180343e-01
2.225928506603136459e-01
1.634182850920730401e-01
1.968093419792149301e-01
2.182818919871059860e-01
2.277605453049808826e-01
2.208724653390926052e-01
1.825138002695512185e-01
2.521007188498347595e-01
2.398920296315850686e-01
1.707438323125985979e-01
2.044070352433244586e-01
1.827922514804576903e-01
1.788412911594762233e-01
1.309170298791798859e-01
2.723859038361388651e-01
1.681266706338453154e-01
1.821714578007097018e-01
2.079946663227818793e-01
2.770352340384757417e-01
2.583212479834510189e-01
2.343415439939198763e-01
3.085437991287195980e-01
4.242178652072463585e-01
4.354262193497133171e-01
4.868338126420835854e-01
6.033426935358811027e-01
6.873093800163561085e-01
7.530988259385894557e-01
8.479465881834689078e-01
9.962242006080112011e-01
1.011786381285997738e+00
1.075293201575672652e+00
1.196675909853394115e+00
1.287667775594216746e+00
1.392071962570503585e+00
1.415877824662401974e+00
1.421888918700263016e+00
1.509278218556221685e+00
1.494572568279540992e+00
1.487370427733380573e+00
1.445200232045093180e+00
1.403738581851516454e+00
1.361549267401048091e+00
1.269870171401348058e+00
1.246352986294940068e+00
1.088340052941138891e+00
1.029625310390762882e+00
9.301897018905480596e-01
8.365994303251127473e-01
7.549674521341701583e-01
6.661040175057982848e-01
5.513707759320454205e-01
4.949706653917880228e-01
3.757132200729293992e-01
4.172120066937031746e-01
2.933772071486072663e-01
2.251777658972132778e-01
2.151350356430781763e-01
2.148400305452650150e-01
2.185172291694817137e-01
1.764435910200175539e-01
1.607774846566167870e-01
1.789959339634633051e-01
1.385124407771865240e-01
1.399067312613155312e-01
1.609422605388342864e-01
1.746026982994914045e-01
1.609965591726326695e-01
1.082195511120021825e-01
1.996523082423220519e-01
1.640269621113658594e-01
9.662354175744709839e-02
1.503759151134880789e-01
2.088345533414937283e-01
1.422378598446368270e-01
1.849402745648718316e-01
2.513737671200365620e-01
2.172884483294618696e-01
1.598565009534987369e-01
1.965213020156444668e-01
1.853050618268463623e-01
2.340879311160051768e-01
2.488659842098205344e-01
2.041736478465494553e-01
1.903112042739169008e-01
2.474065167053655367e-01
2.601084411459785306e-01
2.673291100523493280e-01
2.667461638188805551e-01
2.407219920328018126e-01
1.766095760824704930e-01
2.378265802914870941e-01
2.817561455148224203e-01
2.631099537468404304e-01
2.768832767691740138e-01
2.165383819782157326e-01
2.600170028399027555e-01
2.623584478332509629e-01
2.832652235037132482e-01
2.650207670237225144e-01
2.586748781221025473e-01
2.299921024006215398e-01
2.781661628581909018e-01
2.720806460003181160e-01
2.456973178090426368e-01
2.309061881224049595e-01
3.339916742568499464e-01
2.353293898264827433e-01
2.799236796468602684e-01
2.444412361426155089e-01
2.051131247781665390e-01
2.828416151030668790e-01
2.477404978877388864e-01
2.484123220066076221e-01
2.334054056578465930e-01
2.197029463877609445e-01
2.353339430798508103e-01
2.309605180011139736e-01
1.803818090275752517e-01
1.580171842801660065e-01
1.842389938013501982e-01
1.961938078774160543e-01
2.282293614796253867e-01
2.083830063370336050e-01
2.391807123989012629e-01
1.775448216368462340e-01
1.146177505161198318e-01
1.255320673100301099e-01
1.427623644043588547e-01
1.677510608426303063e-01
1.274560837708208771e-01
1.324235245461025945e-01
1.470315978044202110e-01
1.186192750013257136e-01
1.111036824107102527e-01
1.330753525519289826e-01
3.905270310499033004e-02
1.260388279121123223e-01
1.191351309879113141e-01
1.062426190006161425e-01
1.331496812201959645e-01
1.175524821237558665e-01
1.127090273539725906e-01
6.318458251189755515e-02
7.555674896379388494e-02
4.975189456914448638e-02
1.035157530633514095e-01
5.057652597396526672e-02
8.809856124077392048e-02
4.332884964041422426e-02
3.229349525763089424e-02
8.765799361349184415e-02
7.454807076057554105e-02
8.589538303332575064e-02
5.628906005088125594e-03
1.964908276483403465e-03
-1.368502713853600797e-02
3.879161601061619641e-02
2.189084266075303625e-02
1.860651138961427059e-02
4.075994786442778406e-02
3.890541166605529684e-03
-2.772700383246800085e-02
-2.545463076148144974e-02
-1.181682547795800953e-02
2.303470721754406064e-02
2.663610234523793030e-02
4.833017230134413478e-02
-1.522587538222369002e-02
-4.395057931559731221e-03
2.196569078334751832e-02
-6.219039639242853953e-03
5.898585328000680028e-03
1.449640261731082597e-02
5.620318531127228845e-02
2.755185444001452891e-02
-1.328333026634804549e-02
4.055378463803487044e-02
-5.473216492388311913e-03
2.853697157232824161e-02
1.407965783161988123e-02
-4.023451384747699089e-02
7.554469452110319956e-03
1.377045835023036485e-02
-7.302334857547777835e-02
5.196857219748988142e-03
3.725746557665484543e-02
3.140133891140225227e-03
-1.311188200209804748e-02
1.201062282565232807e-02
3.454757367024471892e-02
4.147168930221190736e-02
2.219514812198837561e-02
-5.440967219131839956e-03
-2.285120348370559343e-02
3.580664013232807974e-02
-2.568567116930098315e-03
-1.316282298454444881e-02
-3.604017206224222752e-02
-3.770850142159502816e-02
4.505817309884450894e-02
1.514449149597476077e-02
4.249266753071824498e-02
6.801261841217560999e-02
6.500484911713641512e-02
-3.660290024908779971e-02
1.320533396000576551e-03
3.889908662763821856e-02
6.754422542885077374e-02
6.480782115829555878e-02
1.124454534387864940e-01
7.601425757556924678e-02
5.272114271564919824e-02
5.472707589215336510e-02
4.472674038619883080e-02
9.322237960832897852e-02
7.445454221027922315e-02
3.098078768142580042e-02
1.143424176420882454e-01
9.985051630401081679e-02
1.136210152072215790e-01
7.250223366603231190e-02
1.597246545034856358e-01
9.418052054433535825e-02
1.618902827026864333e-01
1.302737331751090688e-01
1.176505198209348152e-01
1.833421572212252659e-01
1.383751025507497512e-01
1.404864475629224452e-01
1.270663524994004867e-01
6.837387255629320815e-02
1.658396203942510139e-01
1.299225227685287809e-01
1.300610176771805904e-01
1.101663285932813485e-01
1.217730520710294667e-01
1.067156611007717137e-01
1.672289389642406532e-01
8.819892578312779619e-02
6.796196084853968478e-02
8.964695949452233803e-02
1.649690886648164101e-01
9.274731508784747613e-02
1.512685274783074907e-01
5.310930570880308121e-02
1.061521607027570563e-01
1.230306178344774543e-01
1.037220315762729522e-01
1.481938980367143721e-01
1.639348897917189962e-01
1.479692474421153148e-01
1.730768732593793713e-01
2.420008023162019406e-01
3.201006119357079349e-01
3.532458043881382959e-01
4.123367030249528442e-01
4.690233950058615431e-01
5.432559546709847531e-01
5.862344413641312757e-01
6.680402780302385768e-01
8.136865265033069727e-01
8.636367295461900850e-01
9.467022908734273878e-01
1.090764574210416171e+00
1.137914272591650233e+00
1.245709375992890999e+00
1.250943407413885877e+00
1.390275065472302840e+00
1.375405893773475219e+00
1.453787048387096936e+00
1.449789248635606542e+00
1.514901774459420203e+00
1.417190186105135030e+00
1.386111573408694619e+00
1.324879073345950120e+00
1.217139292181428800e+00
1.183551838823102997e+00
1.073278112712891419e+00
9.890564655842956077e-01
9.368997537497505412e-01
7.295561752015549128e-01
6.880752518410337970e-01
5.904710798252145176e-01
4.650582066335580134e-01
3.891840347377670817e-01
3.847254429738520276e-01
3.539662035096682313e-01
2.908342361394705700e-01
2.362361163395991781e-01
1.852308121710053990e-01
1.706438986854570405e-01
1.294435702541132938e-01
1.412692502015492346e-01
8.396654615669424393e-02
1.214715264773631453e-01
1.178450343747282081e-01
9.615262685346089022e-02
1.643471168705827601e-01
7.112792569484997773e-02
1.334965490449817049e-01
7.348702300835963097e-02
1.082129269008296063e-01
9.596500734783934561e-02
1.538711184427495327e-01
1.194762756394041336e-01
8.748360894592097092e-02
1.338556410347871706e-01
9.401882396394889430e-02
1.405453513066433346e-01
1.447990627711345513e-01
9.360082244206163749e-02
1.980670973746313512e-01
1.610213104453462052e-01
1.970641997750269270e-01
2.053281581082063989e-01
1.708962324332148341e-01
1.536347183066248401e-01
2.049154068450041166e-01
1.632620978809381507e-01
1.684682710847623388e-01
2.357610788594528550e-01
1.846971302893603284e-01
1.925545509108378128e-01
2.308725635665196951e-01
1.972045603384173784e-01
1.793288394826109688e-01
2.073340672618034786e-01
2.260737313491202327e-01
2.020505493779295447e-01
2.182007918439556882e-01
2.088905832319354061e-01
1.877330728981728147e-01
1.574935557047508206e-01
2.414242248754326636e-01
2.221304448830355993e-01
2.147611166664071813e-01
2.009667710054820755e-01
2.231128802618207729e-01
1.960351403960352568e-01
2.236061479105525551e-01
2.003764284019056707e-01
1.772545005548233910e-01
2.505822426094194699e-01
2.209647087441311553e-01
2.332050789627267695e-01
2.202704792495129849e-01
1.697001869071686764e-01
1.765392491151887566e-01
2.017526812023956728e-01
1.676200594217325812e-01
1.385979134364234144e-01
1.618826653313546471e-01
2.048702676839689596e-01
1.576951607387961918e-01
9.761820518579583661e-02
1.203403883518834316e-01
1.723578381854690145e-01
1.216181795154175627e-01
7.401447754626952480e-02
1.227212440270375876e-01
9.685859928039758371e-02
1.350303106560689637e-01
9.412650321265006448e-02
1.460848359460104329e-01
6.997173389819896783e-02
1.113435348611653275e-01
7.528541243644945591e-02
5.591023066463394336e-02
5.687861407845352935e-02
2.802733043883706004e-02
8.327462842411767485e-02
2.965344642745541826e-02
8.561621757961568324e-02
5.845180702100491454e-02
2.826608066591927704e-02
3.560175658129066667e-02
4.241987029939433412e-02
4.299584176772737465e-02
7.164287715523835753e-02
6.153222368822557770e-02
-4.232007862873873871e-02
4.271040611905258660e-02
1.504663076316566095e-02
-2.872718732959218119e-02
-2.570094224696287122e-02
2.139232708704637970e-02
9.243775808404353089e-04
-1.315215919321512800e-02
3.215988737693781241e-02
-1.922230166648582206e-02
1.976561631966915200e-02
-1.225695999924798496e-01
3.590342847255795222e-02
1.239271251943781932e-02
-3.640712270323815530e-02
-3.897467915926839527e-02
-3.701089823805174539e-02
6.726682889234163187e-03
-1.597112633593839384e-02
-5.717790681467646574e-02
-3.458645888266876495e-02
-8.444390850682409466e-03
-6.531177237814975167e-03
7.254392201101370063e-03
-4.749973389564968868e-02
-4.803788800301916906e-02
1.806339604862143566e-03
-4.439142564377149963e-02
-8.332124492154598105e-03
-4.444264469322928984e-02
-6.489816228919742525e-02
-5.134922406354191365e-02
-4.604777283387994496e-02
-7.957946159279183362e-02
-2.380331405029760192e-02
-1.911193450662735868e-02
-5.832556616036034536e-02
1.148450215822574560e-02
-1.949801049803751712e-02
-2.433611811393157978e-02
-1.795907737979926533e-02
-4.947191473094750269e-02
-6.226519087084946003e-02
-8.643004282224903134e-02
1.690266639604755261e-02
-5.998128961136180159e-02
-3.363367556328453883e-02
-1.751875065600903836e-02
-2.084305139044107663e-02
6.007171644779873976e-05
-9.320704729419385104e-03
-2.409335581098633050e-02
-3.551103219570859310e-02
1.596347141766722710e-02
-4.065425498654971770e-02
4.254337942711986648e-02
-6.011499124873656563e-04
-3.152767776361073415e-02
-2.001674502012822793e-02
3.680421692345828277e-02
-1.806974273870448275e-02
2.161684781351698448e-02
4.904670844865198498e-03
2.560474039069184082e-02
6.742059814183593014e-02
2.201484929292644999e-02
7.216085288680053333e-02
3.520318082161583151e-02
2.935816149570562306e-02
6.966256151075524150e-02
5.993718552989313331e-02
1.003782144855165925e-01
4.665717227402604167e-02
4.100656441508718220e-02
1.079361624523876295e-01
4.321778740772464628e-02
1.180014967635615586e-01
5.150284061688495396e-02
1.172163699122150821e-01
1.032689415918604248e-01
5.306228088284846434e-02
3.613316467375439489e-02
1.067332739985762391e-01
1.330664372135414719e-01
1.418002536688752757e-01
6.720851253416931792e-02
1.279928212597930548e-01
1.051245545470627374e-01
1.499048423112649131e-01
8.671292697189997289e-02
1.110555313641752306e-01
5.268868227178862690e-02
1.184502160102142432e-01
6.147086289845059975e-02
1.111516693259144983e-01
9.835108293032754356e-02
7.745579492510050457e-02
7.609524718082114059e-02
9.651929586930271809e-02
1.148258604345293171e-01
1.161941900331923960e-01
1.451081601813491995e-01
1.254770632996791702e-01
1.560334484099878405e-01
2.209910621436012579e-01
2.318685457702012453e-01
2.096351765403522138e-01
2.764101940049289996e-01
3.460207167287771002e-01
3.938064479905218906e-01
5.086885539594666605e-01
5.415797623313233222e-01
6.188829772914841154e-01
7.451047832320859543e-01
8.130886433509572075e-01
9.228489518644038547e-01
1.054961277266436959e+00
1.107749735345607167e+00
1.222634097384387886e+00
1.267218267288045874e+00
1.334866224492865738e+00
1.411198899510051952e+00
1.424547393293514208e+00
1.462984111687709365e+00
1.399499745589381172e+00
1.394497252109728969e+00
1.309832180959245695e+00
1.281016313194926814e+00
1.176737486645820674e+00
1.147065234271456680e+00
1.028112720234247712e+00
9.581974926499683409e-01
8.695646635840836858e-01
7.476517478105142445e-01
6.948226150382555977e-01
5.656930822295661576e-01
4.691341740073273203e-01
3.904539544441277266e-01
3.138154091130285206e-01
2.604838824501541361e-01
1.962592665975495254e-01
1.861705869476930897e-01
1.677083809923649027e-01
1.023404821382388752e-01
1.439473217864465637e-01
1.560735040182032185e-01
5.294585071585695274e-02
1.219929179394108054e-01
7.672460365803857041e-02
8.177698594169441337e-02
-1.489782703869230868e-02
3.868248403773083544e-02
5.163121519686885569e-02
-3.342179597720797146e-03
6.295364259390391626e-02
9.964800757203752524e-02
6.036804839038984599e-02
1.091803133407383830e-01
7.686371850036155529e-02
1.408130431930466608e-01
8.581661386453257045e-02
1.612281779611892119e-01
1.225005987937300422e-01
1.309362392754480353e-01
1.180026033323563484e-01
1.516803987259780773e-01
9.996471610882484704e-02
1.407995152253775639e-01
1.469321117847308678e-01
1.537719090994031090e-01
1.429752188146532488e-01
1.471212581191130297e-01
1.585507448816757536e-01
1.605536584802980393e-01
1.816072011629319971e-01
2.447309566485783017e-01
1.777551786949056467e-01
2.132281062176924480e-01
1.983019035980480294e-01
2.829539007611740487e-01
2.296978308869745966e-01
2.240750594325848222e-01
1.930579414324573584e-01
2.272493891494352936e-01
2.076918552052879063e-01
2.117257034494779977e-01
2.615848824127714467e-01
1.904065943526319082e-01
2.304226948950355014e-01
1.558754755683073312e-01
2.221132044188242893e-01
2.105540934786878093e-01
2.076772556079232168e-01
2.180458845753321662e-01
2.372048825718786613e-01
1.850122996363456340e-01
1.824082773956575143e-01
1.916670501048107489e-01
1.568919187795524417e-01
1.798447038215903460e-01
1.628261949832238986e-01
1.946709517534915834e-01
1.608696465691598076e-01
1.482897631931063553e-01
1.567070754303040714e-01
9.760918717138444833e-02
1.155068254456822208e-01
1.711847886593549362e-01
7.300511020092403935e-02
1.356459612258064662e-01
1.437898780482566308e-01
9.696987102015494631e-02
1.104854207047098746e-01
7.507763726085137090e-02
1.075832636278162419e-01
6.931774851491773193e-02
8.447350914839024671e-02
7.856617434434698399e-02
9.891183860116117832e-02
5.429517238760855208e-02
7.279840969407759543e-02
1.623082720302417709e-02
7.495806125375384377e-03
2.852104439327608071e-02
3.221673161743709296e-02
5.324490118172808817e-02
-1.067406367591833272e-02
4.198513688068698096e-02
4.096175507337462829e-02
-5.415713868166428802e-02
-8.593858617199988392e-03
-1.842604233584210771e-02
-3.349248149784303519e-02
-4.988609935904477627e-02
5.401231936506144249e-02
-2.730010396251714155e-02
-1.602063089371785071e-02
5.827472257530025290e-03
-2.413806095916649561e-02
-5.231529888483736623e-03
1.401844797054752761e-02
-6.787875958926266329e-02
-7.040972369684241061e-02
-1.719316297343690195e-02
-7.203221607351209532e-02
-4.496691093747672008e-02
-5.947443226988437942e-02
-3.730793211739891202e-02
-5.577434913967477259e-02
-3.183849472520357271e-02
-1.099429196192724667e-01
-4.796795246059611800e-02
-5.305719947121949331e-02
-3.746263900513994993e-02
-8.132416504743592012e-02
-5.281195316870176959e-02
-9.143048637994138916e-02
8.973392569130773933e-03
-5.043142033659415990e-02
-4.938967033097711040e-02
-2.495184056754874008e-02
-2.497852102275324726e-02
-1.567939099482741974e-02
-1.557372864383603853e-02
-1.657330748098741896e-02
-5.191018182048211249e-02
-1.142318256872458249e-01
1.775769917503008249e-02
5.238793063252894511e-04
-2.627458865473323441e-02
-1.968407547626683032e-02
2.185732927839280360e-02
-2.841004313827275030e-02
-5.359902722680820464e-02
-1.975789290450906746e-02
-5.237261371662618736e-02
-3.967662087729584286e-03
-2.904716830860500781e-02
-5.919719661707537051e-02
-3.095790849614903778e-02
-5.912282059546429547e-02
-3.602631139901139867e-02
-2.972947882533263225e-02
-3.369298148649176039e-02
8.437113732684617395e-04
-2.404366167097109902e-02
-1.459813354525240497e-02
9.933501374985033439e-03
2.164000713271117121e-02
-2.993371266117426238e-02
-1.990483817179591886e-02
5.266555099809214907e-02
-1.242779648395083911e-02
-1.615923795088442666e-02
8.035656815587205459e-02
-5.417104714270939980e-03
1.046240197783683892e-02
3.600014455948866154e-02
4.053912230275529688e-02
3.756037891688088215e-03
3.347297392993946880e-02
6.388413952746432867e-02
1.062054827233569754e-01
9.361300190723989556e-02
6.646063306075168653e-02
8.089855529311357207e-02
1.003447347370807624e-01
7.722027204517453725e-02
7.552580251201441996e-02
7.691099827483552365e-02
1.275649157498333630e-01
1.073978973530849701e-01
9.636692883983949409e-02
1.137223545964396315e-01
7.061903786031667463e-02
1.503225491865249064e-01
1.365930027636961253e-01
1.021811770662718333e-01
1.585120000789205785e-01
1.140949651435159001e-01
9.127840141109541672e-02
1.486765003204614521e-01
1.315441549987925729e-01
1.218787935521553900e-01
1.013924090767666930e-01
7.945727171280402013e-02
7.630419066691776497e-02
8.627166178933864948e-02
1.060097958265775187e-01
1.250068358148824221e-01
8.198230982569573722e-02
1.155596267312425512e-01
1.427430345337056261e-01
1.061344705837146962e-01
1.260534408414045737e-01
1.279303974564260926e-01
1.561406827906204331e-01
1.981581184179212751e-01
2.839590556530763865e-01
3.239176164319987339e-01
3.222954280535373361e-01
3.347293103664841230e-01
4.403327550876779406e-01
5.001658976884150176e-01
5.813711194716425501e-01
6.800957185548477391e-01
8.002805680146666267e-01
8.466705338346054432e-01
9.981755664261358074e-01
1.048278477250545127e+00
1.160476966707079338e+00
1.241351923902147325e+00
1.310134772711126105e+00
1.351218036668738742e+00
1.410837204360100072e+00
1.464916913446730362e+00
1.421457585444607652e+00
1.489348203748740884e+00
1.382054034325397529e+00
1.418344601813227523e+00
1.269174855673525615e+00
1.255626494179105768e+00
1.199403643671992370e+00
1.091592464610894986e+00
9.414397471341499068e-01
8.748134929710018604e-01
7.723298801834345140e-01
6.285602709974283941e-01
5.678214026139553061e-01
5.448245840571885878e-01
4.282515115639947134e-01
3.649822521713553258e-01
3.057825375327093975e-01
2.738691125298175488e-01
2.586396946587768975e-01
2.122926551496764347e-01
1.557423376331730780e-01
1.239356628226059992e-01
1.521342961749949374e-01
9.715007952199430918e-02
1.113442085390820013e-01
1.625186019150365313e-01
6.490948698446293019e-02
6.907786662775675102e-02
9.016925382208372530e-02
7.736386897730138101e-02
1.108052971271069886e-01
6.777391073806340871e-02
1.588651007036078200e-01
1.062005246604836028e-01
1.032255659636402007e-01
1.679432723225663948e-01
1.588312825351560487e-01
1.342063328630231922e-01
1.577511318423545361e-01
1.455956637269989751e-01
1.473227466066329150e-01
1.366585737551252455e-01
1.969599011241797981e-01
2.395693747794230277e-01
1.579171143659806598e-01
1.889652845255901936e-01
2.221627661920074770e-01
2.283350145874785686e-01
1.798637851734158632e-01
2.220929572885705638e-01
1.875301682770504075e-01
1.817553579273993303e-01
1.762883479594479219e-01
2.506102219745394155e-01
1.938443135857730315e-01
2.286925332056916060e-01
2.491522537402754700e-01
2.761095663446276882e-01
2.394224053400995089e-01
2.540575842243527616e-01
2.591551972933362480e-01
2.280948509456858508e-01
2.271784872781068276e-01
2.471824654259015541e-01
2.470773157340373505e-01
3.029743533582132109e-01
2.494119212933724461e-01
2.412158259012206485e-01
2.323004366022242972e-01
2.294662817864244753e-01
2.310330200688419655e-01
2.495604767718545280e-01
2.316901495501340613e-01
2.326570833656643467e-01
2.383760485850154320e-01
2.077136300355375276e-01
2.593723939075307516e-01
1.569112550749068580e-01
2.565940772915926149e-01
1.917165657732274597e-01
1.657091904721464948e-01
2.319311328026327501e-01
1.502544543039243397e-01
2.290153386503207822e-01
1.219723514242125190e-01
2.068102614431938657e-01
1.555421963664761487e-01
1.410874665863526833e-01
2.022953696077499919e-01
1.251877934231072631e-01
1.417038785866629735e-01
1.047337964246043418e-01
1.422957428143842296e-01
1.502864833956152335e-01
1.800109606900150427e-01
1.364287413388349801e-01
8.861603502633098872e-02
1.048292902910442914e-01
8.495064767614075862e-02
9.608976690846000868e-02
1.148828203324116920e-01
7.170002405108663601e-02
5.407258852136156285e-02
7.753921072330247077e-02
7.298397771615178220e-02
6.458456774035217784e-02
7.478064987818353049e-02
4.593394556025596348e-02
5.801009564273176822e-02
2.063460026258116115e-02
6.769020823847779478e-02
2.391053231296854861e-02
5.721294980955603238e-02
1.472835976550895820e-02
1.995905872436118389e-02
3.091921592789253354e-02
8.777437296975360015e-02
5.940782725427892069e-02
6.093374691293890547e-03
4.801292147560549950e-02
6.885515483654028324e-02
1.939282024664111537e-04
3.015415932338836105e-02
4.547313159013482986e-02
4.026755550307137277e-02
3.529460775896842151e-02
-1.480816876929996057e-02
3.687161871326929963e-02
-3.154687744387386222e-02
-4.608895316802320147e-02
-3.859512001755552313e-02
7.387890826221174545e-02
-2.226292781879596339e-02
2.966525839872977133e-02
6.506342239538205618e-02
2.060342706116433109e-02
9.910762863149288199e-03
1.522116012512535199e-02
4.509963292948804964e-02
3.497892948503351918e-02
4.636986051659627156e-02
1.759510113563634431e-02
6.963738468724887942e-02
2.712854654716903569e-02
3.293593001590544578e-02
2.841857210523843214e-02
2.450144922243110979e-02
1.684707545483586644e-02
-3.638318102608688320e-02
-1.374403082899690320e-02
-4.946741885591340870e-04
2.529881898829736825e-02
1.079282492564418577e-02
6.735676277065789919e-02
5.979810699048023620e-02
-9.228169604715771857e-03
1.255100235447025037e-03
2.231992878580623535e-03
6.268563524387994398e-03
5.676302716029542339e-02
2.757745750798288459e-02
3.912643437655546896e-02
8.710102706496974934e-02
5.976179007543579863e-02
-1.813530746165993579e-02
1.262172717139073141e-01
-9.212624093686696408e-03
2.618506248385235602e-03
8.324154383240232880e-02
7.033069720318790852e-02
1.018183199712529019e-01
8.465678882750221623e-02
1.209577913538676941e-01
6.940238392134037704e-02
8.041622298065051466e-02
7.718496066473980177e-02
1.013003719410788261e-01
1.140948453642539051e-01
1.465183135687842808e-01
1.751499663782727367e-01
1.374743791072232657e-01
1.368712217581160018e-01
1.412211877671817051e-01
1.490566577514452762e-01
1.345083742449263986e-01
1.192180030484227549e-01
1.316183133771356428e-01
1.828145890793810291e-01
1.980728251630851366e-01
1.892560735334429811e-01
1.787515582825845717e-01
2.289574469162495296e-01
1.885684387305459619e-01
2.073294653227219786e-01
1.874009064450080086e-01
2.119387183914761552e-01
2.135850449036947318e-01
1.429764565670655629e-01
2.077029246109245719e-01
1.791148570627746350e-01
1.396354781141793677e-01
1.411725841955045191e-01
2.224408909161928183e-01
1.735839931601385888e-01
1.524707974699029689e-01
1.406769217553452134e-01
1.493472246672377102e-01
1.705569939967117032e-01
2.008990840787397980e-01
2.030467299769601053e-01
2.628860068126803728e-01
2.207861652872823433e-01
2.110352159653859361e-01
2.755288921835560845e-01
2.218445434926787085e-01
3.157433701588461816e-01
3.721481844704731534e-01
3.943252518451316191e-01
4.689037504615077290e-01
5.055606078861831776e-01
5.973615134574520313e-01
6.291225873727526174e-01
7.549551326000684126e-01
7.977119963358184629e-01
9.627893178133067886e-01
1.053509972670483075e+00
1.105007886288907004e+00
1.152646665559704520e+00
1.269492567861191912e+00
1.369020653288921974e+00
1.423859085236550470e+00
1.436190492971925581e+00
1.536662213421196022e+00
1.532687684022544294e+00
1.505629026273939353e+00
1.494341428923145587e+00
1.434232465109127386e+00
1.307175822674453647e+00
1.345705047164453161e+00
1.281944858901538309e+00
1.142578409452009058e+00
1.022256001033039041e+00
8.798668859087231953e-01
8.233970151162395279e-01
6.984421727109737521e-01
6.392509449181449366e-01
5.460872466042479001e-01
4.910297735884562864e-01
4.166306265516485641e-01
3.651615674192386640e-01
3.119946106916148820e-01
2.884772466355752241e-01
2.228138271304908602e-01
1.544272353919652618e-01
1.838972622797931944e-01
2.222177527167489286e-01
1.566119050724442685e-01
1.299455778245839077e-01
1.591589982874134224e-01
1.570015497864963860e-01
1.980425530560203373e-01
1.518446735708662287e-01
9.448157160747465422e-02
1.719211874008200747e-01
1.862465944700595344e-01
1.753412296185451191e-01
2.060325309792196968e-01
1.612185715976599543e-01
2.104176186818438044e-01
2.617827380430870488e-01
1.940457963834586463e-01
1.820278150180754950e-01
1.953584716996032700e-01
1.964061605597995364e-01
2.495179552878597495e-01
2.374946825526454419e-01
2.309667500798885387e-01
3.122703870370958090e-01
2.141626426539144645e-01
2.776460500544350452e-01
2.922840402263812143e-01
2.698376912880307565e-01
2.438131431519922343e-01
2.503513061205951962e-01
2.386406925215626695e-01
3.312239163470657166e-01
2.731326284179023123e-01
2.558630301228815296e-01
2.604946985272462712e-01
3.563403986488499209e-01
2.804845028824929920e-01
2.629498973121220384e-01
2.739050675686394154e-01
3.392990582681184586e-01
3.071480884630176100e-01
2.839949712652914959e-01
2.941973103035431247e-01
3.406595778388076812e-01
2.873150193430996646e-01
2.877593958556449727e-01
2.745802308136779946e-01
2.448795500619500853e-01
3.400728426864252918e-01
3.363091775056032406e-01
2.824809891780941662e-01
2.954379861700781040e-01
2.601201589438986717e-01
3.088918757491664335e-01
2.711073925290873321e-01
3.440204069814958854e-01
3.251998798197991425e-01
1.989911856092586306e-01
2.015109188421533304e-01
2.789589559003536889e-01
2.089614860285201603e-01
2.045529275249821921e-01
2.546969986633738081e-01
2.093886662182732894e-01
2.082356647381724268e-01
2.508432697274977086e-01
2.104536535132401076e-01
2.111401750891339635e-01
1.881270336448264135e-01
1.842381764077944961e-01
1.957811863675572028e-01
1.681327474720650805e-01
1.330440604914809033e-01
1.832299332405144254e-01
1.385780886002521417e-01
1.504376268289805973e-01
1.560207390728545473e-01
1.681986281243501025e-01
9.823166157169230250e-02
1.661653509736361889e-01
1.080398127623833082e-01
2.026633393146154982e-01
1.610994833267325177e-01
1.806534582470183115e-01
1.365560973718228932e-01
9.992350496424957929e-02
1.137820355091849756e-01
1.151622260828659289e-01
7.134436143220343474e-02
7.678623342026746901e-02
8.818245341927172243e-02
9.380757927045738076e-02
1.161510499521588302e-01
7.551307989700128953e-02
1.042264562078357992e-01
6.122505249208953781e-02
9.107707801047515428e-02
1.058023014979793119e-01
5.487774436282778778e-02
7.337992910297115590e-02
9.219114586745250084e-02
3.445501942122970729e-02
6.311475196096691387e-02
6.514274902953912094e-02
5.232357758093306166e-02
6.947417245701972832e-02
2.266013493204601173e-02
6.497189926804849969e-02
8.035670874590533641e-02
6.317676193218497993e-02
7.396327793771144410e-02
6.115558763929374031e-02
4.281699244503358454e-02
5.672349736341431720e-02
7.141956041493210949e-02
8.773495250495264020e-02
2.453126578648866241e-02
5.639369348576107888e-02
1.151961431545753811e-01
7.628971206426332641e-02
6.364585580465416392e-02
2.943564354435405928e-02
7.027999063504804245e-02
5.502292308048982450e-02
3.766249353239788100e-02
6.648524689088305961e-02
6.066979977185833761e-02
5.966919278154739215e-02
8.920595756510864283e-03
4.297976806685142870e-02
8.015351896724437486e-02
3.413706387549223648e-02
-3.204702106909401715e-04
6.794616565556238497e-02
2.822115740247221893e-02
7.262109890254435374e-02
1.200740391697234233e-01
6.387843550846722396e-02
8.232155827657181013e-02
6.683295820064208415e-02
8.598168146611748219e-02
7.888936816986408251e-02
7.701257651213272437e-02
1.222418777494735931e-01
8.330792424023503173e-02
1.372797863975798172e-01
9.381098255797484797e-02
9.255436981584053147e-02
8.910004183161983338e-02
7.363912744924955289e-02
9.116037448120592468e-02
1.168623106470201983e-01
1.204356019781541859e-01
1.142439970817430983e-01
1.561280234117506382e-01
1.341326264495335263e-01
1.392533225540630304e-01
1.590719057723151419e-01
1.948698838362569186e-01
1.547578535786637011e-01
9.845701216492906693e-02
1.035051308930469427e-01
1.691876179924342860e-01
1.205287361345471486e-01
1.435443633734742874e-01
1.827685978893308083e-01
1.814281254339814020e-01
1.265159141246589014e-01
1.533230249672191681e-01
1.674027137535481768e-01
2.126904405794812769e-01
2.027731741016579603e-01
2.176308842543533961e-01
2.239101655968297744e-01
2.245245179417484360e-01
1.962565179672715043e-01
2.344475372637947475e-01
1.960544031762196104e-01
1.264079243338412373e-01
1.884386462377043991e-01
1.998871368561042083e-01
1.295238957020059534e-01
1.654584792813755811e-01
2.207213261168383678e-01
1.520197068086663883e-01
1.794901317367788574e-01
2.499779971795678679e-01
2.053714520142430056e-01
1.931515550502087564e-01
1.895926518169986641e-01
2.379881243199716279e-01
2.379572803667810987e-01
2.939484155944523947e-01
3.175824368308602930e-01
2.734257580588511094e-01
3.224856567925851736e-01
4.266301874178949349e-01
4.778658222758545016e-01
5.154762605297980027e-01
5.420617685131662311e-01
6.437554555630535802e-01
7.132031524982048731e-01
8.628704205463594290e-01
9.593757772957743901e-01
1.065255619803106013e+00
1.124390632439152826e+00
1.213919279805452334e+00
1.267375831930189323e+00
1.354857455186101900e+00
1.427250550600026591e+00
1.483382441803995366e+00
1.506158972527100515e+00
1.513886905417967998e+00
1.514904158472484497e+00
1.514012647823902658e+00
1.480684059271681008e+00
1.355773584874018223e+00
1.307217870005939364e+00
1.256845502923385371e+00
1.131844688040322566e+00
1.094836861897777514e+00
9.647499882659036352e-01
7.754152146392162548e-01
7.699919877028211790e-01
6.971180686005135074e-01
5.214165835698457707e-01
4.894037445550765142e-01
4.564167631821704485e-01
3.615492561287926843e-01
3.026917926965871364e-01
2.478073804517581524e-01
2.286094709551632076e-01
2.133713420187870469e-01
2.305813769797484536e-01
2.352942307563163082e-01
1.939722771562110148e-01
1.577772319413379976e-01
1.693771882710932986e-01
1.859685929822520456e-01
1.527282083145286018e-01
1.264893309629578910e-01
1.512308775843176356e-01
1.439118642339338172e-01
1.585804630270178373e-01
1.144453655830530020e-01
2.177009616084312482e-01
1.932554167055039185e-01
1.108310010825243330e-01
1.883256331145908291e-01
2.648808023301126857e-01
1.879001709830289135e-01
1.827740916561688689e-01
2.391410859915987230e-01
1.751441223675108683e-01
2.421031608801800794e-01
1.985847430114263679e-01
2.241315528040167537e-01
2.779293970759006971e-01
1.994969298419558001e-01
2.504931141947284168e-01
2.681248882819060597e-01
2.629706025188146556e-01
2.547671318687955710e-01
2.685208772819973611e-01
2.075658253737355241e-01
3.150004552163024329e-01
2.826406908000947404e-01
3.052945388180605124e-01
2.695569132057558104e-01
2.793849362307480044e-01
3.288484893334657211e-01
2.509420006069811859e-01
3.190269391459862880e-01
3.152404146637978188e-01
3.559959700571952435e-01
2.853487626557495438e-01
2.781176701634416326e-01
3.164556057487964980e-01
2.547336875771010756e-01
3.198190700159497246e-01
2.579096547567988340e-01
2.808717143315546672e-01
2.972623560462979153e-01
2.875780647493351161e-01
2.652047730436009054e-01
2.721544105686773407e-01
2.347157765947034680e-01
2.343471859399071655e-01
2.463871230237590360e-01
2.629871160232257199e-01
2.615660767387987806e-01
2.670221209388243810e-01
1.949452851810194454e-01
2.605382469870997642e-01
2.345105371895417345e-01
2.262040884140739949e-01
2.090407084322305764e-01
2.167044310240786587e-01
1.509932249620770106e-01
1.217502775336084669e-01
1.915928623746748494e-01
2.051197651580926040e-01
1.465455660723829767e-01
1.738220215725498619e-01
2.109761787181433645e-01
2.013876267109532270e-01
1.417811985961776045e-01
1.369981724127758149e-01
2.048750211508611752e-01
1.393470484003028753e-01
1.317779145065784974e-01
1.869830264486931626e-01
1.164744324905254841e-01
1.025833718110881754e-01
5.594033319002042481e-02
1.077822390923056928e-01
9.183296782752295440e-02
9.795847390002919430e-02
4.075287854175912300e-02
9.419435115363483657e-02
1.072199150677942553e-01
1.105501040598380752e-01
8.447843332809548689e-02
8.281430204442505327e-02
1.449618485659923406e-01
8.595710322753619126e-02
7.463232663258784205e-02
6.391708589001635077e-02
7.624250626553491506e-02
1.254386952061947030e-02
1.168324214375933562e-01
6.727452660504418258e-02
3.497083431806519149e-02
4.942140537164818603e-02
3.951943979000226148e-02
7.505559674467666975e-02
5.503309827333863202e-02
2.155902980457383850e-02
6.744332662569663128e-02
-2.617043938737707159e-02
3.752552481200162326e-02
1.193902171318110897e-02
5.244428879866058768e-02
-1.467030352855160785e-02
1.924681177152587006e-02
9.503301796178433014e-02
3.767302061588569811e-02
2.554763916346763225e-02
1.467595010332645167e-02
4.061048978345711824e-02
-2.352920794209758387e-03
3.135569770362769959e-02
4.135228641511320968e-04
2.123379783563396350e-02
5.977309960408200284e-02
5.157000525205197167e-02
2.597465047644398686e-02
3.018724555347375438e-02
1.890312870947833887e-02
-1.034226297289969621e-03
-3.609199000528778845e-02
4.338239032641809378e-02
7.388380817251026522e-02
3.238433723445906243e-03
1.662654288062551458e-02
4.430439087242112745e-02
2.712765742442595218e-02
1.557591661118485141e-02
3.259360136397184554e-02
3.685409042593681961e-02
3.330055322615172592e-02
-2.141091898322258769e-02
7.561961906055289506e-02
-2.795725874879896947e-02
2.478502927858859672e-03
5.426899338634083581e-02
3.398912387102075161e-02
-7.820417301218685058e-03
8.077747118710390528e-02
4.767714288511187837e-02
6.624850259217729409e-02
7.382487924847333516e-02
8.816831636990223042e-02
7.630239482995752887e-02
4.951413321680452062e-02
1.007083452933010131e-01
1.094818096412789737e-01
1.882333716744079982e-02
8.967794197812421764e-02
5.870876596377987838e-02
1.699192705822888949e-01
9.825501822647174366e-02
1.257515991210944872e-01
1.693290266605589622e-01
1.659820065142467715e-01
1.031530620966014944e-01
1.264609470165680705e-01
1.291240583418774013e-01
9.817838671027150077e-02
1.584254339069656736e-01
1.452461260117126063e-01
1.485310742861327138e-01
7.931855157337232287e-02
1.763293650858218098e-01
1.496970663032689552e-01
1.425514048471263340e-01
1.830931800304834156e-01
2.021660350163180797e-01
1.063559375018584274e-01
1.638964864684099854e-01
1.753722076807956443e-01
1.520661429668068720e-01
1.669543609032128895e-01
1.405735617163257067e-01
1.207068794833400238e-01
2.040610838706803931e-01
1.400909495497888457e-01
1.258828612370142541e-01
1.133676579106722010e-01
1.184414051427836734e-01
2.166591043518854287e-01
1.430153740256332184e-01
1.364972848255285032e-01
1.956961352886407435e-01
1.476554709789388298e-01
2.241513377570660548e-01
2.900508683892837336e-01
2.493318373162959345e-01
3.251261619796975699e-01
4.130112963773355239e-01
4.315640511725550299e-01
4.391407651176252314e-01
5.216396161881008409e-01
6.057003207558820934e-01
6.910547341902936180e-01
7.590168208432955810e-01
8.771759327121269045e-01
9.797642796241994301e-01
1.065535593821086424e+00
1.200205678744045379e+00
1.269124815416575736e+00
1.351207334189068021e+00
1.395988475499770232e+00
1.434033584471222866e+00
1.490409057660027958e+00
1.456632681876380397e+00
1.442092202086428854e+00
1.475707292136636761e+00
1.378956655114494723e+00
1.340534823739695458e+00
1.236952926861352386e+00
1.154213753909786311e+00
1.074116830508766940e+00
9.748033930592298058e-01
8.877350404522759142e-01
8.111947053860507628e-01
6.987037494186603137e-01
6.063592029399358374e-01
5.207761306996354644e-01
4.251756168417109016e-01
3.573224213705158414e-01
2.905071836721078160e-01
2.909948457034063352e-01
2.239210189871752577e-01
2.180789587298363474e-01
1.965417969145003274e-01
1.353741288543804933e-01
1.545948812454213950e-01
9.738729894770764561e-02
1.416551017503042131e-01
9.970045925192388969e-02
6.678514532853897789e-02
7.554725611118190409e-02
7.060441492860805579e-02
8.888720712581485439e-02
1.000262120692915341e-01
1.878509071527166008e-01
1.401503421117742121e-01
5.596800211496313210e-02
1.312998427626507758e-01
1.257111062691889103e-01
1.813382861519561851e-01
1.226543556095972820e-01
1.348099793186637863e-01
1.300272372033845769e-01
1.622486012347248152e-01
1.933533875907053334e-01
1.721201133669817973e-01
1.800132422634859175e-01
1.273249461471168686e-01
2.072808224728276694e-01
2.074225728528265589e-01
1.675183960217619950e-01
1.924068607005839093e-01
2.421641518813532623e-01
1.453095680094602382e-01
1.992015489639466508e-01
2.495766403399311828e-01
2.448537446418891095e-01
2.543078749980873798e-01
2.718074620088664073e-01
2.161551028106546424e-01
2.547913794897638806e-01
2.549021100201148138e-01
2.392836432426885263e-01
2.335141575131582936e-01
2.522916480299224884e-01
2.544892753129754381e-01
2.327810488770189756e-01
2.149922879822787070e-01
2.233660759165010112e-01
2.340260483176338779e-01
2.187356547998827450e-01
1.871170963861061576e-01
2.026286763241861577e-01
1.826498672332302897e-01
2.365075569159401647e-01
2.074426650055002930e-01
1.796631240171104038e-01
2.107138350602675014e-01
1.646085238152658892e-01
2.119401129195830902e-01
1.979113934916696405e-01
2.238026847474706149e-01
2.090849175791592851e-01
2.181919580758435173e-01
1.817108401505765913e-01
1.731874157482361232e-01
1.601994950530707673e-01
1.720567102414143068e-01
1.376607758951733651e-01
1.106445145946987896e-01
1.472960152947546675e-01
1.339486469613629938e-01
1.049726161477960995e-01
1.220972336087087495e-01
1.339884540323775519e-01
1.178389312400564132e-01
9.858382810748284042e-02
8.416685236172997964e-02
1.362556583119761133e-01
7.459045206765643754e-02
7.398386218059524455e-02
7.187683074818174145e-02
9.299045053386342796e-02
2.382574613557922327e-02
4.643445750029452646e-02
3.628500772070740454e-02
8.778513334131445023e-02
-2.696796195534333779e-02
-1.989882577520310503e-02
5.255148657285498015e-03
2.925776664194114363e-02
4.561433312635830573e-02
6.659546623270586746e-03
-1.446844677712331301e-02
3.210548471619618233e-02
-1.330745306774006043e-02
-2.280517942643128099e-02
-8.044750214086390794e-03
-5.388290690314440773e-02
4.084119755755337422e-03
-8.043826764878157787e-03
-7.572687601447310179e-02
-2.194665350975362472e-02
-2.127867177725996720e-02
-4.235026401836718829e-02
-7.887550529708013680e-02
-1.155512871340719228e-02
-4.009875509967912588e-02
-4.267037227145900613e-03
-3.977973524306286507e-02
-2.647490604625291760e-02
-6.031734309091087154e-02
8.507635910578330990e-03
-3.323316235637398253e-02
-7.669729309959656682e-02
-4.229315236900246799e-02
-6.060377903221884910e-02
-2.034123043785591653e-02
-6.282329211849436990e-04
-2.161066350701299627e-02
-1.127467296822983259e-02
-5.622484260394871453e-02
-3.777146618353450364e-02
-3.089654696182626836e-02
-3.227953590044430054e-02
-6.721342309588504427e-02
-7.666176092264812003e-02
-7.344979799161488465e-02
-2.025794207573686223e-02
-2.968240765106851600e-02
-2.525312780646550223e-02
-6.882609977261705536e-02
-2.914962508539897107e-02
-2.592437530482082780e-02
-8.305114925818947447e-02
-5.516035193256771385e-02
-4.476113658537527601e-02
-7.199671800477144140e-03
-1.759152713447921859e-02
2.168606805491180706e-02
-4.534603356352516490e-02
-1.073546291462385838e-01
-2.159627039415858152e-02
-8.949675342296065095e-02
-2.714586757471434963e-02
-5.027336635779543206e-02
-5.192433302361006142e-02
-4.786403640642809126e-02
-5.711420287355968572e-02
-9.828540843743409361e-02
-7.104571447590302125e-03
-2.807307845924600365e-02
-5.401570612250965187e-02
