1.439333813342559276e+00
1.424365545211515816e+00
1.375554625168161182e+00
1.336290014326262821e+00
1.329905965821216007e+00
1.188100611758218905e+00
1.106879821466425051e+00
1.019397662244156955e+00
9.378380498561843526e-01
8.025786899012364861e-01
6.907766285854042287e-01
6.399619566847341012e-01
5.888403265685545618e-01
4.114300504432575334e-01
3.586799846876048692e-01
3.272448426140553424e-01
2.485097653405723694e-01
2.369293300447005146e-01
1.914934365654061832e-01
1.162368242525141371e-01
1.505378229942066215e-01
1.430704194907819471e-01
1.094593436679963949e-01
7.313793218814729213e-02
7.602372640252134939e-02
4.952640065262349511e-02
1.030424936003142694e-01
8.724504716275646721e-02
1.116111932426924191e-01
8.033006822267556302e-02
4.428975961431055874e-02
6.762083024331502767e-02
9.370629524648170505e-02
4.075879305064905589e-02
1.136334825464197507e-01
9.910787699636582071e-02
3.865076341866778564e-02
7.485865879914613275e-02
1.189353769475661460e-01
1.427453056438747203e-01
1.287180969965130706e-01
1.116364615490190310e-01
1.062574790284890464e-01
9.052782727517458272e-02
1.760424401695465935e-01
8.356225459801969180e-02
1.589694891083721640e-01
1.990812475139723259e-01
1.430102482498595562e-01
1.106519857254774086e-01
1.466248231070270136e-01
1.749582071627837077e-01
1.774764079141020190e-01
1.399173999190047868e-01
1.982775646426565286e-01
1.641314890702743612e-01
2.037179177695788990e-01
1.896580554407061858e-01
2.132303638131581580e-01
1.949535959244237671e-01
1.881247713538289623e-01
1.886369301946652921e-01
1.508400107504968279e-01
2.623394241370319291e-01
1.941320808727458047e-01
2.084558709490319794e-01
1.943130437761152740e-01
2.085935237115389418e-01
2.093840465817227992e-01
2.435926586703218710e-01
1.721282559726602657e-01
2.169482502225209830e-01
1.908047691154567682e-01
1.211688755614880320e-01
1.859761381800882352e-01
2.046388080702523093e-01
1.785954792301885641e-01
1.255054598987184744e-01
1.919656778749678772e-01
1.716279532636132699e-01
1.179654004771251707e-01
7.806138911146620618e-02
1.434113807600276291e-01
1.533662435043635086e-01
7.540462188593338722e-02
1.612154898968248540e-01
8.026290163666033317e-02
1.078130446298181250e-01
9.091963506215955393e-02
1.152807571730542768e-01
1.138001428989445785e-01
6.695505330203083139e-02
1.254326504727992231e-01
9.650131386563579050e-02
7.430483769372013547e-02
6.745644821280202819e-02
4.622535121144305537e-02
3.110825713640745505e-02
8.230985032975961235e-02
9.181626142185847494e-02
5.854166227535727990e-02
4.849935068891933487e-03
2.452979560584341023e-02
2.024323094262938522e-02
-8.328410151371694325e-03
-4.333390004109531624e-03
-4.153910792427303877e-02
-8.873071669495205538e-04
-1.000097188833598549e-02
-5.263941922102443466e-02
3.161672729212770816e-02
-4.792586932776707331e-02
1.448864785591566506e-02
-2.045979270557404112e-02
-8.042817873422050678e-03
-1.633440157922119718e-03
-2.602503621225063166e-02
3.080842699911350013e-02
-1.535321994692763481e-02
-2.949755787716386302e-02
-2.572195361720866491e-02
2.911287540498665866e-02
-6.009913671995906204e-02
-2.660673465608683064e-02
-2.862893001352887629e-02
-1.970813846627563620e-02
-4.419944548560479636e-02
-3.042323092336050167e-02
-5.014658094267265831e-04
-6.634914255131235672e-02
-6.710041072667916051e-02
-6.889663998227917030e-02
-6.516979561418338729e-02
-6.774790004344113936e-02
-4.132075500767814352e-02
-8.633139684371857192e-02
-1.450031243726973562e-04
-2.303654483532890929e-02
-5.195207652769764928e-02
-2.048459991931150803e-03
-7.374451752632055213e-02
-4.909886061848389022e-02
-1.042240623685022904e-02
-3.254092827520808917e-02
-5.695590270740414490e-02
-4.467579428545306874e-02
1.962140432091812742e-02
-8.189103459615308667e-02
-6.650412994194103422e-03
-4.614964807436140737e-02
-7.300579907969262372e-02
4.582660402201781114e-03
-5.800117888859257498e-03
-1.442112546087577496e-02
-3.066054519899955380e-02
-3.951925994379104634e-02
-2.885093596318213938e-02
-4.672515413690785102e-02
-2.037012773994373999e-02
-4.977075699208534376e-02
-5.235566915068504829e-02
-3.074423202015659495e-02
-2.514937381634618427e-02
-1.033022969906781802e-01
-1.364483482713663154e-02
-3.624077012317962476e-02
-3.964860601188139461e-02
-2.007134266139905254e-02
-4.919779838870061428e-02
-3.331547394975500898e-02
-8.603258799888796604e-02
-1.893117747997378683e-02
-7.834562400358655032e-02
-1.660828775292519377e-02
4.341541463151529084e-02
-2.383638013894842644e-02
-1.930440150639609401e-02
-1.902151484166694773e-02
-2.403306367304314239e-02
-6.205415372150126924e-02
-7.334000680739452549e-02
2.425534404067152677e-02
-4.829126489321620974e-03
8.434825532310470664e-02
1.498931131431620323e-02
4.615300162953659552e-02
4.619863746377329827e-02
5.473634754504572153e-02
2.722014374925332131e-02
7.676504774817832777e-02
3.749551733061344538e-02
7.224620337891879407e-02
7.660699268456308553e-02
9.844731728620612077e-02
6.620840052008919452e-02
9.039262046133658690e-02
4.122710318746930502e-02
6.568835083503277161e-02
8.967426893469876426e-02
2.257633278934969429e-02
7.163430953133984036e-02
8.118061517313293618e-02
9.847245780212979249e-02
1.501690733486538976e-01
5.707093379887974438e-02
1.221154047096924683e-01
1.683867623411365866e-01
1.052060268509874275e-01
1.492691180958058694e-01
9.002721845434175085e-02
7.718224185659311454e-02
9.809205447235994080e-02
9.888915550993478132e-02
8.156153642958313688e-02
9.928847820654204681e-02
7.671912884536177812e-02
7.419547987934278777e-02
7.757748039888093250e-02
7.673503343808431298e-02
8.570918053476375698e-02
1.482156554689985084e-01
1.343690690600820858e-01
1.098687474300340527e-01
1.747050923190204830e-01
1.995166631492556741e-01
2.027145764346714729e-01
2.603718645935954590e-01
3.266736440814242970e-01
3.832840789595708952e-01
4.691458706527460443e-01
5.639510631896288428e-01
5.726484326116518808e-01
6.953163752638175099e-01
8.348639091211152996e-01
8.852990553957876818e-01
1.002532189704400167e+00
1.088601691119276627e+00
1.163142090427732311e+00
1.266749414863268086e+00
1.272699571906862115e+00
1.342788874244040587e+00
1.391592377369901046e+00
1.467379997678223580e+00
1.393300814065761228e+00
1.380976764059659079e+00
1.347220438211532034e+00
1.324537622176891194e+00
1.264197582880342896e+00
1.133259164345367997e+00
1.052155903909884671e+00
9.947451776566141879e-01
8.778824121092201338e-01
7.876493829998433283e-01
6.463185396756105927e-01
6.240634213126530216e-01
5.544893828121352231e-01
4.106142540120901185e-01
3.461282695807564869e-01
2.781700369115668314e-01
2.059355435095250597e-01
1.894839762917973069e-01
1.586018761656398657e-01
1.768714551267650259e-01
7.385646908697507396e-02
7.948130852485989217e-02
1.024319174795189358e-01
6.191524851636061311e-02
6.093626576189260097e-02
6.770166497971052966e-02
6.256198845078375648e-02
7.515197519123936742e-02
9.484473534785242688e-02
1.003572518710411365e-01
7.768070424372353067e-02
1.089943856815112355e-01
5.159558350231076285e-02
7.410429365246280764e-02
1.271079951630261495e-01
1.255476163095081421e-01
9.551539352932095217e-02
9.099306580084931539e-02
1.671512555217237739e-01
2.011653480820819462e-01
1.580003358788506784e-01
1.967703562798397976e-01
9.471681905566212145e-02
1.544400387313610290e-01
1.131554681175948041e-01
1.934375228224128052e-01
1.943523505794678696e-01
1.944876672833412423e-01
1.441619452519069811e-01
1.963826473895516067e-01
1.847962316266381355e-01
1.570683445854489935e-01
1.772691253213641571e-01
1.801943381234021313e-01
1.700747102033516589e-01
1.525324227915645370e-01
2.546493188680416520e-01
2.242610065034887079e-01
2.427839810405075793e-01
2.311899509877692604e-01
2.234572391867150898e-01
1.599146822462144402e-01
1.968269323859309916e-01
2.093388818282476138e-01
1.411300215473980102e-01
2.597213533073779446e-01
1.985736838279489602e-01
2.188880039757641338e-01
2.040522827212583046e-01
2.232847715040593706e-01
1.736620560664803303e-01
2.498107935196459684e-01
2.119463575419641699e-01
2.415972073495609163e-01
1.816216049672000343e-01
1.903321127602125573e-01
1.783164534988569694e-01
1.417654575286231844e-01
2.132531507241670898e-01
1.595988407214730398e-01
1.799208675651141343e-01
2.019074968027646799e-01
1.538321698019901040e-01
1.175818741870119366e-01
1.551587055157616635e-01
1.615661622957490218e-01
1.385717060961689784e-01
1.228441934007495906e-01
1.143110383688314829e-01
5.278378498378197281e-02
1.323302171925643533e-01
1.373421293363260298e-01
1.630806020486220420e-01
1.082208567123745663e-01
6.542308922041241426e-02
5.059504795546751477e-02
9.164410796913428914e-02
1.621850707815877812e-01
1.080621432264682047e-01
9.747688980088484167e-02
9.053123270339840517e-03
4.023798444618137404e-02
5.930712448621727750e-02
2.719681055211163601e-02
1.021710267752173537e-02
5.917831090580739917e-02
-4.206602614665246043e-03
3.518731734381091297e-03
5.280129645591889742e-02
2.979544919437018824e-02
2.308346955908117601e-02
1.063668194333129702e-02
3.632453213018949079e-02
3.327845396959223934e-02
3.634985331095515887e-02
2.956531824694418747e-03
5.727612669165188519e-02
-8.929786739431446949e-03
-1.718023389540484364e-02
4.337364116012515369e-02
5.643123158017374769e-02
-5.818982704935660860e-02
9.392600045669892428e-03
2.536251183533112102e-03
-7.062056451627588341e-03
7.917557389842712345e-03
-1.804902991917266969e-02
-2.313623117669615786e-02
-6.583029825993312600e-04
-2.431256434333991384e-02
-4.056061319782779812e-02
-2.148325837726088039e-02
-5.498021799537333720e-02
-4.333190711933153361e-02
2.405072538384650516e-04
-5.342783956273697982e-02
-1.812101419757848955e-02
-2.020691199926452283e-02
4.957295199355646331e-02
-2.315013747587019166e-02
-2.349497464630421334e-02
-2.079489269503363019e-02
-1.522965836030816880e-02
-5.325804525988139804e-02
3.383271101678843318e-02
-8.517039964103110400e-03
-1.314529569933244393e-02
-2.758079262897076764e-02
-1.950659182414034992e-02
-4.447680657716440722e-02
2.188782558192726643e-02
-3.765386581696566343e-02
-4.264173892993269183e-03
6.209374865489588127e-03
2.708020070679604055e-02
4.455632600707122234e-03
1.773118108532811127e-02
-1.917636829005679375e-02
-5.431404442512850761e-02
-1.339167842609775144e-02
-1.149356583768565421e-03
-9.629904776475923384e-03
6.314748771455906337e-03
-1.342906164339263513e-02
3.098184173836586452e-02
-3.673038409350677658e-02
2.053123319581718481e-02
3.183549368998643547e-02
4.573990837141496402e-02
-4.441734976258377224e-03
1.651943327923163091e-02
3.358333749345398384e-02
-2.771242363116083532e-02
-2.093131939599369648e-02
2.760472074456861089e-02
4.558609574224551514e-02
-5.777463638152452799e-03
5.197795213327815328e-02
-1.137555109220550996e-02
4.271114385578121675e-02
3.817741392264628608e-02
1.191946397836585597e-01
3.062875690458309250e-02
7.719215655072274307e-02
1.015445809320440623e-01
3.350989211073296392e-02
6.999913759225613596e-02
1.294709428508629412e-01
3.909859376821603338e-02
1.002837576376806317e-01
7.937474474386160828e-02
9.135631086644968590e-02
7.111722340465193026e-02
1.618765360367344364e-01
1.277520256547189093e-01
9.826363491506034942e-02
1.139301620603884596e-01
9.338707362407736023e-02
1.172769736320821710e-01
1.453300302911427755e-01
1.110859771236325372e-01
1.031592498865936819e-01
1.546979171947366061e-01
1.335456465063059872e-01
1.717922525349492580e-01
1.582339211123900136e-01
1.412238381765316408e-01
1.483202980084432632e-01
1.448499484062131526e-01
1.612288178169361264e-01
1.114433583871065891e-01
1.689205028770663364e-01
1.613518908971684207e-01
1.329409329374232063e-01
1.530806875349549345e-01
1.568927001831851853e-01
1.354242112541710064e-01
1.570511564930523740e-01
1.455800273912299658e-01
1.478840723472423235e-01
1.774682831968487084e-01
2.235678190466399151e-01
1.589237579841117631e-01
2.651536769730007959e-01
2.679943722715206200e-01
3.033716666566169673e-01
3.703569659602255482e-01
3.854065943319123777e-01
4.216818118776109459e-01
4.741823599283537249e-01
6.610431303698535155e-01
7.231843844233846186e-01
8.185113259651222162e-01
9.479406310021741833e-01
1.009283981817773901e+00
1.128795742528422075e+00
1.164129698717331074e+00
1.276496842535313370e+00
1.318493118671851372e+00
1.392168480422719679e+00
1.413377613394542820e+00
1.486129303223512998e+00
1.443493753760215492e+00
1.409898905340320807e+00
1.431532401315692926e+00
1.366278289085156139e+00
1.336516565135182688e+00
1.231157354041805041e+00
1.125341203362490994e+00
1.096055133455005492e+00
9.548990600132943873e-01
8.618136033021945863e-01
7.192880150722795740e-01
6.795651717863882002e-01
6.451298852188529498e-01
5.358584604388304529e-01
4.357326163457747037e-01
3.529331486619826097e-01
2.759491478151667732e-01
2.940645295024390538e-01
2.431822843553977931e-01
1.961430410079864073e-01
1.833908520331569703e-01
2.014909015559520900e-01
1.408805654335553437e-01
1.412426708215279436e-01
1.739134480199100996e-01
2.236302862107896749e-01
8.721038431176211803e-02
1.512453153535505412e-01
9.786309058250682036e-02
9.131263669355763057e-02
1.355716832549961892e-01
1.218570190077593596e-01
1.581185791533732954e-01
1.862368905080931114e-01
1.373471789169111723e-01
1.952205810313296375e-01
1.662048905618339900e-01
1.555935836605358835e-01
1.909557117529061265e-01
1.979109905482921705e-01
1.328248982263478539e-01
1.779995466736451759e-01
1.745534230845268153e-01
2.543825379240623463e-01
1.542157820160964254e-01
2.027527594513179876e-01
2.375299408587425998e-01
3.128484024582250944e-01
2.231199449365404153e-01
2.384167407924445425e-01
2.121399001086295422e-01
2.604374769409059653e-01
2.510161527857268093e-01
2.363471234191184545e-01
2.614915080367383737e-01
2.794918312942218930e-01
2.187495676098438757e-01
3.298927943959586440e-01
2.775191986982413206e-01
2.270689023044323018e-01
2.569952464624110644e-01
2.403334474477318294e-01
3.185730090151364657e-01
2.999239365975170934e-01
2.595172845368085568e-01
2.591621215803497913e-01
2.796426951117832460e-01
2.415506203451698308e-01
3.035992789277483506e-01
2.708712851932283394e-01
2.776834266286729025e-01
2.779488161011975933e-01
2.411946850061886527e-01
2.826877594157307660e-01
2.626088830437584565e-01
2.444312068102516278e-01
2.302500672544315619e-01
2.173881344256420878e-01
2.462098899908061744e-01
1.858210233112261300e-01
2.045102757927012016e-01
1.829381781420649500e-01
2.617330817003725163e-01
2.201370780250880566e-01
2.429588612096389710e-01
1.940680531767123018e-01
1.509277312180463959e-01
1.875582487118963027e-01
2.349853974563096415e-01
1.709386830281348080e-01
1.787562226196525161e-01
1.749472632692981033e-01
1.657745870239042685e-01
1.614079461325965692e-01
1.671839468704625908e-01
1.422902210910217402e-01
1.419424319059719719e-01
1.301586126945334654e-01
1.608247873416929763e-01
1.159716197030625229e-01
1.073530091213659998e-01
1.018915712299593573e-01
7.898500761799122361e-02
9.494381426401753143e-02
1.268504850766562220e-01
6.933660444833378289e-02
9.329178717011687993e-02
6.001268890762423425e-02
1.005716395154872822e-01
9.036377601349387945e-02
9.712722025603115483e-02
7.550086450491455548e-02
4.889612794314454614e-02
9.421443761757354596e-02
6.657474837851082294e-02
8.671982638043393421e-02
2.799290496728950792e-02
2.840705773782142146e-02
6.611480007746670107e-02
6.269829408734788057e-02
2.589175807617156294e-02
4.412382836373749534e-02
7.911243482063756716e-02
6.312488772970364925e-02
2.445650870206314900e-02
4.619572427350050747e-02
8.998027159495966543e-02
5.821482420267866387e-02
3.322775217755531696e-02
2.289341674107920471e-02
3.856882103678793694e-02
4.528348692958019533e-02
5.129279816528507785e-02
1.106049562143568005e-01
2.567995349472639716e-02
9.619588217742031100e-04
7.363618741214261743e-02
2.565872883237174662e-02
4.351602872985038672e-02
6.316425065234092251e-02
4.099560984688507825e-02
6.412422941247525321e-02
8.825774272603567616e-02
5.404252674996243289e-02
5.247690366609954887e-02
8.737550821349943098e-02
2.744434809213221887e-02
-3.866591053540216483e-04
4.447402198276934060e-02
5.419808673534778215e-02
-3.594226998704134340e-02
8.014434877923305722e-02
1.115540608585869134e-02
4.077799631860570817e-02
6.526081368904906865e-02
3.485152007911096472e-02
1.308479254546890402e-02
4.698739795051934398e-02
1.091223370653470193e-01
3.637043533940023665e-03
5.504751383716317836e-03
1.892045674878052239e-02
2.435618906452874724e-02
4.491409544976568413e-02
1.101222203833843727e-01
6.583844375486880285e-02
3.373897973340830858e-02
6.174069395735935772e-02
6.538554939266771893e-02
1.167905049894793490e-01
6.217559588012362692e-02
3.423045531086230109e-02
8.577140077105795124e-02
3.884795338168858109e-02
7.168845520021263629e-02
8.938930779582396347e-02
9.422475624064910460e-02
1.040569224420433841e-01
1.054184291901660575e-01
1.191240428244980110e-01
4.036511753212795178e-02
9.496457786421541591e-02
1.397894845310982126e-01
6.978350629890897605e-02
1.208456702918118825e-01
8.582639975442768465e-02
1.379660863020694128e-01
1.432467510514779385e-01
1.430493579596517351e-01
1.289588086430838998e-01
1.188786146328273813e-01
1.846725750741421423e-01
1.436902207445593660e-01
1.640104836813614519e-01
1.753563827117490259e-01
1.400645349943358542e-01
1.779852915102203281e-01
1.998275697515350946e-01
1.922252012555070444e-01
1.752915682200978376e-01
1.668868252799367569e-01
1.799416059006834767e-01
1.647003570501099912e-01
2.232657826637242104e-01
2.089328886938077168e-01
2.382248270428867776e-01
2.041741011502901382e-01
2.066594250867971883e-01
1.962689601735116696e-01
2.578188646047707144e-01
1.863184367062418190e-01
1.973330722332186093e-01
2.192144881279652624e-01
2.097448920346096091e-01
2.133967378030296180e-01
1.490180843800758548e-01
1.562623731381533598e-01
1.533831791377236464e-01
1.646667410274949561e-01
1.929034110223567799e-01
2.065412303597095045e-01
2.399522369603253602e-01
1.900466295661416560e-01
2.078837942763950564e-01
3.454593499495579589e-01
2.990347184123998137e-01
4.089305472339549996e-01
4.635368955131370372e-01
5.341772330006534508e-01
5.952766648985721165e-01
6.442516645178821832e-01
7.085803377387381863e-01
8.174359695702602124e-01
8.928049931098176462e-01
1.031897730626921916e+00
1.090829233675947307e+00
1.247424416274964587e+00
1.272097921351876160e+00
1.382943211179977094e+00
1.409875063211695867e+00
1.454675083840319072e+00
1.505642483003815091e+00
1.498035205426092809e+00
1.469912780967575161e+00
1.475753863988219505e+00
1.431764487168210476e+00
1.359556144317094928e+00
1.301249662391796402e+00
1.221742718119513960e+00
1.137992735478423389e+00
1.045922639349349037e+00
9.551514299232615191e-01
8.104263676915909320e-01
7.107736714698753566e-01
6.588334948308476324e-01
5.665280180109787400e-01
5.174925741113231004e-01
4.626215595746164810e-01
3.524016949606342264e-01
3.620821896545082241e-01
3.216420476806058359e-01
2.722219455986765735e-01
2.332509214258051966e-01
1.590442363381407986e-01
1.902263085610427229e-01
1.759214821542671725e-01
1.824074452325702422e-01
1.745606880054576537e-01
1.683855586995486875e-01
1.436584990586147470e-01
1.710767316969648844e-01
1.895371169325018035e-01
2.048120597775338891e-01
1.528529526604475164e-01
2.038159500421949932e-01
1.906573781177856031e-01
1.837180264796102747e-01
1.571692920969210150e-01
2.204783434108026907e-01
1.665744893747323485e-01
1.967669961192979322e-01
2.192020338255523393e-01
2.702447962472792065e-01
2.361073231472783918e-01
2.020875019253108307e-01
2.574719737961111976e-01
2.722929411263767530e-01
2.467641181485991375e-01
2.989690788068961602e-01
2.601075554292291425e-01
2.229054583869863049e-01
2.185257516357154983e-01
2.555824761207626250e-01
2.811788039352520197e-01
2.908671203638043545e-01
2.566263583066298870e-01
2.858227660981135232e-01
2.403240875510132546e-01
2.623160332641341075e-01
2.867423815219612981e-01
2.753187682684790638e-01
2.618389327834732550e-01
3.004323609903697401e-01
3.029178918832141632e-01
3.458978393773630700e-01
2.634003265422047435e-01
2.656962962597194111e-01
3.323531330740892575e-01
2.920925306973975455e-01
2.945869908785871405e-01
2.916531943081748235e-01
3.224774845509874588e-01
3.051116488690661654e-01
2.528573229301421255e-01
2.937338562740708925e-01
2.360782549138805975e-01
3.064036218880699103e-01
2.802726800153187980e-01
2.495093622676898548e-01
2.501939674916115464e-01
2.197305771332254687e-01
2.540374234599587222e-01
2.201017075136771639e-01
2.154202639828390331e-01
2.610123522595285128e-01
2.229264310761640000e-01
2.446964086525035553e-01
2.495308848539583568e-01
2.196233433076955621e-01
1.992038681106500786e-01
2.252504533624143657e-01
1.805026308538129343e-01
1.887985484537592906e-01
2.216747617085922939e-01
1.630058818491064709e-01
1.884631500199549503e-01
1.795325369019339090e-01
1.985293926825512367e-01
1.458701717463604941e-01
1.233251488015520980e-01
1.281190768635925015e-01
1.388949462792131440e-01
1.614463006790542166e-01
5.736017142009397496e-02
1.543375395943355488e-01
1.868929558995411355e-01
1.158281708299837148e-01
1.684233575795407167e-01
1.432130715844137647e-01
6.778232519065480188e-02
1.186712173865961117e-01
9.920822753379524017e-02
8.512541265213188768e-02
1.252228361304736359e-01
1.128463378573925924e-01
5.314940175723338600e-02
8.805660761786593405e-02
2.401975527362658347e-02
8.979442669074150229e-02
6.531944974584305563e-02
4.595405416372815022e-02
4.219052902789982573e-02
5.519590701907682584e-02
8.538616367101778404e-02
6.384422876234557842e-02
6.592609760519742290e-02
1.096189972597716999e-01
9.423850342177955697e-02
8.398931374489405910e-02
4.874399128881296006e-02
8.072731555868162268e-02
7.306722786785523061e-02
9.013868468044469728e-02
9.840277913192033155e-02
1.148181741147681345e-01
4.015395601729825070e-02
6.636521759337488113e-02
3.398471676410687314e-02
1.115942282905693639e-03
3.489957365231657199e-02
9.529689297118348890e-02
4.954495692639770965e-02
7.415696345693401081e-02
6.496046320805257124e-02
-4.633734849630005703e-03
3.208606687817980307e-02
7.016803788155169530e-02
5.491268034971238943e-02
5.942911961174353330e-02
-2.173269171121740284e-02
2.122871904968875664e-02
3.530244678965663296e-02
9.706500112026844596e-02
1.041950462091462831e-02
6.476933677042662207e-02
2.621396937172460265e-02
7.711155806149525005e-02
3.499956230697014170e-02
5.632921464560645963e-02
4.860631717185179973e-02
-3.183758797515278544e-02
3.421799103311007340e-02
3.368680532587463999e-02
6.176487262008580059e-02
5.178645411418615618e-02
5.878092814466821109e-02
4.459223194565357928e-02
9.619237951219597460e-02
1.049679872495623140e-01
3.375892143063136119e-02
1.933702689526201751e-02
6.296262822020676220e-02
8.530077449655960875e-02
3.839990371118981449e-02
2.479478112913019103e-02
7.691517853859769493e-02
8.497718864858677668e-02
1.634920844861677547e-01
1.103768235022943855e-01
9.815527768197929159e-02
1.365869636250410801e-01
1.660967870446599104e-01
8.958602333393006489e-02
1.209290883007159978e-01
7.170266763543270416e-02
1.238039263301230763e-01
1.054368323369063720e-01
1.116907127114200871e-01
1.106134463032461823e-01
1.252645126172641232e-01
1.157799907551863294e-01
1.347421675438401079e-01
1.767642526447452123e-01
1.103813430438332077e-01
1.469414160640886702e-01
2.011925345660460218e-01
1.569371295508480424e-01
1.704123227652562800e-01
1.598268742012923238e-01
1.675422506446458959e-01
2.093799678135029874e-01
1.687186385122961541e-01
1.751715464158231927e-01
1.531215529219078220e-01
1.758620110298148576e-01
1.780459013859665707e-01
1.400161971199367084e-01
1.945897837745542980e-01
1.829458857366982050e-01
1.961179118314528014e-01
2.140135461261966632e-01
1.921766170381909167e-01
1.636393553056970651e-01
1.751947958080103118e-01
1.700462801483996478e-01
2.339255022390109851e-01
1.730366164390757244e-01
1.642084331351879589e-01
1.669921587226849136e-01
1.366460313875591526e-01
1.613769840652927723e-01
2.066400035232887067e-01
1.631502148622469006e-01
2.435371250017894229e-01
2.268293693325953431e-01
1.837005429310328286e-01
2.781742630472426869e-01
2.815225748589329502e-01
3.997584351563614469e-01
4.206679462158212646e-01
4.564723797637939007e-01
5.231965600870098765e-01
6.092393390761673411e-01
7.299650378082428448e-01
7.684472628629828161e-01
8.323010640976202801e-01
9.697515116479684671e-01
1.040624727172156261e+00
1.153792855248119142e+00
1.241373277937681818e+00
1.363066639862462681e+00
1.388853896011729372e+00
1.399657576915035673e+00
1.443109028941450545e+00
1.482222710550109790e+00
1.443728217699889127e+00
1.470253838411583747e+00
1.447025122595849256e+00
1.408551745764674790e+00
1.271666163885705636e+00
1.279914111582701297e+00
1.154339183125520973e+00
1.089478280500457474e+00
9.001337609740373003e-01
8.611523549074637796e-01
7.884275991827349728e-01
7.119142559351606669e-01
6.258566706460448881e-01
4.739492644632596341e-01
4.279833915759806984e-01
4.047525319377209829e-01
3.142116083110872427e-01
2.992573495473417333e-01
2.585196390897083751e-01
1.286435992660345806e-01
2.081858084848696999e-01
1.402704567915948608e-01
1.752545058691561408e-01
1.273255699626434645e-01
1.418714136255605496e-01
1.345542270316165967e-01
1.709175341200142861e-01
1.345905198269979619e-01
1.354992426828076357e-01
1.598054053768293847e-01
1.571746769149239831e-01
1.663187111889848357e-01
1.431115434079907600e-01
2.009481212511579906e-01
1.287973256364385588e-01
2.041700147739728410e-01
2.250094532576641937e-01
1.129137955801023524e-01
1.570061097770144298e-01
1.528024456903685213e-01
1.776068437292219193e-01
1.845780483711718656e-01
1.884224925380979521e-01
2.353092053382606352e-01
2.062298168181292968e-01
2.392865743168839654e-01
2.475914517559091310e-01
2.398669228148389287e-01
2.583077272412909742e-01
2.229109987279864202e-01
2.084321745503966428e-01
2.594872536334682511e-01
3.315879150078901993e-01
2.941642509642111714e-01
2.518882974940160335e-01
2.754835096988398901e-01
2.336921103537192290e-01
2.749212170481176720e-01
2.470601131533551875e-01
2.977632312434694284e-01
2.326094964708942947e-01
3.145489629645578100e-01
2.258186856139910714e-01
3.056515715505173647e-01
2.462470059057071392e-01
2.671194214472388251e-01
2.632415532137634684e-01
2.778225615473596810e-01
2.185911074915730112e-01
2.266810676504560362e-01
2.597812958581182108e-01
2.113683304131575569e-01
2.064101586035168301e-01
2.600711932480568311e-01
2.313201940616425312e-01
2.633460430127829710e-01
1.837557305225564486e-01
2.076958826378995648e-01
2.228513611900199975e-01
2.330523878634667700e-01
1.664572522269737453e-01
2.119136692407555533e-01
1.710492002826710656e-01
2.319391414208133162e-01
2.006272234241221475e-01
1.982320653426554447e-01
1.874613303018094757e-01
1.620420262124305788e-01
1.528287117745770474e-01
1.140996275806642341e-01
1.455991664353131765e-01
1.591427862539368798e-01
1.135793565956101786e-01
6.816414603542743367e-02
1.076320237791535267e-01
1.987231454632424898e-01
1.023726461986929764e-01
1.053197310210365611e-01
1.241974837257533437e-01
7.802366961693202319e-02
8.919514942545361813e-02
1.001130455370677214e-01
1.035579221994373106e-01
7.233617480962159507e-02
5.757428478222027801e-02
2.991595241995740478e-02
6.852363001937433751e-02
4.302490066914804040e-02
6.409091269182004558e-02
4.494325316762906586e-02
4.874041059728007746e-02
4.860111270796688143e-02
8.988845941669282302e-02
3.093460227438068338e-02
2.147775914916009304e-02
-1.457948120413092227e-02
4.681538422197153992e-02
4.594557229525563641e-02
4.945466646105015768e-02
4.732796286731647678e-02
1.421393174489795665e-02
4.535989275633297430e-02
1.449881263963227578e-02
9.311855516201603122e-04
-3.169609672727243151e-03
4.754717817247722939e-02
4.731818738495988802e-03
-7.820493407098498551e-03
1.610159340925787150e-02
3.903414262547176550e-02
1.317920854919680217e-02
-4.413669951463764646e-02
7.483468169765462169e-03
1.838060737024335700e-02
2.521541402850167174e-02
1.601524809583045744e-02
2.359851496236649304e-02
-4.570268478167494042e-02
-1.796997041647325696e-02
-1.564979403428639476e-02
3.935394814682037501e-02
-2.536906577492656356e-03
4.231158493989274627e-02
3.800535782466110679e-02
-1.960277164618645998e-02
-1.477139180863320037e-02
-2.163616983281298894e-02
-9.518521063747668876e-03
-4.563823212430993120e-02
-3.819151696873528123e-02
-2.098023519021860808e-02
1.424809181455306134e-02
-2.144775639347158008e-02
-3.062574335762996425e-02
-1.395462399320266354e-02
-2.814394028541839995e-02
-1.011027878012623824e-03
5.558048062744558315e-02
-6.819904918371715377e-03
-2.547336340017249817e-02
1.478525739289781801e-02
-3.415927587075483218e-02
-3.243669437530292965e-02
-2.600230996239891179e-02
-4.375998780103638325e-02
2.308505921129928515e-02
-5.529617910513874926e-03
-5.155308303123924685e-02
3.274363076935798977e-02
-2.514592273636211822e-02
2.029512643872164943e-02
3.220889873603081932e-02
4.814499812967143119e-03
3.273393068045180043e-03
2.375347824596383065e-02
4.601535610340110050e-02
5.046702590179258374e-02
1.332734415064319375e-02
7.070319936337178535e-02
2.920199904751140385e-02
9.863196226129848643e-04
2.941013340047408248e-02
5.008656331923473648e-02
4.331560683248707189e-02
3.275264582440092637e-03
1.650537076128533870e-02
3.389230976139419316e-02
1.022955976947797774e-01
4.935794245997512930e-02
9.177762309383455386e-02
9.000768906692808990e-02
8.925736182801026486e-02
9.854449831035085039e-02
1.216759324116288010e-01
1.084179466358249216e-01
1.195117591118473876e-01
1.306766293978559590e-01
9.278060377574592898e-02
1.082557976613160861e-01
5.306101778487687382e-02
8.598952138867377304e-02
1.654483607107694598e-01
1.307362591937818452e-01
1.567825823382675288e-01
1.804165768493736777e-01
1.144939077586425991e-01
1.871695914874748068e-01
1.064067353987748210e-01
1.444536943901548187e-01
7.613910602868308175e-02
7.894434128898994429e-02
1.158336485317542491e-01
1.048494553089761167e-01
7.012631991308611312e-02
1.049443575872849033e-01
1.477241618998813288e-01
1.246167488373569610e-01
1.147809165433401474e-01
1.130028849608667590e-01
1.152192784516039570e-01
1.758532843811614621e-01
1.236624851834535188e-01
1.843707389989073242e-01
1.884088321920475706e-01
1.966355038165854829e-01
2.984434035653221184e-01
3.276900921618597362e-01
3.841376028015521804e-01
4.399098663013533139e-01
5.399450869360947758e-01
5.616608820883064457e-01
6.849672480527531082e-01
7.984575159429505575e-01
8.582363486089333859e-01
9.079709928529082763e-01
1.085685995550410565e+00
1.163602088485639507e+00
1.217898461867509052e+00
1.282038563755063976e+00
1.362076914051990606e+00
1.393649778632691572e+00
1.428576030583194489e+00
1.427795435526881818e+00
1.342713885306070054e+00
1.397781047827506784e+00
1.331707231380652168e+00
1.292379898328595456e+00
1.177955879492828650e+00
1.132227595139242204e+00
1.054271553449300791e+00
9.097523010127966936e-01
8.733531158847525067e-01
7.798695099955854637e-01
6.515806536220630774e-01
5.719800713578362394e-01
4.537101962536889688e-01
4.038697849160893805e-01
3.822450284059318304e-01
2.837430781278268976e-01
2.526094261171948352e-01
2.093906816046870456e-01
1.418046957683345988e-01
1.023735373314098029e-01
7.357146311578785514e-02
8.507587326456922394e-02
7.049351785814009230e-02
9.071764564515533147e-02
7.610027572391978024e-02
6.542607483882786901e-02
1.339845244541203739e-01
1.099035825126182253e-01
1.070825444641546886e-01
3.873160392548586489e-02
5.587437730999495616e-02
1.743846845757746344e-01
1.310866390968631612e-01
1.126869456626009847e-01
7.708174054358045424e-02
1.127202867792939794e-01
1.028477084006157727e-01
7.977943603557757779e-02
6.065254644463734246e-02
1.493378252314141452e-01
1.467146561397301707e-01
1.386885160814747553e-01
1.654577677718688244e-01
1.921912772175644601e-01
1.551379482336052995e-01
1.803546638530293122e-01
1.585422693648012582e-01
1.884516948668262526e-01
2.176555045376888375e-01
1.724072099867377250e-01
1.935870549840991162e-01
1.968054433950880144e-01
1.989412149431656063e-01
2.337433681529063334e-01
1.859370817326452818e-01
1.768187558307589002e-01
2.236015106362124749e-01
2.514170096428176571e-01
1.944391314479484434e-01
1.740248927892096287e-01
2.100592421023816381e-01
2.092691687879502382e-01
2.315216598707363904e-01
2.682374688859048839e-01
2.400085557313312301e-01
2.182583431688102094e-01
1.846151691763396052e-01
1.910112879570030620e-01
1.653371886512355615e-01
2.087032430520835424e-01
1.767946594548947536e-01
2.090020274104538167e-01
2.092651084462349431e-01
1.860988422288559208e-01
1.712567976084470867e-01
1.739392468274729431e-01
1.573191393853158038e-01
1.418679352742288624e-01
2.034452656673569337e-01
1.480850290869069330e-01
1.337892669764173814e-01
1.493033551029413486e-01
1.727223044998360546e-01
1.214308211869812304e-01
5.287965216395278112e-02
1.085273962904082928e-01
1.278745529622856425e-01
9.858591567533976641e-02
1.288035941256487626e-01
1.133198978942717428e-01
3.577939583934838103e-02
6.705816471217185271e-02
1.276915967060225643e-01
6.293551729404098238e-02
3.590477596597164284e-02
6.376547479729999246e-02
9.499377184694558773e-02
5.217806810323112610e-02
2.306755888547980249e-02
9.095214477496293970e-02
3.677779381849832774e-02
2.874853895056572045e-02
-1.715705190517154144e-02
2.255342217471814625e-02
-2.163430105034419570e-02
1.228329705731046745e-02
5.153682379413988823e-02
-3.037413801179442846e-02
-1.957574036195091488e-02
5.620475388346220236e-02
2.708894793050968530e-03
-4.106447722127060801e-02
5.934681229902566413e-03
-2.351343039573600482e-02
-2.615157281684073187e-02
-7.292613686406390627e-02
-7.263069917637143824e-03
-1.725876699818073776e-02
-4.783112218508772662e-03
-3.069204160925598224e-02
-5.235499809085510797e-02
-7.722817285830781142e-02
2.180109284931986552e-02
-6.854534202835312062e-02
-8.710099519740935325e-02
2.826731753169037242e-02
-5.840091681641819410e-02
-2.709576359874798362e-02
-1.074961714681373637e-01
-8.321797561756265338e-03
-4.204777226865892559e-02
-3.721770794423306244e-02
-3.123670395365100300e-02
-5.109418972441696905e-02
-5.714311905802790803e-02
-6.556149600938335209e-02
-7.137968230586801133e-03
1.170665845858222948e-02
-1.115673018241056802e-01
-3.492670567828563832e-02
-1.270995330941707829e-02
-2.165158632272074987e-02
-4.883683790603692704e-02
-7.259298247559850537e-02
-7.087873721352604128e-03
-1.349612933264515979e-01
-4.635430091073189374e-02
-5.281670035119448436e-02
-1.045873641016860367e-03
-6.322757629105808796e-02
-1.845058062681288746e-02
-3.657707369637205885e-03
-5.167037048189301179e-02
-1.208788616680094019e-02
-4.892240384696618788e-02
-5.844561894263267110e-02
-4.425771077933795400e-02
-4.713187561294074346e-03
-8.786024567660971618e-02
-1.068386137392288160e-02
-3.614505503993274693e-02
-5.513833821536899549e-02
-8.026648386685282521e-02
-6.861602116379342253e-02
-4.960892452722338170e-02
-1.321589209235563694e-02
-2.028104982305118861e-02
-2.155938304503631636e-02
-3.028943455339047630e-02
-3.583745691112336096e-02
-1.124050484562352237e-01
-1.331731156720182552e-02
-3.573854234375057476e-02
-2.792055708290144822e-02
-2.930337093638453461e-02
3.668379364830463840e-02
2.013824613814848424e-02
3.556285458262578580e-02
-3.503822858316243960e-02
5.352434210535778059e-02
3.908108436029750221e-02
-1.772037087937634869e-02
3.359546347475993872e-02
-1.192724359573275189e-02
-7.103354179620283149e-03
3.184311448600371519e-02
6.062960951544522914e-03
3.601287336074994461e-02
5.596322971329742435e-02
6.532272327627440534e-02
9.139465457731274500e-02
5.372063578931793315e-02
9.203004695562379267e-02
3.707223475895740639e-02
8.909047083906078413e-02
1.066052499108598173e-01
9.238904308767614815e-02
7.143620479681445090e-02
6.909483209637164169e-02
5.633301890847298293e-02
7.647342881503318979e-02
9.559360272427580574e-02
8.787144048636044702e-02
7.800783898409646699e-02
1.376142871086150632e-01
9.954115490921228160e-02
6.377974992604974747e-02
8.370170939882506933e-02
1.757449734015467113e-01
1.056962726599945945e-01
1.235511449798654959e-01
9.749515226603638895e-02
1.336809427469707046e-01
8.519799091684027159e-02
8.265206680962197683e-02
1.044427422912559689e-01
6.838239296103361398e-02
1.278123009947065847e-01
8.145217582061295425e-02
1.274445057751304178e-01
1.374864852452909181e-01
1.057217251419375892e-01
1.743919136875297926e-01
2.009874646280066790e-01
2.072143894207838233e-01
2.259319932252440433e-01
3.640376089120985759e-01
4.576795732683520135e-01
4.305700848671897840e-01
5.560460403306041188e-01
6.292437698414647951e-01
7.139180794037977007e-01
7.836582112387271426e-01
8.735953418622907085e-01
9.898096720120788117e-01
1.037015588833029023e+00
1.142753279881354000e+00
1.224172422957140016e+00
1.320302410764534473e+00
1.305848734058979943e+00
1.393884302612907744e+00
1.383337365995000789e+00
1.450623106595116729e+00
1.417364877360764552e+00
1.376477622896506992e+00
1.266947693720267942e+00
1.228838672872983206e+00
1.128933553787591304e+00
1.043259860696607033e+00
9.429033887928408575e-01
8.925383625861369463e-01
7.257482508970536372e-01
6.415828202524875845e-01
5.688130671315267950e-01
5.035145236771488841e-01
4.708293778378847549e-01
3.658570542119243818e-01
3.208065013408010757e-01
2.339623035277660079e-01
2.505356897618389311e-01
1.309799660320222214e-01
1.156572282843231075e-01
1.235724937760343256e-01
7.398144878467710628e-02
1.165054789783559752e-01
5.279945979843564396e-02
6.583428345806385806e-02
5.812373211937949674e-02
9.356595575825535360e-02
8.077243386219412624e-02
1.998520710499262359e-02
8.852070659568724020e-02
6.544545436111184888e-02
7.818402802411393571e-02
9.144885070371056024e-02
8.994151279970705182e-02
7.783350904311488183e-02
9.848578022299256385e-02
7.933575066493533945e-02
8.235546789295625225e-02
1.265280422513984093e-01
1.044480861220384305e-01
1.803174140481350052e-01
8.145931420398488942e-02
1.044639533917750690e-01
1.257123958584230039e-01
1.876070932730095342e-01
1.372192377818359232e-01
1.757666007896290239e-01
1.995945214950408941e-01
1.704611795568503618e-01
1.846816568044918339e-01
2.358556803379603939e-01
2.053446594684211479e-01
1.856545340868406557e-01
2.419463218646987213e-01
2.221391253052296677e-01
2.007972336976705241e-01
1.410735977658225671e-01
2.112733373649368085e-01
1.801689902770482743e-01
2.093947212017554238e-01
2.201192672415083484e-01
1.999766408207331314e-01
1.404248562614416884e-01
1.647709298495303731e-01
2.375985693934728749e-01
1.200828076130520949e-01
2.100656376802886305e-01
1.870310085204452688e-01
1.984273826178843125e-01
2.108474440780017112e-01
2.028351156120054288e-01
2.134613152884686782e-01
2.283751377670595883e-01
2.010089257435916377e-01
1.256758452241809321e-01
1.619563148223950311e-01
2.324988293890548063e-01
1.515906912890855329e-01
2.108629611530030146e-01
1.560510924273209310e-01
1.295368009469480830e-01
1.690835845634446610e-01
1.964995932920245159e-01
1.715219445749994187e-01
1.327123828750261247e-01
1.072246573824112426e-01
1.387368468261268029e-01
1.079703209729582503e-01
9.072601485396075693e-02
1.217479439740110914e-01
1.134247509552762656e-01
1.030331970643048184e-01
4.112982154651398381e-02
1.021795278485763958e-01
8.676934829576174457e-02
7.282678009909435146e-02
3.172017887390846808e-02
4.128716735559218032e-02
6.889791233259814907e-02
2.964542079651445033e-02
3.266525459771688761e-02
4.890571150299294345e-02
3.538507449545627570e-02
6.615458725150813457e-02
5.855687600929134623e-02
4.153735834011126893e-02
9.845924834887935517e-03
-1.470816322768615791e-02
2.427212950890601795e-02
4.056814744604569228e-02
3.166031848641601837e-02
3.184478308769424226e-03
4.094165717406001576e-02
6.877494497705513576e-03
2.615753762271917637e-03
-4.902522079297865626e-02
2.654407179126136787e-02
2.762290765411026805e-03
9.401553821449352977e-03
3.795949357284021664e-02
-3.577695742039588289e-02
-5.674771750509295665e-03
-2.772965969029218478e-02
-1.231650940583212117e-02
3.355741616034337016e-03
4.462111613620046990e-02
-4.841805699306900301e-02
-1.264274948527867662e-02
-3.205412788323656892e-02
-8.846464202174185443e-03
-1.526907809683658059e-02
-3.195577062762101905e-02
-9.669671385793006391e-03
-4.185757436959072764e-02
-3.442734930357422424e-03
2.132449196984579493e-03
-1.476973539697243321e-02
1.605320478709999082e-02
4.056300528780443226e-02
-5.946129472402618410e-03
-2.659431861129857994e-02
-4.929941562438001218e-02
-7.575196131566479252e-03
-5.801561671352175459e-03
-3.618618656925798316e-02
-4.565964772255133586e-03
-4.935445376475531415e-03
-8.977326954892608443e-03
-2.227878160237107760e-02
-1.748477992807908471e-02
-1.285676974455807198e-03
-4.000945032094666010e-02
-4.188144685777135667e-02
-1.938489203445730585e-02
-1.112637426155019087e-02
-1.045447364830587311e-02
-3.951877711849245689e-02
-1.151597085203485103e-02
-2.478642421315375641e-02
8.570570155378539473e-03
-1.725055076206771093e-02
2.484712247721460737e-02
2.090557582073499648e-02
-3.400399831184786059e-03
-1.832312463425038104e-02
-1.108248622288803345e-02
-1.899550946864710099e-02
-3.495970889918091629e-02
4.618605988468693635e-04
2.620764081087643971e-02
1.041621504475812449e-01
1.843022278293953223e-02
-3.313270890016123404e-03
6.755152947958149856e-02
6.411249161450868761e-02
7.596594171114478405e-03
-2.096665034722548782e-03
3.212343879073283059e-02
8.715591415784616769e-04
3.472782345427421341e-02
5.233940566507985781e-03
2.980735721036311195e-02
5.034025206172804134e-02
5.211909711640509701e-02
6.273988779485743794e-02
7.249468255052149424e-02
5.572639111252382371e-02
8.541115645619862251e-02
1.146381721365644368e-01
1.001194483083226866e-01
1.154257318288692269e-01
8.644909002930911690e-02
1.041505374709002646e-01
1.519707753444821119e-01
8.489250432926374879e-02
1.357251373725209820e-01
1.202252852218710921e-01
1.658516344986546709e-01
1.478595540441124401e-01
1.495406883052930735e-01
1.388663874494475980e-01
1.600133997515012785e-01
8.999279130682753813e-02
1.321576529174013082e-01
1.355531838047825677e-01
1.195949276994518057e-01
1.495971813551231211e-01
1.145460988017315274e-01
9.675548461039921999e-02
1.600319912921841226e-01
9.151378991464824419e-02
1.677275120401666708e-01
1.007639003060117472e-01
1.215010821081334846e-01
1.066808621840471955e-01
1.392758464259495066e-01
1.538715032517824211e-01
1.163855133135800052e-01
1.281506767880534747e-01
1.652599314745158976e-01
1.819764026892022324e-01
1.574773277021812856e-01
1.513727759712799881e-01
2.558680390079930977e-01
2.450001364682214133e-01
3.455217471609783875e-01
3.563148599550454709e-01
3.648479082893346659e-01
4.743203872823064104e-01
5.068352498838747389e-01
5.685593924856710002e-01
6.869318525774420481e-01
8.653938339229501064e-01
8.319760291734313862e-01
1.021417197803926591e+00
1.060744061402118188e+00
1.209145629868779270e+00
1.281867992001393342e+00
1.392113083708244492e+00
1.427044751627403185e+00
1.430070644399034752e+00
1.447148890115568687e+00
1.431526752803632396e+00
1.397766969976502072e+00
1.456307885617363684e+00
1.363071569071502731e+00
1.275703591351150523e+00
1.164102175199826394e+00
1.133839959776715922e+00
1.085945125479237161e+00
9.197085324501776959e-01
8.042213403634066449e-01
7.569683552291532891e-01
6.591783786528873090e-01
5.071640671074022499e-01
4.927708898117062475e-01
4.399115280751381696e-01
3.514460108914455594e-01
3.194721191269869198e-01
2.728381526272874447e-01
2.030939736493549141e-01
1.565877288972726544e-01
1.799820995831114823e-01
9.483737882507457806e-02
1.176631074565025192e-01
1.209050619309741392e-01
1.142196887511422870e-01
8.704887596511531878e-02
1.178697179358038777e-01
5.880886329310622967e-02
3.145991708410163235e-02
9.848058557680208769e-02
1.105041348440171101e-01
1.791496411583612947e-01
6.543810990207818423e-02
1.351119325090935352e-01
1.738153664694825351e-01
1.658468102337140593e-01
1.675194177988891808e-01
1.387077929523654052e-01
1.544466176504464550e-01
1.762839190882697360e-01
1.950524073272640602e-01
1.669096790396351337e-01
2.135270831886023346e-01
2.053953513797748265e-01
2.074520182947429681e-01
2.402549975112487912e-01
1.815517966590541876e-01
2.291996642577553145e-01
2.316129040920013871e-01
2.229251860840491817e-01
1.838987009585112131e-01
3.012296115307398492e-01
2.481229937364846649e-01
2.756743954782257533e-01
2.708103707009562600e-01
2.375823909386864663e-01
2.741956263373860891e-01
2.949190190220429830e-01
2.245538647255878872e-01
2.878023010201133935e-01
2.381165138268575565e-01
2.702724167916107922e-01
2.150793962543354199e-01
2.709560216015611256e-01
2.750869070016882523e-01
2.208589769188267771e-01
2.657801616747463291e-01
3.014779499171783561e-01
2.596477177935477276e-01
2.770991359116651842e-01
2.475026215451544553e-01
2.630013705849835182e-01
2.593294274624144968e-01
2.462349957967718272e-01
2.247227284275643833e-01
2.650088100931993762e-01
2.730053729468412960e-01
2.972847258691667660e-01
2.502828521145898377e-01
2.021571959000770802e-01
2.716060635852290961e-01
2.843961748265085299e-01
1.588894524146052811e-01
1.843102673392091884e-01
1.582340890643668396e-01
2.002344030619031823e-01
1.899490047157998962e-01
1.730460357178838782e-01
1.359390971903473300e-01
1.159930481259079382e-01
1.505403613671087160e-01
2.223763217039982087e-01
1.993636896486968568e-01
1.959493125436401195e-01
6.105165649032505415e-02
1.413468708099418769e-01
2.031367725920379674e-01
1.045774820743814726e-01
1.222181682686143134e-01
1.152384770167286937e-01
1.177202089940329738e-01
1.113348127007190713e-01
1.419251381600011575e-01
8.256579697395569073e-02
9.458377288202354793e-02
4.712275639107680464e-02
6.398169880118954878e-02
8.528467016332948181e-02
9.281503587062212013e-02
8.382274798477229449e-02
7.488699337809975876e-02
4.027971683917007384e-02
6.291548490438586549e-02
6.918824420117498930e-02
7.281538471413920299e-02
8.284933453869831876e-02
4.512140314835531851e-02
4.486974162272822086e-02
7.999500060927795808e-02
5.333472239463482589e-02
3.501883720304005410e-02
2.463502266440096081e-02
7.804768528619222823e-02
6.429051499680243920e-02
3.251047844925176317e-02
3.678329039962094371e-02
5.315030718331945764e-02
-1.106143180322708558e-03
9.594372515766021181e-02
-1.242060878800521628e-05
7.875513371147564723e-02
2.739847885153486040e-02
6.186984145470526136e-02
3.130362785652901492e-02
4.185907224081845956e-03
3.585911366896699093e-02
5.652943304022145510e-02
6.653783274087500532e-02
5.037287518247944573e-02
2.210462617542430924e-02
8.861535178401516027e-03
-1.273845976678220082e-03
9.480214866135844298e-03
8.107473399557035831e-02
6.391286422424227731e-02
-3.395587862123454481e-03
-3.127040715176315766e-02
-1.648127711760491443e-02
3.085570350348595947e-02
6.963487601670184657e-02
5.917427899178714229e-02
3.800218528774589044e-02
-3.960006663957828243e-03
4.138757916890128258e-02
3.856783858704117274e-02
5.781617101782791229e-02
4.489937832577413357e-02
-2.621691404930411723e-02
-3.006250316152451335e-02
5.117292048728142029e-02
-1.584458398132675139e-02
4.245921702088425315e-02
-4.163091556129702026e-02
6.348747242110829025e-02
8.729531677067410567e-02
7.490701622138223881e-02
5.240299853484656212e-02
6.549533441542257362e-02
2.888003360018092866e-02
5.803501934770569082e-02
2.055905902569844790e-02
3.164431855624486034e-02
8.961191336581536548e-02
7.226959342671537834e-02
8.186617920216868183e-03
7.790055585777967695e-02
8.309685615607383113e-02
1.000073174023673739e-01
5.020009253067950206e-02
8.452879919365438588e-02
1.260933504738722399e-01
1.231603340708731092e-01
7.402736760342579214e-02
8.445188267549107175e-02
1.182022393645124625e-01
1.222526626334738686e-01
1.219531586701282228e-01
1.811688627405609875e-01
1.730095087954885424e-01
1.758038578571543553e-01
1.422656264554881811e-01
1.454884739317412190e-01
1.778307026360026466e-01
1.554217793809635484e-01
1.617968604267120136e-01
1.458868557688616785e-01
1.464024611780352370e-01
1.711283481142812368e-01
1.912429871373520496e-01
2.245502737520307379e-01
2.209308628085284998e-01
1.583197619658353872e-01
1.799651347327456130e-01
2.355128163720388024e-01
2.192295415141718717e-01
2.227074250520005017e-01
1.610146147394519167e-01
1.986568055219106177e-01
2.008411158913138705e-01
1.968652034200197298e-01
2.170543482375912880e-01
1.474887023498467342e-01
1.728247893577672389e-01
1.655969314331252606e-01
2.215412583102334965e-01
1.935962412456730952e-01
2.120787221655147381e-01
1.624918251293952787e-01
1.450164368653302782e-01
1.609774079848468320e-01
2.424117024680562948e-01
2.517909273276059401e-01
2.528003786348413384e-01
2.783635745958944474e-01
2.912130219411013798e-01
3.138045447712217162e-01
3.792844381066370896e-01
3.836887993626378890e-01
4.808288030576950978e-01
6.451988337686187513e-01
6.417747029229678990e-01
7.256819166213223093e-01
8.334192957671047175e-01
8.912285689927879062e-01
9.780890261326733448e-01
1.116363321522428675e+00
1.201976291771832184e+00
1.266249902436908936e+00
1.267372720134022357e+00
1.482292612065793769e+00
1.519966860747638204e+00
1.531450064328038874e+00
1.471056026226578828e+00
1.463908221197416148e+00
1.456098556058372573e+00
1.402973843311290825e+00
1.304877117952620180e+00
1.286167993689841804e+00
1.216362925322613808e+00
1.088630507281771687e+00
1.038859137834584834e+00
9.400682437558075533e-01
8.740978795324115813e-01
7.383777855726398887e-01
7.176623289179794307e-01
5.853544573385777161e-01
4.948808323037345303e-01
4.809596319871313752e-01
3.902751027836394160e-01
3.114488078766542989e-01
2.864211505591160445e-01
2.845668685621877136e-01
2.376879210356878935e-01
2.198516711638206500e-01
2.202950003769512388e-01
1.464129138703710309e-01
1.557946714348204531e-01
1.828876232605558816e-01
2.092779920236100266e-01
1.699402408756434946e-01
2.001186777542905415e-01
1.673162480959443643e-01
1.974110573881357467e-01
1.604461379652470099e-01
2.086343880827200847e-01
1.671656237673289636e-01
2.066769872485231252e-01
1.457650318611854456e-01
1.780289746065926160e-01
2.232227268278385302e-01
1.642461668533759800e-01
1.768765519306677581e-01
1.985454281517406161e-01
2.109622187062520915e-01
2.122299818065875865e-01
2.156168604701018954e-01
2.401803468165778499e-01
2.617589073770099639e-01
2.283013301380239501e-01
2.924932523203114254e-01
2.459507069146907310e-01
2.809540790060635618e-01
2.410903794995098437e-01
2.432477957823323544e-01
2.765086902028882077e-01
2.333331749972680225e-01
3.049072150614477450e-01
2.730672680716736411e-01
3.178209560592811789e-01
2.785659068209470624e-01
3.175472368974496806e-01
2.796450392711943289e-01
3.301346481103337727e-01
3.117822005224789583e-01
3.077464917222804686e-01
3.347318648023533405e-01
3.481401960076139224e-01
3.413047200945453774e-01
3.359800811748294147e-01
3.159396202579444757e-01
3.151906255528179601e-01
3.049827734500767940e-01
2.838843879281532923e-01
3.016579131839787209e-01
3.248814124983547269e-01
2.890247584534967329e-01
2.729295913868712287e-01
3.158453754619761078e-01
2.259566938770083411e-01
2.568364485225731464e-01
2.657039090471900455e-01
2.991577863606696974e-01
2.129075241367905935e-01
2.565210345550980042e-01
2.389547443461447207e-01
2.165324215874138147e-01
1.829520999199391595e-01
2.572138606737659483e-01
1.965825894474740043e-01
2.649392852945849919e-01
2.103456955630446101e-01
1.847039940400412028e-01
1.878924340597439846e-01
1.735305340226619975e-01
1.982586493832032004e-01
1.854873723321225354e-01
1.712382000029457341e-01
2.041287885306635186e-01
1.398735453153168717e-01
1.386504276789470858e-01
1.618652456235243897e-01
1.514999080544330301e-01
1.789063667014232917e-01
1.150797861042814202e-01
1.418473084214428304e-01
1.802263022424610006e-01
1.059240446624235554e-01
6.387324298202860795e-02
1.246489194092796904e-01
9.340810773816296542e-02
1.513954097874399551e-01
9.279447617372937884e-02
8.949716660206520624e-02
1.315993750382707383e-01
1.078334030068361094e-01
4.358955190584204442e-02
1.190234369951941318e-01
1.115008654282296230e-01
8.693972600502128389e-02
6.518759800949666672e-02
3.975038833857688636e-02
9.563997029061141464e-02
4.385145228714582011e-02
6.691004440807046816e-02
1.290633692378963249e-02
4.800248881820889935e-02
1.050108233771308436e-01
8.041178925037106850e-02
9.561390218063312019e-02
4.910892207287536476e-02
7.893425145276239396e-02
6.998491563024723805e-02
-1.199979834765269038e-02
2.029586472909482645e-02
3.060259712485905587e-02
4.066835038719597561e-02
6.219081882436700709e-02
4.421782599452075968e-02
4.542298456545522389e-02
3.926457182921096883e-02
-1.664182457117112379e-02
7.157011455612313777e-02
2.328323055562957211e-02
3.338428274647921301e-02
1.027754504133631952e-01
5.198703100055308834e-02
5.870377057531964149e-02
4.108707632546899913e-03
3.106027424323702657e-02
-5.776425640140400719e-04
6.224815367702921098e-02
7.524002104348009867e-02
5.603489216104032278e-02
5.482529747508182311e-02
9.398302057058885439e-02
2.372182704294545363e-02
6.552491893965547987e-02
3.072445695558576051e-02
1.051971163488333721e-01
4.858565608780521933e-02
1.698218905847782845e-02
7.394886547317455761e-02
9.526572502001298681e-02
6.540027026982032921e-02
4.766778826962241034e-02
7.608097732289863246e-02
9.609898983477103973e-02
2.263998497681776745e-02
5.404228707563704659e-02
-1.227240664282820692e-03
9.225416826218039990e-02
7.646223884828634576e-03
5.572804303941370635e-02
5.955936712377293829e-02
1.101008902770176656e-01
1.091819723609038367e-01
5.479727715102132579e-02
9.035439437238318439e-02
8.996812358905628693e-02
7.173011228881359669e-02
7.179692102183091174e-02
9.600005281455081807e-02
8.030009754879301187e-02
7.744555267842884172e-02
9.861222436518457535e-02
1.083988454642845212e-01
1.538176219666338995e-01
1.698580409700691241e-01
9.637646103564873057e-02
1.270880730291558958e-01
1.117471968043314834e-01
4.800228581729783922e-02
1.150821783936568643e-01
1.111160823580849832e-01
1.121444722974435371e-01
1.385949796941540468e-01
1.221090885900803086e-01
1.594586276663136348e-01
1.777024585352857122e-01
1.567331614493237824e-01
1.391521348501056354e-01
1.896096258141030666e-01
2.221918863822910650e-01
1.756391379324404867e-01
1.651529322695718671e-01
2.147934004844859190e-01
1.890180674716935572e-01
2.190470451180824007e-01
1.859508157850639776e-01
1.458163247854072364e-01
2.224475123333661819e-01
1.478577574926854543e-01
2.090988389186309027e-01
1.797193141844324049e-01
2.495936646519371083e-01
1.639754231299332954e-01
1.524927445433695850e-01
1.713456136841546018e-01
1.868863680828231344e-01
1.785503299460667326e-01
1.289991011821056410e-01
2.351154426169883571e-01
2.180252001458379829e-01
2.131017854691814595e-01
2.173431294214881182e-01
2.609790024120891005e-01
2.460351809236355491e-01
3.019546868850199739e-01
3.843751986767388606e-01
4.127290100152058439e-01
4.303673983837459360e-01
5.566966802494204281e-01
5.803982844085062709e-01
6.915358072022811387e-01
7.789869908818340960e-01
8.769298066788552282e-01
9.918157933256067649e-01
1.010154506364998150e+00
1.125296512679898164e+00
1.204340045850891050e+00
1.280309654121176921e+00
1.320830447378271488e+00
1.440060296483092861e+00
1.389820644819971474e+00
1.459362019611389671e+00
1.509452386431622717e+00
1.521427028007516613e+00
1.488845576094653067e+00
1.409069809900019177e+00
1.271536743310576867e+00
1.242428425864556818e+00
1.156254275151618716e+00
9.909759091670441444e-01
9.130020053316152406e-01
9.342258254466109246e-01
7.129743249177467046e-01
6.789253438714116795e-01
6.660390671674477625e-01
4.991712105126387966e-01
4.945986073444761377e-01
3.764443812444520088e-01
2.927647213699059447e-01
2.890386596345790871e-01
2.131894860102237776e-01
2.116142888440057657e-01
1.825880884995912390e-01
2.069778608677657616e-01
1.629786741613577783e-01
1.772040657423054888e-01
1.483891314218978574e-01
1.576401430086757927e-01
1.368813459829295032e-01
1.209016537601086960e-01
1.552714651616339259e-01
1.453301677164172689e-01
1.492950499991806401e-01
1.738081918451268026e-01
1.335442386483880750e-01
1.281422453515919657e-01
1.219620711977688898e-01
1.557548915286192104e-01
1.524308913681937383e-01
1.737399924846931010e-01
1.441983126024747597e-01
1.981213990848682271e-01
1.947574990711932741e-01
2.315563641908517933e-01
2.681034254008787809e-01
2.576777477209460376e-01
1.793696326993594603e-01
1.727074049382861243e-01
2.114118148771895467e-01
2.321822535744076932e-01
2.500356459133171172e-01
2.425055744612573672e-01
2.376822320207920836e-01
2.385718553057285807e-01
2.677396024784634010e-01
2.410660784559851832e-01
2.313787911387699125e-01
2.596726373457507453e-01
2.973492004641214437e-01
2.726940552140905139e-01
2.845843461584480760e-01
2.638192459182383542e-01
2.592777423945085147e-01
2.636749523827023878e-01
3.349385677772608316e-01
2.916271187760592909e-01
3.375157571796165712e-01
3.109691262476046436e-01
3.139236755738785689e-01
2.930405447445645906e-01
2.662928718172934417e-01
2.702260155990187651e-01
2.803592234509975079e-01
2.165931565037739759e-01
2.375473655857471000e-01
1.908094698717132109e-01
2.306781915973064589e-01
2.602536925368892917e-01
2.555737685191747932e-01
2.072080901867618397e-01
1.939229781048829038e-01
2.148535522399041553e-01
2.252347321197512020e-01
2.513333968094469961e-01
2.216083679697119779e-01
1.691311320964249687e-01
1.452289819865244525e-01
1.992409840804326149e-01
1.946828552789131583e-01
1.906246288666862687e-01
1.598643853017994443e-01
1.819512420343886994e-01
1.422248493643588074e-01
1.317630983970275727e-01
1.674898626170954197e-01
1.565596812542106586e-01
1.066729131252080187e-01
1.472008304359308517e-01
7.565245462990766168e-02
1.122920478824547125e-01
1.809856992762926553e-01
5.859925800869036916e-02
5.622247710264077075e-02
4.836421876289646177e-02
1.252315765948820436e-01
1.120840433050629414e-01
4.512100994130904819e-02
5.628345631164412971e-02
5.402900042175592943e-02
1.334938869474934231e-01
8.584044928018844112e-02
2.153195514141487826e-02
4.825710875134803929e-02
8.790897318814686057e-02
6.991133944714660042e-02
2.917475045162444547e-02
4.496015089575284424e-02
4.247433850619347639e-02
4.949047324668879450e-02
8.410698891666583410e-02
4.029650396507933330e-02
4.260149281648701290e-03
3.058808757080045196e-02
2.791642584720121362e-02
1.631116309735922143e-02
1.366140707035431133e-02
4.465735764209304015e-02
3.358815287161655977e-02
-1.609859761165887901e-02
1.601100778029122124e-02
4.738593571903135238e-02
5.073236816502114943e-02
1.381078180096269661e-02
-3.576162740438581372e-02
1.353842963327822613e-02
3.265263225520552426e-02
4.847701290939815041e-03
3.645383863735129903e-02
-9.486748886815658810e-03
1.151636707670168104e-02
3.176502251886089562e-02
1.478190816130816460e-02
2.812119942658587377e-02
-5.665776912834603884e-02
-3.870043414382887126e-02
2.424981242651955485e-02
9.774978902095988326e-03
-4.985375517142043994e-02
1.741021091027791443e-02
-3.168401281763928538e-03
-2.081922447177960919e-02
3.084912871985293417e-03
1.363930859460383681e-03
-3.088139691516749927e-02
-2.975967927118434997e-02
8.709521719804661638e-03
-5.306120935251386339e-02
1.831110079911012212e-02
-6.683743925988594459e-02
-7.100634829775265625e-03
-3.831632388842140958e-03
-2.332126752814563803e-02
3.938639390204949804e-03
-1.456271199186137850e-02
-2.348669728242786317e-02
-3.257636405316661696e-03
4.508703378791340671e-02
2.795171270912334173e-03
-8.789503038849014876e-03
1.314256475838695461e-02
9.052684682137730060e-03
3.656884360812320996e-03
5.098360495581587271e-02
9.067560276541049291e-02
6.266787061719319984e-02
7.966647317638753112e-02
-7.234882034490273256e-03
4.859372647941426031e-03
7.811159316255444907e-02
2.387223835209810463e-02
5.895713289655899608e-02
3.389123640661312331e-02
6.626837457069281734e-02
5.524160381531201952e-02
2.087002878541920070e-02
6.080904265928637614e-02
2.485976762367888421e-02
1.003450283052069736e-01
8.894523908532303569e-02
7.723842263443989054e-02
8.887042560685463888e-02
9.422709554882563454e-02
1.019735402809893443e-01
4.386282550365566690e-02
9.440933175377480557e-02
7.503786706836573783e-02
9.501278200616211644e-02
1.383053531456054364e-01
1.848973732187055297e-01
1.128215671566308170e-01
1.315869727903628550e-01
1.591057746122434280e-01
1.659447958003885393e-01
1.239736747490045587e-01
1.648661695054028375e-01
1.729440462394698785e-01
1.659233577777611823e-01
1.032692367984622550e-01
1.303230912407584430e-01
1.375445196182540353e-01
1.522582367683929516e-01
1.460512672981896520e-01
1.477604604066277971e-01
1.151474279482734425e-01
6.089076558737061690e-02
1.150644724776150041e-01
1.313307644647245531e-01
1.882981723033705090e-01
1.276906636946343876e-01
1.016228293104397135e-01
1.780315135910656710e-01
1.457308979207853905e-01
1.969150557784943301e-01
1.600589176037982841e-01
2.092081652796826119e-01
2.072758782625487017e-01
2.605256781813134470e-01
2.814878092413178323e-01
2.825508459713081955e-01
4.080930804078287677e-01
4.283870787175665940e-01
5.260207432243035885e-01
6.282884172855366378e-01
6.377760900570319524e-01
7.991838891374589693e-01
8.921599413308382021e-01
9.752646499149212334e-01
1.074106500468241521e+00
1.151187297193352110e+00
1.209701784282097181e+00
1.263496009209304827e+00
1.401642017323148748e+00
1.408635259965025144e+00
1.402558571252673358e+00
1.459082259583782681e+00
1.421747192810910887e+00
1.414370690315356560e+00
1.337183921054091451e+00
1.283857722730109563e+00
1.155538799452554111e+00
1.096980221748085071e+00
1.044531383812893122e+00
9.125019255636376281e-01
8.273165599032874518e-01
7.461465963401383572e-01
6.453935559070238526e-01
5.749896450456039032e-01
4.956214108150991393e-01
4.352406113889653594e-01
3.838862293156786176e-01
3.003200574253652722e-01
2.541127168056508401e-01
2.292878272260131522e-01
1.566166676355129628e-01
9.755992805675633983e-02
1.197932488373564253e-01
1.225177391963749585e-01
7.585581694862282565e-02
4.436392332642867531e-02
3.810492866413832391e-02
1.033359798045938860e-01
1.204675773862277921e-01
1.525970280898596432e-01
1.142522352677163983e-01
9.805572982966938300e-02
9.411836336307265183e-02
7.868036007794963760e-02
1.237593087286236737e-01
1.164923691504004544e-01
1.483896033320286356e-01
8.384411941454214534e-02
1.226266502145257897e-01
1.082864584324842866e-01
2.080148791588672941e-01
1.690527740492189790e-01
1.390526041481491004e-01
1.430090407726177237e-01
1.510145435045500972e-01
2.000924134073548410e-01
1.727676861978221234e-01
1.573745474817991041e-01
1.803031012957859169e-01
1.585996010998464434e-01
1.568664962333896629e-01
1.771735385479213110e-01
1.911385060064162145e-01
1.535457558180763904e-01
1.933785564276978564e-01
2.055938404733582969e-01
2.394208872965646884e-01
2.817432392047500844e-01
1.932480147226493528e-01
2.499486688102080245e-01
1.970674289811196467e-01
2.521083706652030298e-01
2.098047844174987242e-01
2.323412156323240441e-01
2.433155340000998923e-01
1.909998505561305016e-01
1.845277100951674132e-01
1.814797110423662097e-01
1.672754922563869928e-01
2.894911823736454615e-01
2.060810434331490082e-01
1.843636878058168005e-01
2.143700026262367886e-01
1.817886669088991658e-01
1.264049090446650592e-01
1.731019100773575070e-01
2.054478569768252161e-01
