1.394272534591370905e+00
1.369776584816926990e+00
1.346210976410280313e+00
1.245881195080211556e+00
1.248887762868513773e+00
1.169299208589710037e+00
1.097598652729735891e+00
9.969260256442821211e-01
8.973905620425476348e-01
8.142791076292213992e-01
6.675033008711309668e-01
6.532050417056050051e-01
5.615142720770718299e-01
4.693878020116903915e-01
3.985557267310979035e-01
3.449389701431497257e-01
2.892214254057424716e-01
1.907186322973604131e-01
2.408360850828691058e-01
1.753972571927862600e-01
1.680299580625827516e-01
1.150965207206442742e-01
1.007850931648716364e-01
7.596059728123241706e-02
9.659683875725491586e-02
5.125161037156274191e-02
6.086567738652573500e-02
1.153977062943898624e-01
4.039552702263590062e-02
8.235287949113181960e-02
4.893230396533625182e-02
4.428205834794590734e-02
7.758036977979314297e-02
1.145241418905108693e-01
3.778965680721033116e-02
1.273892851288694894e-01
1.507723214349267482e-01
6.645686679023508903e-02
1.447431882192136421e-01
1.501967083955117466e-01
1.954242098634052793e-01
9.728445187772354064e-02
1.179600389246338449e-01
1.197851900346379450e-01
1.440585927259681875e-01
1.101872917550960340e-01
1.922771089900467967e-01
1.696256306713481155e-01
1.274585112364198525e-01
1.970344438017361255e-01
2.258503112055269268e-01
1.792250417612569202e-01
1.981340080409960680e-01
1.712457959582577849e-01
1.769458340909279004e-01
2.132510403006065425e-01
1.971398730809539035e-01
1.789089747755893689e-01
1.623525134319906971e-01
2.315047448377871020e-01
2.284283626743806306e-01
2.225002688608662682e-01
2.602969319829886996e-01
2.406903632262630544e-01
1.681052216005396727e-01
2.010876362947044971e-01
2.061672253865279303e-01
1.149487281953428391e-01
1.499909520271154040e-01
1.623252567785695155e-01
2.109361755716078757e-01
2.088077836748370164e-01
1.868158164766530738e-01
2.440368483539626099e-01
1.822325169861137018e-01
2.073453572269315370e-01
1.680814164838318192e-01
1.609526037403827825e-01
1.661922051957351321e-01
1.816051071109347770e-01
1.873514173761931523e-01
1.171061670619477080e-01
1.369876439345182328e-01
1.091069513031354687e-01
1.270346247149926056e-01
1.837932066095922523e-01
1.380431632055363067e-01
1.284975809172277383e-01
1.566025967017087295e-01
6.981636889578221594e-02
1.210934033776537577e-01
8.214278738123251267e-02
5.349928815020916356e-02
6.680269591737961199e-02
8.039262031022428867e-02
6.292883662755088814e-02
6.073709308985315858e-02
1.956715524440544307e-02
1.150226341158161608e-01
8.195438154749701276e-02
4.204692067031085695e-02
8.169031356426294244e-02
4.403225809521647827e-02
1.663818006471557559e-02
6.026287692824018605e-03
1.815864835608842209e-02
8.315365597513203755e-03
1.873239833063349014e-02
-1.473398072156615474e-02
2.628992458317495895e-02
4.155082028037493380e-03
4.067631283653866392e-03
-6.444826293702882181e-02
-5.132245865500449644e-03
-6.606347176184833303e-02
-3.369390113109128893e-02
-3.354843862327676340e-02
-6.912926038767777670e-02
-3.471811988790001607e-02
-7.639688814553226293e-02
-3.354617503976951853e-02
-4.566140542972384198e-02
2.231445437652218589e-03
-3.073116111844238080e-02
-1.653686079955045407e-02
-5.651846335582173808e-02
-6.398084577681967255e-02
-8.093522550353564327e-02
-6.942792806674674688e-02
-2.111028974931387914e-02
-5.519034753849227926e-02
-1.587151979099723359e-02
-7.291426876664196255e-02
-1.291254934167339607e-01
-2.656670738434723997e-02
-6.958733919630630260e-02
-2.871585627610234032e-02
-8.436705606531157142e-02
-2.496274756071027376e-02
-9.325328500734673953e-02
-5.990942052472309626e-02
-1.078242346739665264e-01
-2.703502124308550594e-02
-9.164883093661883862e-02
-5.471707959493013473e-02
-3.908628329698855819e-03
-9.144670800072740580e-02
-3.631586038064979483e-02
-4.831587639293430381e-02
-3.597380504371930354e-02
-6.085767799434161490e-02
-5.078242296678762979e-02
-7.055572187121590677e-02
-3.349107799535513963e-02
-4.546249376063164066e-02
-1.956006846354128512e-02
-9.383631438649744916e-02
-4.386100353670654289e-02
-4.419759824848049773e-02
-7.320784099426494440e-02
-3.603246994613439058e-02
-3.330974707486412945e-02
-6.936320404207656221e-02
-3.702189131674196720e-02
-8.043193948113816494e-02
-2.563985614778260813e-02
-3.375009266899281490e-02
2.265502146669526318e-03
-1.798681815705067966e-02
3.067432022060465058e-02
-1.661355600550609019e-02
-3.769129620322254903e-02
-5.476707710142388053e-02
-4.495841162152903331e-02
1.962355801183523346e-02
-5.601959847905693679e-03
-7.182792550442451684e-02
3.372811697087917115e-02
2.300612923773708018e-02
-4.355001330167086043e-02
-3.651892950560677031e-02
-7.100042811596443681e-03
-2.612887273532447929e-03
4.354928720511674900e-02
2.755045231486612234e-02
4.841381765455350650e-03
-4.496648080815124349e-03
-5.735084470693548042e-02
-4.542636913212806660e-03
5.520857785557821418e-02
5.135912347187952809e-02
3.726344480915104451e-02
4.664267452668393460e-02
2.259372746542726712e-02
-3.826877883439563921e-03
8.168405409304260734e-02
-6.698207556947624597e-03
8.198625037911183577e-02
1.290305025414646423e-01
3.637130344813117172e-02
7.947745591487856420e-02
5.909881235920927400e-02
4.988602273461536368e-02
4.335523253384964554e-02
6.971779507504155537e-02
1.164148721163568295e-01
1.053490232127325676e-01
7.890942281535204272e-02
1.266065801723744721e-01
1.096798837025063089e-01
1.417279489894490985e-01
1.364856744473446071e-01
9.189660992810648465e-02
1.289678316899064703e-01
8.400685624577824973e-02
6.742371431232041523e-02
9.123624602454247223e-02
1.036497875846620342e-01
9.151805852514603712e-02
8.945915249269642544e-02
1.066457637735165054e-01
4.546403166190705197e-02
1.174944700813644327e-01
1.061553455343035163e-01
9.868590976713179086e-02
1.754175331722682696e-01
1.183700505903098055e-01
9.456528894675572672e-02
6.377990985702253202e-02
2.187093455537976183e-01
2.017109176112929503e-01
2.696454809225009575e-01
3.543699268548261561e-01
4.072886887079840701e-01
4.296383278522192262e-01
5.204136081527748203e-01
5.646294910313295334e-01
6.800323767845323220e-01
7.494341418413995592e-01
8.238625461487882884e-01
9.367307774308715196e-01
1.013735594416454555e+00
1.110482356149205652e+00
1.179134039588003890e+00
1.305664126359798116e+00
1.326346818493298274e+00
1.349704212944380588e+00
1.367108902284235539e+00
1.396840611399263299e+00
1.281754331758132581e+00
1.281087516845366592e+00
1.279878682657027422e+00
1.158613456159146571e+00
1.161021722728410088e+00
1.078178332673349615e+00
9.373233766827910873e-01
8.545673495653092200e-01
7.629528870771681293e-01
7.438156686627477310e-01
6.196405697653133426e-01
5.011091429168139655e-01
4.160295869087087817e-01
4.035856805370285905e-01
3.346679727212691358e-01
2.560690833121723187e-01
2.387357489280610423e-01
1.706649630851634347e-01
9.516119800319317035e-02
1.191505905361707751e-01
6.501376385176219075e-02
4.989645467425581071e-02
1.184011539591153794e-01
7.522396084740413935e-02
2.081902997168304931e-02
7.723755490265944712e-02
6.335441729500188024e-02
4.558076303494895676e-02
1.254934821534545164e-01
6.923448981088911602e-02
1.666185680402525876e-02
1.089366478812327232e-01
7.546831838989981334e-02
1.285293297790331413e-01
1.242928696764510343e-01
7.221168600037072838e-02
1.241600946961011198e-01
8.696039396653741649e-02
1.333265613012688811e-01
1.544166295922529686e-01
1.559040563463367779e-01
1.798787353610852568e-01
1.478762552108555395e-01
1.867525592153651270e-01
1.910889854521120590e-01
1.457278593441807546e-01
1.261753229706300272e-01
1.920195354112306796e-01
2.003073761996082003e-01
1.975696787264221710e-01
2.112950193606805693e-01
2.137519936912177509e-01
1.646074510938163038e-01
2.503678595110210292e-01
1.012083436875384213e-01
1.778405449961781015e-01
2.594298563629209298e-01
2.511083060098430186e-01
2.235177542226303715e-01
2.371211683860051933e-01
1.749980992392017043e-01
2.239394914307345497e-01
1.853022831441088203e-01
2.662902408900140738e-01
2.276599093682324104e-01
2.079502024915744762e-01
2.514418159966338995e-01
2.208187528783203679e-01
2.121500481357151691e-01
2.524327705919486298e-01
1.936010349149437648e-01
1.836504399111860697e-01
1.487955337101542486e-01
1.727682730508154907e-01
1.775767883345661657e-01
1.697405116115346668e-01
1.423223692420702846e-01
1.939396371029045718e-01
1.781440438325140041e-01
1.632203340747337417e-01
1.121784019871522459e-01
1.188748900792576113e-01
1.414891981294186529e-01
8.632185910844211718e-02
1.320820311444998729e-01
1.562763422197432917e-01
1.776760628524627628e-01
1.051539707085264591e-01
8.708209409053903338e-02
1.639826826577842345e-01
9.678096703561636649e-02
9.646989940499856031e-02
1.067411129734045783e-01
8.391101617757798503e-02
6.033669999289924257e-02
5.219432319578461155e-02
9.066908166950787828e-02
5.977027095965727066e-02
8.523348000254550583e-02
8.141052195193831942e-02
9.920882659815105642e-02
4.885965635860098355e-02
-1.841596938262472088e-03
2.579864029043478502e-02
-2.958245786980348221e-02
8.320260717442122533e-03
4.008003676886166822e-02
6.739559290067223540e-02
4.931059218208452832e-03
3.442735745274505543e-02
-1.611483675012760283e-02
9.510620066314333376e-03
2.139896763875073771e-02
2.560593010482970291e-02
6.744457407180652619e-03
-3.500892984667083874e-02
2.753900992626320821e-02
-4.085024128955251632e-02
7.769768912533728950e-03
2.489015512835082711e-02
-2.113872003767756566e-02
-2.426258539056633939e-02
-2.125453771721401430e-02
3.646356887686348636e-02
5.589151348584318890e-02
1.820633587861807470e-02
3.693876651729510047e-02
-3.788393629273962074e-03
5.808944572334762829e-02
-3.777281897128451083e-02
-1.892086178596832924e-02
-7.970516621401146223e-03
-5.559675490511378770e-02
2.666364735092321275e-03
-1.143742766018379098e-01
5.379104553068327077e-02
5.853025974367140338e-03
3.513022579696920000e-04
-1.941295356770537939e-02
-1.982123998535783443e-02
-2.604453965093467618e-02
-4.532321706264859362e-02
-4.238509275373775892e-02
1.141873905108972687e-02
1.063377160929323759e-02
-4.861850691810205155e-02
2.646911107130806018e-02
-2.419174481210404834e-02
-5.888799823996000021e-03
-3.172738665474927194e-02
-6.039564276217518346e-02
-2.652277468436201047e-02
-3.102635393890676788e-02
5.567578009135704109e-02
-2.915968006843022362e-02
-2.272939900539842559e-02
2.886865854310489282e-02
4.697282102161327855e-02
-1.507804321008427047e-02
-1.977498053865070146e-02
-4.671818856926572561e-03
-3.807783240231504308e-03
-1.050787383277580755e-03
-9.609498805555822740e-03
7.928353003018051917e-03
-2.179258203572921951e-02
3.466874739977229836e-02
9.212120917169032419e-03
3.476971316306247395e-03
2.232603784878314790e-02
4.869589556511706718e-02
-3.179028294759159157e-02
-6.796686004582374110e-03
-7.792725512480835892e-02
-3.381157634081778662e-02
2.747685148150069701e-02
3.588001174042419056e-02
1.575288040562347613e-02
6.253568315125741794e-02
3.488081984636344501e-02
4.531008299320080090e-02
8.170565640832049004e-02
2.944965527021754098e-02
3.597857213115988190e-02
1.309692069122168900e-02
4.643625063592759367e-02
-2.381222592864895571e-02
5.391930388977467931e-02
3.914430424591680557e-02
8.289507436875172275e-02
1.058271871275251186e-01
9.538824754752739388e-02
7.876937157595660655e-02
1.160138012019110987e-01
1.153967528096711687e-01
1.154607358092213099e-01
1.298687934429754998e-01
1.581838257006915049e-01
1.147495620385356740e-01
1.332870245108666862e-01
1.245260366311307654e-01
2.009843035146720303e-01
1.267107929219149220e-01
1.417270054155314041e-01
1.222387545483064608e-01
1.586470804205908636e-01
1.504596876374442449e-01
1.181605977953740644e-01
1.088103161508685579e-01
1.286211601488077561e-01
1.800830728749622245e-01
1.383028137650151590e-01
1.355859351585016193e-01
9.938102845848628686e-02
1.354642186034334672e-01
1.726461781085974756e-01
2.067494777168817632e-01
1.567850531958715488e-01
1.391957641969465698e-01
8.332866038346530002e-02
1.110010287062999784e-01
1.427390890552641400e-01
9.558571636484723688e-02
1.304319719231834818e-01
1.505618007080156140e-01
1.911654077240213523e-01
1.584093726479699482e-01
2.314965840086415649e-01
2.858755189601419611e-01
2.621422616220108193e-01
2.708377762322462523e-01
4.062467117722333709e-01
4.399931922110547622e-01
5.056155908187162096e-01
5.838749048429823230e-01
6.539962996050509014e-01
7.248517303783930110e-01
8.531484123563002342e-01
9.137743920610879034e-01
1.019632441218774499e+00
1.096400624579843441e+00
1.187982166171132725e+00
1.278479138721178687e+00
1.335829652716579163e+00
1.382646588058195070e+00
1.417411410044526532e+00
1.366299871599810700e+00
1.469903680734815143e+00
1.383604922330283760e+00
1.357199114947236884e+00
1.279040688616667421e+00
1.257546725819849387e+00
1.180044376352705093e+00
1.077613062019119106e+00
9.476434123824885036e-01
8.682780285507973872e-01
7.695932068787583180e-01
6.984483664721019558e-01
6.273170530931814204e-01
5.565672453589260993e-01
4.345440580703271438e-01
4.212079403099395769e-01
3.086419834835976150e-01
3.175515914123924199e-01
2.429223532533133501e-01
2.502614200829246238e-01
1.504941949436547355e-01
1.368303664822049237e-01
1.544207103436684159e-01
1.648678422259199638e-01
1.351268336170950712e-01
1.182756834941741386e-01
1.527890621265319271e-01
2.388982575270096609e-01
1.441785423015160272e-01
1.383189168655941659e-01
1.426759680120511242e-01
1.390426458614860139e-01
1.441494137192728120e-01
1.630699152264715179e-01
1.493512584064164983e-01
1.478143469233033913e-01
1.192067762101605283e-01
1.982846575722659321e-01
2.044232022161227014e-01
2.349168281394251601e-01
2.111768015635498152e-01
1.589474037683547836e-01
2.219819910008626607e-01
1.989544074128873352e-01
2.000816309745659105e-01
1.920112173513176534e-01
2.116232924163613527e-01
2.258257076826596099e-01
2.397400041355844391e-01
2.596023420803702519e-01
2.566456573072948277e-01
2.485423801410555078e-01
1.962214772606669100e-01
1.994665710280899007e-01
2.861286513994628078e-01
2.434649635514034571e-01
2.497665493012874438e-01
2.896530623011919769e-01
2.562775544929714600e-01
2.691336982341060446e-01
2.720541194368428228e-01
2.017197016828325695e-01
2.840867251417635853e-01
2.548004159195196849e-01
2.390997987200672303e-01
2.971110906239343152e-01
2.947681338538414852e-01
2.533826722307316315e-01
2.755037229342690575e-01
2.868069807583885078e-01
3.255245232374059383e-01
2.338490876450200762e-01
2.156759771813528681e-01
2.543570785215487073e-01
2.717028434475164955e-01
2.050936147318663805e-01
2.910108066660653248e-01
2.342872413808840537e-01
2.302454227435307699e-01
2.348269007701923594e-01
1.975266484869530048e-01
1.859083937116734753e-01
1.792117969851882708e-01
2.242489465315862796e-01
2.513453505705937618e-01
1.668465012679345161e-01
2.469919433671573517e-01
2.056023339171223208e-01
1.671229321171019411e-01
1.736480215455265541e-01
1.829547000356004927e-01
1.766729704772393439e-01
1.733646866135972464e-01
1.103930730633672641e-01
1.426313411057988645e-01
7.143000387139153418e-02
1.825659613344962073e-01
1.654639270210617463e-01
1.469674009311533747e-01
1.078376546592168805e-01
1.396654322516044655e-01
1.471753607591370361e-01
9.689357773078036140e-02
1.054675708671709705e-01
1.214852153451852490e-01
8.122428406816148416e-02
6.800722177840862193e-02
1.506682918321341491e-01
9.906533258872862735e-02
8.523786174996922371e-02
1.770216799093332627e-01
8.233486492260067013e-02
8.161405902301133164e-02
2.205950334038608851e-02
4.060846602632457031e-02
7.783572392434817688e-02
9.548055258562559988e-03
4.528873627475760166e-02
7.539203656555065747e-02
3.587014070789035225e-02
3.825321950403135635e-02
7.952315936274603758e-02
7.225893376600495133e-02
4.511118073555268893e-02
8.796314419271490659e-02
5.865594345324505465e-02
6.363983050508054129e-02
9.093923129186853860e-02
5.637075755086119744e-02
2.978883972787611106e-02
8.514314565407937740e-02
5.158254894324013073e-02
-1.769258611437073136e-02
3.202395065722381251e-02
7.275583430926012285e-02
7.443430356268196380e-02
1.063085379396324914e-01
5.214714887645997138e-02
5.587674030278158566e-02
6.717557495631584774e-02
2.048008513485454971e-02
8.562717953678765370e-02
-4.083539678705194048e-02
7.385796183783092939e-03
9.114213065485148035e-02
4.211051281896831255e-02
2.741676546936997610e-02
1.092510998050539028e-01
6.085673075008562333e-02
4.976221200135019784e-02
6.070752673786049269e-02
1.341218700202662789e-02
3.099621957649699444e-02
-1.945077027584111995e-03
7.344768663851597434e-02
3.540713208581878352e-02
4.020322911609117145e-02
6.115622594780941584e-02
3.267046200415820584e-02
2.307850656289345964e-02
4.333067728531549839e-02
5.638287757453117749e-02
1.116622870355929581e-01
6.311201810958511071e-03
3.327519290154650616e-02
7.857388355837846561e-02
7.255949288962161570e-02
5.239067709963766972e-02
4.561114890790614329e-02
6.469127779194244754e-02
5.469708861448607795e-02
1.151948411346166018e-02
5.400348179323471304e-02
6.862945734115280527e-02
5.367906394784041635e-02
5.965632381675257251e-02
5.411258045094799463e-02
1.014134150512311094e-01
7.925672144906339978e-02
8.099052645821705476e-02
6.515356046574334592e-02
1.134594917434281758e-01
5.207178578510170130e-02
6.030672985207360948e-02
1.245707934904810577e-01
8.670317092526716451e-02
1.025998250523035837e-01
1.555711393077426896e-01
1.358076317489061158e-01
1.195905876651655458e-01
8.324038234937422565e-02
1.067176333228732066e-01
1.669919186654144905e-01
1.005604010542297255e-01
1.518353402202789748e-01
1.904506536417491791e-01
1.541475645320205534e-01
8.282433515951657943e-02
1.890945278613437586e-01
1.482032670892324544e-01
1.258095701036240910e-01
1.699578355418270570e-01
2.074858228012536887e-01
1.711938423906622930e-01
2.100201720459248522e-01
2.232849383251196418e-01
1.781781328128184128e-01
2.472468068340546998e-01
2.255372745325146255e-01
2.143154849015345975e-01
2.208890535972289071e-01
1.927738855086897352e-01
2.005617092986137218e-01
1.471129843085930422e-01
1.761950750715716996e-01
1.841930873543311531e-01
2.464602730911214512e-01
2.229025975169208473e-01
1.860440355402963042e-01
1.899546237050595832e-01
1.777395931734620516e-01
1.977470581370029956e-01
2.123911439424488734e-01
1.902387704708312088e-01
1.879593713354068552e-01
1.897394234934598189e-01
1.953617030233776308e-01
2.216809650446697755e-01
2.692428442644247966e-01
3.025366858544493165e-01
2.564356557102147049e-01
3.303413034922084712e-01
3.705344600903270336e-01
4.329836730969041647e-01
5.139930849836354954e-01
5.565795473206089916e-01
6.751009384689995452e-01
7.690046666176600931e-01
8.693738296193375126e-01
9.150456822829923231e-01
1.058804478214859124e+00
1.105715495216460953e+00
1.190760608985675928e+00
1.244841469135916645e+00
1.349627920875336562e+00
1.346422484259585106e+00
1.430148693738326982e+00
1.443047837462541061e+00
1.444853109089346832e+00
1.400616174291267502e+00
1.404618290907938993e+00
1.396733102990124209e+00
1.365205424997091521e+00
1.224869184794627586e+00
1.143328385835516103e+00
1.081491409581756047e+00
1.014230853236131047e+00
9.019666219563520215e-01
8.079633739991575192e-01
7.159381364399577397e-01
5.499071486955938726e-01
4.654784626813208703e-01
4.767586696353028897e-01
4.045767950930231338e-01
2.775189164911773254e-01
2.973597907553868769e-01
2.376019511737821888e-01
2.017098668876552425e-01
2.738417473769964583e-01
1.947731652716465367e-01
1.455930076698658815e-01
1.622235617206868041e-01
2.285033440589830933e-01
1.647723513998010647e-01
1.168482080362028691e-01
2.196762852297644286e-01
1.811568645476289985e-01
1.907857907853254542e-01
1.696456441566496220e-01
1.744990156437810358e-01
1.998055175972369701e-01
2.036451209184677036e-01
1.887292546794057391e-01
1.831853270207395579e-01
2.266118830477005242e-01
2.290400258535756906e-01
1.895108905057868720e-01
2.254961779213674467e-01
2.170758418136957413e-01
1.763107705873396547e-01
1.694232950448439357e-01
2.282107139404040141e-01
1.983883807146185341e-01
2.826398558226950741e-01
2.422118119755377608e-01
2.629027065876489155e-01
3.346839969197006881e-01
2.483396196627622454e-01
2.575658345375437253e-01
3.123030720465978516e-01
2.794722103193126306e-01
3.103281080310308360e-01
2.815688072413191079e-01
3.049252295929023582e-01
3.238557196615299283e-01
3.246021190286854652e-01
2.758400531345972517e-01
2.367985846804386563e-01
2.720624519843339306e-01
2.805733861444253963e-01
3.217143521934030526e-01
3.091476421916178885e-01
3.189126033110157854e-01
3.207726061631641645e-01
3.064020487575671026e-01
2.921230798009077922e-01
2.773911598679107415e-01
2.653179643504399721e-01
2.887024775572866742e-01
2.643739203898584633e-01
2.647205653947536375e-01
2.853032252288041359e-01
2.751753876804101662e-01
2.322860006352888140e-01
2.101860553934513653e-01
2.394247498940497987e-01
2.854006687217497951e-01
2.532934165097854851e-01
2.679775153203026172e-01
2.477209475063784638e-01
2.453066883928174402e-01
2.396432138324093297e-01
1.891752604314311803e-01
1.873489020317501141e-01
2.450139947775304972e-01
2.219654789473015644e-01
1.818256099556775918e-01
1.878327632877385966e-01
1.986196373130132697e-01
1.796523702016221413e-01
2.526878388302787326e-01
1.776327084092058084e-01
1.716180636762152656e-01
1.701951519849538852e-01
1.697681281024191191e-01
1.293103865298340371e-01
1.343018481106953432e-01
1.571119359153748674e-01
1.610012367007925271e-01
1.396599257922940263e-01
7.010761599522080667e-02
1.379711189543456618e-01
1.334711809204362776e-01
1.070238618082109405e-01
9.108832847729624038e-02
1.390154413005267320e-01
9.139872491404116284e-02
1.338989171971579073e-01
6.522300040054167247e-02
8.756402692937961807e-02
1.439888426873038862e-01
1.671287075421590551e-01
7.186616624987481050e-02
7.662349443981314456e-02
1.061690515920973577e-01
5.037114386218638495e-02
5.342699340217153814e-02
4.567051556192101847e-02
1.130366624914902057e-01
5.972811498774710515e-02
5.592492789601624659e-02
6.494431371944796305e-02
4.814284123153829420e-02
5.577150973824369223e-02
6.798925570413823227e-02
-2.735542823350062269e-03
3.273544230308803038e-02
6.540336395364390598e-02
4.113097544181880394e-02
5.507537578196441963e-02
1.535376527690618387e-02
1.617589540766283321e-02
2.972200534110029657e-02
4.521501507463375480e-02
4.169777784982744984e-02
2.675133890807389336e-02
7.104759247870032213e-02
3.112602942386769045e-02
2.400771393328048064e-02
1.310310905783762525e-02
5.189785293930516269e-02
5.163380162586103661e-02
8.275467158137025936e-02
2.946284187795043807e-02
4.829317700470169700e-02
8.971147438803032947e-02
4.686836617995106952e-02
3.423321481758397067e-02
3.697568240134430084e-02
7.923165584531835504e-02
6.941635786580091505e-02
-1.113835685702051215e-02
5.456685989614343257e-02
2.948143535064066262e-02
5.145620646077789240e-02
4.188376218380134713e-02
5.015224024346814913e-02
2.208885812786165470e-02
-6.049583645173946256e-03
-2.870729633682066184e-02
-3.604356976806659396e-03
8.705312295656754407e-02
8.237186901526558080e-02
8.003149470965209566e-02
-1.120389897430748571e-02
7.109014850471118141e-02
6.467688953754380243e-02
9.569617927216632347e-03
8.395903447799660246e-02
5.961948244175043626e-02
1.081973934541436699e-01
9.432420037226160736e-02
1.729690002318089170e-02
5.618422636740022513e-02
6.653491777808615004e-02
5.972479922273785102e-02
1.083992361703925988e-01
3.726056887466311363e-02
7.641070329291331509e-02
4.248173116671222216e-02
8.546305249054997333e-02
8.219209609558765506e-02
1.163160199828949942e-01
1.502509862369994786e-01
6.268750601840833436e-02
1.302243637409268850e-01
1.408204111857342400e-01
5.469268840972773410e-02
1.260363293217305336e-01
1.660174964667718578e-01
1.049831723210269963e-01
1.346439124077573601e-01
1.082433084990122030e-01
1.327752623931564568e-01
1.680526913422909219e-01
1.012520061085388501e-01
1.731574332135347449e-01
1.518715619261612193e-01
1.632028264665202899e-01
1.696844204413374690e-01
1.983934926583707514e-01
2.259151752232855248e-01
1.946677016996942455e-01
2.021901820641221759e-01
2.301807123725544690e-01
1.666925154178941493e-01
1.969073773628796931e-01
2.030751795102088975e-01
1.994520058472390445e-01
2.044533515626113795e-01
2.849402738385722889e-01
1.233418741090518828e-01
2.004858628358654749e-01
1.565247242369883773e-01
1.903365622382254541e-01
1.573685731554383960e-01
1.575887125385456999e-01
2.198807919253872034e-01
1.997882379411648202e-01
1.735144055097903037e-01
1.163919508352280335e-01
1.946754249333348397e-01
2.092900019534594813e-01
1.585050215992823419e-01
2.495519863710917163e-01
2.078802877752851108e-01
2.276636401401947452e-01
2.654169475980756587e-01
3.609535939433363150e-01
3.005805219394354078e-01
3.841659985058977766e-01
4.806571877905397860e-01
5.411091951441108217e-01
5.616532182289060149e-01
6.531686461673487099e-01
7.648534951713991115e-01
8.749756545005461517e-01
1.001487574554355220e+00
1.042993984091781456e+00
1.151392591444786007e+00
1.142994535962155389e+00
1.255980919002920748e+00
1.335309972698011549e+00
1.361795595968734673e+00
1.439799237059726567e+00
1.425500718663058164e+00
1.351311237464976500e+00
1.374079591398295719e+00
1.359872920076339309e+00
1.268168131087210826e+00
1.253222146025751549e+00
1.172165013398426492e+00
1.131075156921085068e+00
9.982418612087236021e-01
9.219145226941063420e-01
7.890910246153167718e-01
6.466261569133656684e-01
6.147481798707952194e-01
4.889096746769104329e-01
4.346134759126788483e-01
4.211047173657213039e-01
3.626621455061204147e-01
3.329215981279258219e-01
2.577899202779414534e-01
2.246499719587337351e-01
2.114000302020550559e-01
1.173240334463054313e-01
2.072980761811924755e-01
9.741853144534148856e-02
1.001013690696494207e-01
1.347394772482064240e-01
1.062912233090375219e-01
1.101601838361748048e-01
1.596361107807350299e-01
1.220992801432642938e-01
1.047184762262001745e-01
1.322315113717526247e-01
1.413925461894877111e-01
1.582834852873185039e-01
1.582808868305213557e-01
1.729025675031898857e-01
1.488985985841158599e-01
1.813949219582098871e-01
2.164565508703678309e-01
1.677193818170492345e-01
1.907014673576545860e-01
2.281278457904914736e-01
1.781698439697795844e-01
1.425925716437625723e-01
2.211197074254551420e-01
2.315461733725906468e-01
2.086477492645957832e-01
2.042318196565994504e-01
2.476794899277029727e-01
2.368638983576275836e-01
2.391407495714443499e-01
1.754780178326117435e-01
2.279712080035564692e-01
2.422468189310106323e-01
2.113995124027355232e-01
2.697542835176560128e-01
2.626590112709277225e-01
2.726542142167469596e-01
2.369512950295455112e-01
2.480214996403111993e-01
2.270948184642861689e-01
2.328585926481654134e-01
2.722394969028421041e-01
1.933164499257054858e-01
2.478120757874070212e-01
2.748567246289514432e-01
2.661305872564335151e-01
3.209424951561672956e-01
2.651750937611402348e-01
1.860800807289676451e-01
3.025606296844157161e-01
2.321618998361176245e-01
2.028342316477065310e-01
2.647215507514466548e-01
2.658297390288640316e-01
2.861935039726234975e-01
2.514711577612823157e-01
2.158021073194066608e-01
2.054370850798633852e-01
2.023823454893079465e-01
2.354696942579282692e-01
1.923194345184252585e-01
2.339365253716066406e-01
2.216030970733093575e-01
1.867862051157031800e-01
1.553825885848998112e-01
1.415880684785408850e-01
2.024648168218012301e-01
1.695360019865796153e-01
1.551307658053028560e-01
1.214171681808019210e-01
1.354213533830676552e-01
1.361747695673787839e-01
1.456416800392266453e-01
1.390403274218279528e-01
1.487667169544956425e-01
1.429200470340352414e-01
1.269446474259595947e-01
5.490321155130550856e-02
8.874961601954431401e-02
1.164873401837543537e-01
1.014715980240209203e-01
1.177016790073153324e-01
1.762329014108447722e-02
5.038630448922518101e-02
5.707292405855932116e-02
6.674195591197307209e-02
6.700431208916206305e-02
6.906299349308374358e-02
8.330550293346868085e-02
2.593698582117489465e-02
3.165267333862235161e-02
1.342816402209625476e-02
9.473578233316830993e-03
7.455366069616482794e-02
1.119796863027961234e-02
4.284797892209819825e-03
2.062281319880375843e-02
-3.944626496005377951e-03
1.938068926180553514e-02
-2.590605136738149614e-03
3.503524742707534584e-02
-2.253749979152749189e-02
-1.580408911574816139e-02
7.379533381851387935e-03
4.757934007826038550e-03
2.465545483948633487e-02
5.382911820240211115e-02
-2.044329063342200520e-02
9.224461128282089584e-04
1.405598626685047869e-02
1.949150248621266124e-03
-2.283769118111548396e-02
-2.528716112537034155e-02
-5.706574943981596038e-02
-1.661774574569049867e-02
-2.976763895725824394e-02
-1.049796191359768545e-02
-5.499479440605186537e-02
3.215379106775254070e-02
-3.541794899845107300e-03
-1.787723635153288040e-02
-2.233982719928289534e-02
-3.594548509222154908e-02
-1.504472389388365403e-02
-1.977008506351017603e-02
-1.460497520161590027e-02
7.319275987365047448e-03
4.347089292536507332e-03
-1.924822904219516267e-02
-2.058176965097881922e-03
3.679187119385727428e-02
-2.017517863461937289e-03
-2.026474987748154433e-03
8.941779732915187268e-03
-1.033107654389722393e-02
6.915456986540530204e-03
-2.026905326513156816e-02
-1.880676729106743258e-02
-3.409681249361968050e-03
3.416055928665594210e-02
-1.020669425308688705e-02
-1.873979476787408782e-02
2.731497513717780559e-02
-1.791402834772583968e-02
-4.447175100101632972e-02
-2.582896560037767353e-02
-3.297415484526530077e-02
-2.984086085093910767e-02
1.970065415067204229e-02
-4.538937972492106121e-02
8.058617829135514277e-04
-2.441600596630840933e-02
-1.216591036404585970e-02
-2.047380809648560382e-02
-3.606004513099485276e-02
9.473747925837713163e-03
1.911841835000465881e-02
-4.682049601296211366e-03
7.446495625529656742e-03
2.970421417068225961e-02
-2.278902200736680067e-03
-1.319740168858289306e-02
9.981551720497748581e-02
5.082318411444391310e-03
7.099064963153134400e-02
8.962028767932614381e-02
1.079307392953340605e-01
3.765284293695253526e-02
5.288572467603004645e-02
3.967277180515881019e-02
3.043443525338390687e-02
7.599669205046812037e-02
9.576051308432778630e-02
9.374843731487204901e-02
9.439371157723568107e-02
9.469458106505150574e-02
1.068251762459016679e-01
1.210247788269234320e-01
1.239120015893880877e-01
8.248982267758092624e-02
8.503124656302167572e-02
9.361588449293439806e-02
9.486879632925424022e-02
1.133717068676604600e-01
9.561576904286762935e-02
9.558891472841514469e-02
1.033455006222464695e-01
1.383107448082143698e-01
9.594466637452836455e-02
9.504189218518373228e-02
1.007278200328495660e-01
1.111794137709998798e-01
1.350660387423635589e-01
9.212320147066249687e-02
1.608743180647324300e-01
1.617164904183866214e-01
1.222367453166057494e-01
9.250702454981718503e-02
1.058960413505726228e-01
1.303659686408616680e-01
7.575671474301354236e-02
1.214208383359413057e-01
4.796876068383185837e-02
1.144616620711385313e-01
1.502985848220096399e-01
1.477131156043751670e-01
1.363372379520906563e-01
1.797867424842720108e-01
1.757829242479485576e-01
2.403402703604953783e-01
2.247240055121545177e-01
3.402248516707200854e-01
3.657957700541606405e-01
4.559253975234998091e-01
4.667996602270061968e-01
5.109164507068457706e-01
6.147091260900835463e-01
7.397047758605762580e-01
8.372141770501873026e-01
9.066847830065455360e-01
9.633946621299729340e-01
1.086317708632504431e+00
1.163620900013295545e+00
1.203334368292135137e+00
1.339331575761213200e+00
1.317313289522397790e+00
1.353887529185004324e+00
1.420076827247131357e+00
1.353575473782217653e+00
1.347593083903333655e+00
1.283914269143058506e+00
1.207969277550067000e+00
1.135244006352873702e+00
1.099711336762888569e+00
1.013498014793974500e+00
9.317347843077061764e-01
7.603257486894223760e-01
6.513424288898409520e-01
6.310249095589226531e-01
4.961270975470817857e-01
4.290322141140486267e-01
3.663930517516503227e-01
2.832312004359238133e-01
2.875895925931157282e-01
1.945684210234450984e-01
2.291255323267244182e-01
1.511830448816248729e-01
1.511421162454266998e-01
1.115720708132292016e-01
7.879530452983388167e-02
1.021131978636363735e-01
7.230128015169584588e-02
9.735676619925066888e-02
7.270517167918713608e-02
9.004240410523187133e-02
5.924079540035052938e-02
1.214038312411014064e-01
7.666311574323333988e-03
1.166085853994978661e-01
5.614684907338729491e-02
1.401051313173748980e-01
8.976022454043870724e-02
1.381759388162481783e-01
9.916759860382912128e-02
1.441768113255408046e-01
1.579108278252636388e-01
1.425808602185611729e-01
1.439570869612385173e-01
1.305795314387214745e-01
1.454869417080772998e-01
1.755458649457901088e-01
1.705810082701890162e-01
1.714801000026798805e-01
1.247095240605030353e-01
1.919973990129548447e-01
1.178335477552533705e-01
1.599221786596246586e-01
1.972992978087404203e-01
2.123040529795525988e-01
2.191656554106626020e-01
2.423250645865281383e-01
1.976885108147443948e-01
1.858174819131103717e-01
1.943256737728349393e-01
2.131878979475242408e-01
1.883541185681722185e-01
2.112439978090440151e-01
1.753910972108109756e-01
2.912406551893890749e-01
2.053316847769847686e-01
2.409532752685616674e-01
1.813891120564036508e-01
1.808799621242242472e-01
2.060980266834683827e-01
1.535213048400164981e-01
2.040651678198928676e-01
1.861574158464477657e-01
2.545785328654588398e-01
1.802451388421351108e-01
1.722437669178807362e-01
2.035185658692341970e-01
1.634838585496398988e-01
1.843637717922378960e-01
1.826939142572452379e-01
1.933816441197135083e-01
1.666578046432774241e-01
1.579574951673256844e-01
1.511923445388912435e-01
9.593365375927272176e-02
1.917904407740977923e-01
1.013031858828045140e-01
1.129363466636427726e-01
1.145313733160727987e-01
1.561345093984710386e-01
1.126434311368700592e-01
1.264071840405914249e-01
8.366070785699887546e-02
5.982784032781467143e-02
6.360834377320276345e-02
1.049613838000195698e-01
8.421558707055259996e-02
7.477649787313236929e-02
1.531812956071095799e-01
1.065379666544882253e-01
5.826658783315841889e-02
1.416455530667672796e-02
9.695737984884519878e-02
6.471806062538484894e-02
-1.671795149033641903e-02
2.257062697711760546e-02
1.546825701026585675e-02
3.234558900370253232e-02
2.628793544771504398e-02
1.623110382249454142e-02
-1.736724267799267390e-02
3.557736145352329016e-02
-1.991335148376541936e-02
2.462017387311245253e-02
-3.829666905096756890e-02
-4.487250559122141214e-02
-6.494041514246995384e-02
-1.971574392136187653e-02
2.855564632544559112e-02
2.208223012786725281e-02
-1.913511767606331307e-02
1.893489457169957035e-02
-5.241622464819016558e-02
-4.029370479343112599e-02
-7.967986904596843778e-02
-7.767867711440112899e-04
-6.286303754519537157e-02
-5.149097441985943380e-02
-3.377513752258341773e-02
-4.494972920020595675e-02
-6.835388322641894332e-02
-5.643126158960783123e-02
-1.015287871889577476e-01
-4.908211460723169856e-02
-6.550388256521380570e-02
-1.889225697907201754e-02
-6.190987149238470766e-02
-4.707603850924038658e-02
-4.861791718183285788e-02
-8.848390797417567122e-03
-3.673411274462200227e-02
-4.727510583636584940e-02
-4.637525559540225245e-02
-6.551276015828991217e-02
-3.458481992595217186e-02
-5.154463228046923806e-02
-8.853959196853367075e-02
-3.798051105571329661e-02
-4.819132704924065230e-02
-4.672245940084177734e-02
-2.203309636057602244e-02
-1.551969239386208343e-02
-2.595765569418875818e-02
-7.776535834517900314e-02
-7.027638068961442053e-02
-7.066711585465521028e-02
-7.885075564926595504e-02
-6.545132690079716320e-02
-6.004660783591241058e-02
-2.608733527749998449e-02
-2.053167750105443570e-02
-3.847461490140063889e-03
-4.472957753968586497e-02
-6.031701694711190387e-02
1.420395794947512669e-02
-1.082797106511870777e-02
2.461110399376041646e-02
-6.405679358854270145e-02
-2.494508725404519928e-02
-2.511551904710680738e-02
-1.469528798133452885e-02
-5.488381036626244908e-02
-7.000403451908228381e-02
-4.955303560313829847e-02
-5.843548048745728779e-02
-6.306761279331737913e-02
-3.149915684670417937e-02
-2.124978246980096727e-02
-6.038056390895497894e-02
-2.157953572094225420e-02
-6.079307792558617807e-02
-5.781473094116064415e-02
-9.539443915242765137e-03
-1.944246957587455332e-02
1.308661637979524617e-02
1.078145335285001644e-02
1.867101391433138163e-02
1.403340586293481268e-02
3.413710324447141037e-02
6.187028502997684448e-02
-1.702586403070658477e-02
1.424933978648726396e-02
-5.183644382309823828e-03
1.054424782360422613e-02
-2.315988970033738825e-03
7.737880943583412552e-02
2.311476223246231726e-02
9.067920467986376187e-02
4.607567991517694944e-02
8.549773380366523789e-02
7.992532669040211535e-02
4.336604700263674284e-03
5.676361363684678113e-02
1.768923160390383637e-02
7.611491279847309999e-02
1.291954846975686133e-01
8.862347163865588739e-02
8.878848558849114503e-02
1.297507466993660374e-01
8.172808209203678842e-03
4.476503874521542414e-02
1.020792368106086812e-01
6.291908313282382204e-02
8.688976880370308242e-02
1.051237383985810236e-01
1.217706605424466182e-01
1.391098563465403837e-01
1.219408441619045241e-01
9.372746396134282176e-02
6.909644449388421816e-02
1.551585185977089609e-01
1.154618309822715572e-01
6.526785957630637514e-02
1.462308884096074624e-01
7.828629494327329907e-02
1.152347707666778326e-01
1.078118270647288740e-01
8.452645216464328703e-02
3.130901271495711846e-02
9.753645204572175542e-02
1.851708094612525002e-01
1.579199697999049967e-01
2.329004439706044427e-01
2.059231202085957946e-01
2.729576800635331035e-01
3.300896543465023925e-01
3.830101129529163151e-01
4.365942464249457644e-01
5.032295031587074030e-01
5.248395673406092143e-01
7.090967598447877052e-01
8.350320292311446124e-01
8.680623662186496281e-01
9.601508421825745154e-01
1.044683481777648248e+00
1.045987487406936145e+00
1.183867292945624872e+00
1.261964517580147049e+00
1.332704657228567457e+00
1.309755788468725424e+00
1.351953645583379160e+00
1.312319078186169996e+00
1.378023101449118215e+00
1.307545537858759710e+00
1.301822784763097873e+00
1.159296346749236539e+00
1.126984789846839918e+00
1.025725180509203360e+00
9.453272963271712737e-01
8.208027728532532041e-01
7.464862311990987376e-01
6.873490601352457707e-01
5.936953277362437831e-01
4.643683950899876178e-01
4.585074354825494636e-01
3.744886234624918431e-01
3.041980052550081748e-01
1.832303458543727837e-01
2.106399977230128395e-01
1.419276837303262151e-01
1.321201368303342172e-01
9.554870438974211178e-02
3.040498090393982389e-02
1.088301623251562988e-01
8.421434335404495708e-02
6.549959563571261523e-02
9.989604081405475955e-02
7.409616442909829070e-02
4.907652505377446683e-02
1.209514810396091489e-01
1.037144116817133588e-01
7.626249951772243185e-02
7.908958332903649746e-02
1.258315103677279390e-01
8.787135595592535098e-02
1.349283828590348844e-01
7.858341757590051047e-02
1.499193510829912590e-01
1.163962673694351746e-01
1.439068727139783954e-01
1.298376322265859251e-01
1.043215022861552765e-01
1.637029879103716890e-01
1.406144222211587747e-01
1.010801367855649335e-01
1.417493859578336513e-01
1.321505036116349396e-01
2.162635260692885864e-01
1.837138877052803543e-01
2.038152645122116580e-01
2.104409209382155921e-01
1.514305371870300621e-01
2.137030430643090395e-01
1.909941864369158471e-01
1.572521543062493365e-01
2.143147825514971627e-01
2.039920890246859631e-01
2.530438618683119034e-01
1.675843522619834269e-01
2.546835573784648199e-01
2.013438114504729204e-01
2.326269371465444213e-01
1.839899066088122315e-01
3.037451878317651288e-01
2.210222708722413554e-01
1.875666420129595835e-01
2.052323511379598175e-01
1.683850354434444918e-01
2.205297572277303830e-01
1.741340220732454924e-01
2.012340115023594500e-01
1.771258970916740338e-01
2.399032793629143900e-01
2.469958117041501089e-01
1.953281692963500515e-01
1.959118635759448113e-01
1.878555486135201069e-01
1.754764048930034237e-01
1.816596575844250383e-01
2.084968290233221999e-01
1.780437419051563441e-01
1.518008268010848372e-01
1.948545612374381064e-01
1.403147377496278825e-01
1.122271448489980394e-01
1.162072986725773416e-01
1.434870846826014901e-01
1.232432844590862914e-01
1.932013142413700202e-01
1.237236365158539408e-01
1.090996216311139189e-01
1.514716322656549097e-01
9.390390001845047574e-02
1.075815818268734125e-01
1.483057812318325230e-01
1.054919910824344692e-01
1.221919091058858015e-01
6.657842203498996747e-02
9.695129896588088741e-03
6.140985329385537095e-02
7.651443503716279237e-02
1.283434834038507666e-01
2.129037973282094098e-02
8.820774327636109191e-02
6.466505581006101733e-02
5.236021588548189776e-02
3.717594798821068081e-02
5.303807343888675141e-02
4.096772695390384078e-02
2.462102241955805779e-02
9.948530033710170639e-03
4.405383113137786855e-02
-1.373725028556524452e-03
-1.287067397031954608e-02
6.653738698343975022e-02
-2.148606565376470767e-02
2.531533771943220851e-02
-1.642303240422838401e-02
2.238824785016090696e-03
2.697157519988593530e-02
1.463911133833310785e-03
-1.638759042345879630e-02
-3.196341823434118573e-02
-4.745493357966641679e-02
1.211714506604025243e-02
3.161567816400198683e-02
-1.187260547361634194e-02
-4.729883181012055349e-02
3.293885347066560776e-02
-6.885716575403479089e-02
-7.700041905619344623e-03
-2.418175710287106053e-02
5.614761153960771273e-02
-8.549897324088728823e-03
-1.836403602133188095e-02
-3.066137106340170032e-02
1.953933550363908325e-02
2.872657887660410095e-02
-8.946612410024060158e-02
7.529556218667545625e-03
-2.683816849448607267e-03
-1.384435887597070848e-02
4.775567908560821029e-02
1.750308922964542366e-02
-1.694492205118107442e-02
-3.672869381038175451e-02
-7.588514766108933607e-02
-3.231313191219975511e-02
-5.922746655700908414e-02
1.574266730341540577e-02
-3.538633151381300607e-02
-3.984181231653631527e-02
3.899982615287316684e-02
-1.287999791495584960e-02
-3.833454307611555700e-02
1.006326955420136504e-02
-5.852160788418338255e-02
-3.370424920829735715e-02
-1.374633360673708019e-02
-4.796304593397421323e-02
-1.149402749562040277e-02
-1.656740268519333800e-02
7.812876223291922995e-03
-4.768301462875681324e-03
-1.198768177614768088e-02
7.040764560515638815e-03
-1.716172705890161090e-02
-1.646316279199858471e-02
1.316541731586279122e-02
2.544578844780770802e-02
-3.842326959068681491e-02
1.909471050369355299e-02
-6.048504697493264221e-03
8.425250328191514343e-03
4.720547262773454322e-02
-1.357686854855246969e-02
-2.922044236025358316e-02
-9.168818095556719242e-03
3.069204127151545919e-02
3.733665425726379744e-02
6.001130529055422047e-02
1.689600522755518169e-02
6.716298502123407843e-02
2.663230887569512789e-02
-4.537520801207225313e-04
2.877232187821864712e-02
5.800396383033978864e-02
1.457924307303395950e-01
2.839855467984988419e-02
1.012412816701013102e-01
9.639630422923549380e-02
6.153048650860120511e-02
1.001690099121549798e-01
5.327872821533649605e-02
5.818361254890990625e-02
4.985494078638381954e-02
8.050485035672887146e-02
1.080022893124054084e-01
5.221996813869640014e-02
1.401796125551418859e-01
1.327067222456819184e-01
1.206188151050594376e-01
1.272074503825806613e-01
1.808516771074348828e-01
1.239209698732353232e-01
1.190472182646722943e-01
1.287921017359318909e-01
1.474058043147196406e-01
1.071842635207975319e-01
1.767310707725784635e-01
1.015364434785849396e-01
1.752960391461000633e-01
2.493231324159452533e-01
1.984419836547582638e-01
1.843972656082565886e-01
1.120439535383664087e-01
1.713186176706211206e-01
1.296461552994942201e-01
1.687182521280244096e-01
1.657278425611469763e-01
1.275294372248534369e-01
1.026216443206076079e-01
1.293360744296710441e-01
1.241474773875206744e-01
1.596368823980558738e-01
1.831998232771841761e-01
1.591200931338515590e-01
1.525956418991369079e-01
1.879917741998661795e-01
2.450395460674677506e-01
2.444208241005472182e-01
2.917915404484927588e-01
3.364313964385430289e-01
3.451182095984614562e-01
4.191057113346610685e-01
4.958197061333584621e-01
6.107242234933588643e-01
6.665821511999611149e-01
8.092295155136288720e-01
8.764066812915199955e-01
1.007984128522283696e+00
1.083380336038299863e+00
1.166680965271212234e+00
1.229754109323558442e+00
1.274908681840573044e+00
1.375579536810739967e+00
1.397747617277905086e+00
1.473477344470182526e+00
1.424993385351081665e+00
1.399474963284184081e+00
1.385836189027543686e+00
1.334057192286813187e+00
1.253547650503401334e+00
1.261437128660569451e+00
1.127631299391187669e+00
1.070758277977211126e+00
8.860488360113742967e-01
8.641123334799930555e-01
7.758891177969116093e-01
6.889599912458604924e-01
5.476604315723446748e-01
5.209328217930174754e-01
4.067933595435584970e-01
3.594876690281581522e-01
3.284452344477473695e-01
2.791837547972075284e-01
2.181453829909693332e-01
2.109879736537239592e-01
2.004288864080312482e-01
2.270908831883957368e-01
1.565661567739516646e-01
1.190883444980317396e-01
1.801243184748914650e-01
1.451229860851517839e-01
1.590799183806544392e-01
9.782481185016868308e-02
1.025671564948037323e-01
7.980386184977501796e-02
1.594058390378670642e-01
1.893408216679919875e-01
1.226299706207797657e-01
1.674103339791660483e-01
1.798903566780103158e-01
1.689791952424438970e-01
2.020761615035928105e-01
1.719430158248867468e-01
1.564310161363991758e-01
1.433537243704794129e-01
2.000105502887621067e-01
1.591854305296604433e-01
2.242947549194467816e-01
1.947733596842199932e-01
1.823675478568497488e-01
2.302107566114231507e-01
2.142452887847307585e-01
2.382247371413188652e-01
2.250232936191153554e-01
2.451883192697241198e-01
2.260280996320350178e-01
2.116090275967403289e-01
2.094583626080832595e-01
2.255420306518360063e-01
2.433668127298536654e-01
2.926568134131169452e-01
2.575499746158977921e-01
2.532889461338029280e-01
2.399174059346060317e-01
2.102858018387876449e-01
3.043463831164974209e-01
2.464901530870163282e-01
2.633296106222680621e-01
2.669264483952998868e-01
2.617957984141411898e-01
3.549623573567387003e-01
2.640499240330544950e-01
2.542288575901966996e-01
2.886236216257660470e-01
2.641734480576118926e-01
2.242714332222932871e-01
2.763155520343584248e-01
2.411539989251045568e-01
2.509852703374162441e-01
2.849685432975008759e-01
2.756793986272292885e-01
2.169236424280668318e-01
2.521651335413684358e-01
2.317617290845953026e-01
2.056572586683934056e-01
1.917199336946874832e-01
1.933427507253926703e-01
2.500524124919499824e-01
1.124766859739995406e-01
1.732169342878449037e-01
2.265165871211908821e-01
1.553161493878812416e-01
1.972193681556346778e-01
1.682264475553562622e-01
1.485775003184449106e-01
1.270269851820317875e-01
1.501159940187765662e-01
1.604389712455032979e-01
1.350384298009641992e-01
1.627258926463781563e-01
1.891566090971274761e-01
1.885967759541169741e-01
1.203613320391195979e-01
9.912413866197210266e-02
1.147076240243337097e-01
1.301574382762012982e-01
1.091465250313841534e-01
1.277139091136755555e-01
1.118862992946157570e-01
8.692430488811726808e-02
6.001455801137053209e-02
1.731885884845870138e-01
9.708589597567196527e-02
1.053544588609853366e-01
8.987494684201943751e-03
6.978885879743874920e-02
1.647526184470463062e-02
5.561263351999956583e-02
4.207446994554911446e-02
3.061601021050377319e-02
9.366849363812379536e-02
8.916036199876964385e-02
3.375957878191129802e-02
1.116174670225860421e-01
8.369661746705257116e-03
9.913525127720532182e-02
7.634689057163454584e-02
6.119054989128083766e-02
5.990558658089133875e-02
1.268719357499658584e-01
1.693524065633094516e-02
6.678006376072508077e-02
-1.297393614074786317e-02
9.029094115433598799e-02
1.828039103907260279e-02
1.394192934143507756e-01
6.095603835670272003e-02
4.536711221104423875e-02
6.464016269057945574e-02
8.455111603719603353e-02
4.803775257844521834e-02
7.492435280781356566e-02
2.865470369133093359e-02
2.785315395279910552e-02
4.937747661383690145e-03
1.445402827754797837e-02
6.077854101237320505e-02
2.145346803613224634e-02
7.138678915291850335e-02
7.714821641140567898e-02
1.791326988011543442e-04
7.166889018943786716e-02
6.440169099429859934e-02
5.691024331521637308e-02
6.750067565555464832e-02
4.062633808411713482e-02
4.447698394371817077e-02
8.872091974639573220e-02
3.148667065671276188e-02
9.732033703646614242e-04
1.004767929190171494e-01
5.322837014057334171e-02
8.538374499440565257e-02
5.528675138513544640e-02
4.805318181289521678e-02
6.398050941109660605e-02
1.262252668505000897e-01
1.327967065907926028e-02
-7.819102347661824326e-04
4.165835675771982494e-02
9.069962388361205163e-02
2.340314559270643274e-02
1.661293987081493423e-02
1.553342493201065669e-02
9.713389924188477187e-02
7.808435716450179420e-02
3.736587076473247421e-02
8.040550378813304810e-02
4.443794239414195629e-02
2.099167385590377383e-02
1.122721593558332898e-01
3.823051955729695611e-02
1.550181794722405373e-02
5.012280943873410888e-02
8.925105151105491852e-02
1.121352991678143673e-01
9.131267170717086157e-02
1.172928803025418826e-01
1.118417343904140882e-01
9.041813613601379362e-02
5.435683873577991376e-02
1.086298304822182759e-01
9.900444992366325137e-02
1.465177270801352183e-01
8.279895639869608304e-02
1.517197051615336578e-01
6.980499117551319799e-02
1.843814880588731109e-01
1.483267869759136715e-01
1.221742769020576214e-01
1.596552870128440105e-01
1.956948736334753747e-01
1.869209729177889190e-01
1.571671097370826720e-01
2.134286062321295030e-01
1.947419442784231736e-01
1.954697556895183819e-01
1.592243843894110278e-01
1.884063151494219379e-01
2.480594507611937338e-01
1.703576924833504203e-01
1.692173798102699633e-01
1.631875099103216320e-01
2.124194408177025040e-01
1.875046862346861631e-01
1.399304382681490211e-01
2.177402383459972057e-01
2.015561932380416643e-01
2.351916832317352823e-01
1.843036134638802170e-01
1.847970197817535576e-01
2.329776488805025692e-01
2.220091612561900241e-01
2.121719184977861328e-01
2.016356940587460678e-01
2.207173339721934247e-01
2.526155113299563548e-01
1.445796957446534303e-01
2.145962899100402610e-01
2.172519686019438734e-01
2.511759184452969640e-01
2.728228545591452892e-01
2.012241563379572606e-01
2.268464238423882895e-01
2.642219257495864726e-01
3.340497201839799368e-01
3.516138044702054044e-01
4.099626727545139238e-01
4.536523922607341719e-01
5.457693513348436110e-01
6.497528434999220170e-01
6.402204724034198380e-01
7.666982851247562403e-01
8.820894656852247273e-01
9.358046238448516352e-01
9.920555809537728864e-01
1.174726202266239694e+00
1.216408281219460319e+00
1.317148781394557711e+00
1.401186519107760375e+00
1.347163459050591650e+00
1.435818508511526925e+00
1.458320049530211326e+00
1.464868812891739758e+00
1.446815175995131764e+00
1.453185076108868046e+00
1.325462087713322523e+00
1.310034373228036619e+00
1.152954357811085462e+00
1.117245161501777995e+00
1.089682646538389088e+00
9.598554094497468991e-01
8.197051547908901226e-01
7.286904590738043641e-01
6.856929715974718897e-01
6.365868721227148086e-01
4.826617226647418324e-01
4.930296387018008875e-01
3.990330901843184841e-01
2.835273506035300706e-01
2.964914054807841204e-01
2.679365671300414919e-01
2.203407792123556197e-01
2.331394178856033839e-01
2.126094189592974137e-01
1.817358366026808614e-01
1.459114806304361855e-01
1.828398653208189728e-01
1.538877172630562784e-01
1.701542432992965981e-01
1.932124940705801375e-01
1.686063927222138936e-01
1.822445954709610294e-01
2.074018421918464861e-01
2.110641576350835991e-01
1.744471961505354440e-01
1.585071496343632980e-01
1.748005501650466975e-01
2.315713561289035882e-01
2.249497679704901831e-01
2.486516346197681082e-01
2.276078244765306624e-01
2.340971573095013136e-01
2.114023482954353050e-01
1.888341095315501650e-01
1.691596793950725930e-01
2.277158522477900349e-01
2.218802546004977339e-01
2.314973417237795317e-01
3.344693988796096917e-01
2.415127964090885981e-01
2.215827263390324764e-01
2.531608540244890126e-01
3.044344276797955606e-01
3.173321862253266623e-01
2.296389365942926863e-01
2.617922816506982331e-01
2.639053846445666984e-01
3.206386356679974958e-01
2.642659994461279416e-01
2.677962957839391533e-01
2.817969184823352902e-01
3.103108472199405110e-01
2.547056130668577389e-01
2.611910226471045315e-01
3.073891317724466998e-01
2.615998468651061226e-01
3.901211594162415364e-01
2.681004628231143938e-01
3.139094029438572742e-01
3.184795464826998823e-01
2.880018132113711382e-01
2.678210595231120816e-01
3.180768905027800408e-01
3.082838367764509369e-01
2.914759211140980910e-01
2.727247879551527032e-01
2.994913654081099996e-01
2.727317803961363252e-01
3.052371995960703188e-01
3.128164795637807805e-01
2.985240941017861527e-01
2.472865882787278757e-01
2.980065507344651365e-01
2.667390519382117353e-01
2.145653794143318471e-01
2.029464370772184056e-01
2.364143257644195084e-01
2.459706143097585285e-01
1.716536369337176571e-01
2.797868292437623583e-01
1.684484147689415123e-01
1.906387149354945854e-01
1.796104561118956611e-01
1.726086037718461696e-01
1.895624973654731482e-01
1.653373317409392029e-01
1.934157769888205647e-01
1.468315913440208509e-01
1.705305252000826055e-01
1.487475381223850590e-01
1.468433800151165147e-01
1.584364212999442578e-01
1.171608444722307268e-01
1.166597258756066346e-01
1.608844171653374677e-01
1.164188522898533806e-01
1.062781750892124455e-01
1.248068505305965775e-01
1.059484629640481956e-01
8.975311308518948983e-02
1.047816510514340271e-01
1.327887881488157562e-01
7.850534183474085215e-02
8.294296820594150577e-02
9.703304243089899694e-02
1.012083836424844951e-01
8.689032837881617566e-02
7.921231515920997002e-02
8.292072447056886286e-02
5.741745061452579318e-02
7.747434436598557572e-02
5.918926821498553953e-02
8.094543125822310781e-02
9.627471258267442100e-02
3.700204611785120473e-02
7.614453555859548861e-02
7.035505207111462933e-02
5.252234767020486778e-02
6.557596293732452508e-02
8.225865142696235643e-02
6.873480182471969346e-02
8.114047870337287582e-03
-1.683527445688127316e-02
2.454410953871953918e-02
1.009259661039657585e-01
9.043005387214232693e-02
5.942926288963967796e-02
1.246955510135246137e-02
7.257753191073826327e-02
2.073409809912187332e-02
8.357413445135533636e-03
4.777423855660991453e-02
4.804968216176266904e-02
5.780895920041173586e-02
4.817654245263628537e-02
5.182297554639864884e-02
3.343856679723919423e-02
4.732253095357261130e-02
6.008820954888309529e-02
7.585678767250209065e-02
5.108015965349493176e-02
3.221397547341176004e-02
5.291630667430608642e-02
7.728819382095285240e-02
7.428158212545935002e-02
1.911473089362513908e-02
7.576188735056632595e-02
4.315542050893464432e-02
3.133497684695469437e-02
2.881954645407937970e-02
1.180509647298551290e-02
6.546573918935762182e-02
6.326143238187542650e-02
3.100731828810680130e-02
3.467899641260401705e-02
7.170868490364493142e-02
2.685180767407370495e-02
9.446262942275604479e-02
7.345804253654870941e-02
6.174482355731764072e-02
3.563804968310438359e-02
6.808862994419490056e-05
7.962710486518734254e-02
8.064909623387109261e-02
1.006998781970561557e-01
3.623437568841072348e-02
1.404085471148150757e-02
7.851676494143197682e-02
1.213650870355718059e-01
7.490121537426443210e-02
8.496520217975589429e-02
5.256958754116317079e-02
4.603191194374293971e-02
9.053364522748776066e-02
5.719699434074029115e-02
4.683811838658760718e-02
1.349681071764414764e-01
7.686056394611659459e-02
8.763743037581073203e-02
3.485408807648811280e-02
1.098140765231787885e-01
8.262125912203460709e-02
1.462702383697306041e-01
1.147374532345630249e-01
1.282741083794165793e-01
7.790657876836479256e-02
1.401210451945207880e-01
1.680465609381607273e-01
1.788035818151791634e-01
2.029884047836086058e-01
1.714718242712418017e-01
1.730224629232881006e-01
1.914802890024931425e-01
1.427031060736569656e-01
1.832806021235265925e-01
1.817089165382932969e-01
2.062295514655156925e-01
1.918633506179724391e-01
1.532078535297286270e-01
1.757703883169353942e-01
1.345816662731367797e-01
1.790705200538890707e-01
1.648713113578985645e-01
2.029280724456570817e-01
2.670194196888965865e-01
2.007757624058638113e-01
1.611631878831091269e-01
1.995791460397958184e-01
1.297391825741369686e-01
1.623987064688092730e-01
1.788887744251869416e-01
1.847899367387419722e-01
2.011187277100533188e-01
2.075130583143157126e-01
1.470008394123719364e-01
1.411235657650105890e-01
1.876188031926530331e-01
1.350897203247165002e-01
2.091402310731937386e-01
1.621844837681780394e-01
2.466101012823233296e-01
2.670270741968222561e-01
3.165211425470343953e-01
3.613480679094722148e-01
4.158687675224169156e-01
4.904422645651443369e-01
5.779559200868948921e-01
6.250284716017188158e-01
6.431256929914236364e-01
8.281599882880098518e-01
8.808171147366736786e-01
9.525368004163666802e-01
1.000190837260266807e+00
1.053719175337788361e+00
1.224243696481761345e+00
1.298910442379100694e+00
1.358317453332105185e+00
1.407279020950090276e+00
1.448177550352289344e+00
1.430961760825153251e+00
1.388327505997026368e+00
1.363250476962682756e+00
1.360582239694596129e+00
1.307324837668593087e+00
1.217944066966183403e+00
1.141786255192036359e+00
1.119109801549746042e+00
1.004251947981841919e+00
9.011566924524968547e-01
8.120955348822579412e-01
7.064121187371678046e-01
6.280910581891140376e-01
5.267417014326672975e-01
5.052692676515050385e-01
3.843264365776765668e-01
3.627090135252414305e-01
3.572679817433848659e-01
3.245241568731894732e-01
2.562059032495337396e-01
2.750331749509593027e-01
1.686065799050854297e-01
1.922443787702460549e-01
1.433482731981101099e-01
2.006884470626416617e-01
1.649405321115987311e-01
1.470273236790563265e-01
1.942506790342761192e-01
5.085042101044195961e-02
1.564728204873393480e-01
1.361889417885773501e-01
1.288015487353490196e-01
1.323464117574962018e-01
8.173081208174351464e-02
1.607867912482546791e-01
1.362896821281855964e-01
1.837471481276764240e-01
1.500448755209702334e-01
2.105080339543060342e-01
1.416792007829165700e-01
2.336330256463234056e-01
1.979541525637890376e-01
1.730796967881572945e-01
2.343353969352493238e-01
2.014595662571669055e-01
2.242985207620007693e-01
2.191969206881538013e-01
1.683634368210102927e-01
2.560235117906143887e-01
2.285162705748231826e-01
2.348991088868640775e-01
2.509784011493942923e-01
2.084080960437254548e-01
2.130777098629882960e-01
2.560198520516280829e-01
2.589929273038377167e-01
2.513871009357425135e-01
2.413167999172172173e-01
2.035244929076908404e-01
2.867115422207848208e-01
2.703828291753690993e-01
2.615452350403674742e-01
2.891251958804894606e-01
2.387848442009571637e-01
2.753889012150918525e-01
2.956277540928554104e-01
2.593059707719296836e-01
2.595330066327326546e-01
2.665673992836476436e-01
2.869373611042892458e-01
2.571775826607241577e-01
2.995618306356356286e-01
2.433238420013915382e-01
1.978480218354813358e-01
2.494102867636726617e-01
2.502430389792469345e-01
2.479565047419805268e-01
2.190337251924452944e-01
1.852353738568882080e-01
1.760765223095470400e-01
1.907504853435444125e-01
1.423238800137164861e-01
2.287120356335162474e-01
1.839317219147544313e-01
2.318843207234327075e-01
2.197536530700696100e-01
1.810489835740037301e-01
2.277390293150190204e-01
1.681047722267912381e-01
1.852802448778262945e-01
1.839593305734413820e-01
1.407768441736120812e-01
1.229252987475008690e-01
1.208558040352419316e-01
1.951782273526247724e-01
1.234135649178590977e-01
1.335894770744871507e-01
6.081784534436853601e-02
1.226903158315330311e-01
1.256768293301711581e-01
9.330005490191907447e-02
5.576482930528207232e-02
7.342001481738000268e-02
6.703974586798730484e-02
3.010471203765887824e-02
6.538212267962292823e-02
6.861527134365834335e-02
2.598169055984683035e-02
7.088143761365878204e-02
6.162299386675553631e-02
8.991292821432735061e-02
6.528577679905297679e-03
5.208432888932257310e-02
4.961861501352778786e-02
3.107590113100699644e-02
5.819437447421299536e-02
-2.073661958391316042e-03
8.997629135666451727e-02
6.737245081184253977e-03
5.183050262645716444e-02
3.034330492031625873e-02
-1.386105462342344420e-02
5.447940109503365824e-02
6.274400408759986218e-03
2.228999536909587534e-02
-2.545795441389575933e-02
4.158324483573157780e-03
1.365609422944009596e-02
-2.506004463529587153e-02
4.364918562377462924e-04
-1.646531276538870658e-02
-1.082148494658737373e-02
2.285184117556805089e-02
-7.993069234568765669e-03
1.043586453536693957e-02
-6.338035044096274051e-04
-4.357023624090763242e-04
-4.638880208062050835e-03
3.179272179393434483e-02
2.663751374370607050e-02
2.880941606949574685e-02
4.453883983738752411e-03
-4.087772836999650772e-02
-1.701704228183166870e-03
2.290405014261644168e-02
-3.826888677932292412e-03
9.037200233621471568e-03
7.940553526572221091e-03
-2.012831579983277025e-02
-5.151307906413171017e-04
-2.935714201538483503e-02
3.158019143975450416e-02
-1.805171139962676030e-02
-2.306182061266561639e-02
4.870255005248398661e-02
-8.252727425746447798e-02
-5.547058800794030936e-02
-4.281393881252872069e-02
-7.629207542752744486e-04
-2.449557467947623829e-02
-8.678580758614596463e-03
-1.331665680604335669e-02
1.031868205182473464e-03
-2.767507609403884600e-02
-1.156389631624963124e-03
-1.674688498097059303e-02
4.482025585406824303e-03
1.303849434254338024e-02
-1.838887518045452876e-02
6.271640860957595348e-03
1.839753173469710346e-02
-1.613620651669575579e-02
2.862998475271200799e-02
2.351463641150263253e-02
1.346453527451855342e-02
1.223429288382194002e-02
3.570779987273012268e-02
-5.389907023753396156e-03
1.373373977041835586e-02
2.331149012161017400e-02
-9.358165169898412933e-03
3.553400643839531997e-02
1.267116654540212384e-02
-6.940003667562651135e-03
-8.791295595879239366e-03
-1.233612223288641646e-02
1.497766866412709660e-02
-1.505978325697748116e-02
3.603244444976087812e-02
2.788563612226680616e-02
1.725345879305124550e-02
9.674325931703303683e-02
4.353191694230128250e-02
1.298169475537010176e-01
2.859082322583115371e-02
1.182384332300064067e-01
8.823002262495252546e-02
1.162628386441913880e-01
5.717091609591191947e-02
9.400568705383835488e-02
1.495067000188809725e-01
1.548593810681546945e-01
1.325724630199879850e-01
9.614968517203262288e-02
9.754280863067756047e-02
1.280735902327443665e-01
9.060746816495723888e-02
9.145438371539359179e-02
1.278002138815031441e-01
1.083473745884147854e-01
1.505346124482640213e-01
1.450121948971445363e-01
8.709427722442195097e-02
9.970069598319003523e-02
1.060602951576457287e-01
8.652698597980462702e-02
9.177392165238246191e-02
9.034801383968446564e-02
9.687204429807477757e-02
1.200195974881483607e-01
3.547988486725056623e-02
1.151556495950591119e-01
1.262686847106036236e-01
1.498657178359177611e-01
1.415866734468104182e-01
8.009344875033158617e-02
1.173352296058871452e-01
1.252976358495561660e-01
1.900116865461883298e-01
2.110737184139927780e-01
1.993282485114556690e-01
2.455905737620350526e-01
3.081960230057787520e-01
3.593626500110533306e-01
4.025597369657417657e-01
5.008303367356798930e-01
5.821520774481130367e-01
7.046693170493751879e-01
8.049383790364353919e-01
8.017828429633476750e-01
9.566346676441542796e-01
1.066811393339512692e+00
1.060975511524254955e+00
1.168028179544344125e+00
1.199706314602596802e+00
1.320880076958882210e+00
1.345550044517676680e+00
1.406981060718572207e+00
1.376500676579704985e+00
1.356544040283905073e+00
1.368897334095930729e+00
1.316157435433657596e+00
1.249499552659198320e+00
1.152397745973178012e+00
1.054400158565482526e+00
1.029114456169288649e+00
8.747599877623311038e-01
8.156005116292953661e-01
6.527815718868331674e-01
6.130756209449889083e-01
5.306934297493459685e-01
4.206979495000364166e-01
3.890292269072600506e-01
3.316461893784086179e-01
2.762679622776567090e-01
1.944403954095655640e-01
1.915355242136259628e-01
1.856173879872704546e-01
7.486723366806709301e-02
1.276321535532141116e-01
9.988138368722140892e-02
6.538278568845867778e-02
