1.364580246134964536e+00
1.340348953739576299e+00
1.390173652567552320e+00
1.294561894565606552e+00
1.218025102844354279e+00
1.220211968608565511e+00
1.073739917889348305e+00
9.713782912029490513e-01
9.444951466029112286e-01
8.096593328905751230e-01
7.388586009468792737e-01
6.173742916289585159e-01
5.397589615409569275e-01
4.828125142384601665e-01
3.768229532766574352e-01
3.120301873944367199e-01
2.567195326276565659e-01
1.703139397508733333e-01
2.098384822405413297e-01
1.585387274625363885e-01
1.479820529047351785e-01
1.461403072204975617e-01
5.680973987897142835e-02
9.883351563858991384e-02
7.783302422757476524e-02
1.037459487799946428e-01
6.195536229628274827e-02
5.456756283906246535e-02
5.809976488104275777e-02
6.689865333146043092e-02
1.561513866288990748e-01
7.386191579350467884e-02
7.304692087789238508e-02
1.221797852172670368e-01
1.139261858379219394e-01
1.065279487584843282e-01
1.019757029791878850e-01
6.037889232234530668e-02
1.066571024461119843e-01
1.094044767753836189e-01
1.166011008094177126e-01
1.294351678927439520e-01
1.311082316853626195e-01
1.323944029929585153e-01
1.341300904831027596e-01
1.957784558555399346e-01
1.270006324798000907e-01
2.298861314948972279e-01
1.306956800092531901e-01
1.351076886256093457e-01
1.469055205041793766e-01
1.659260862258552516e-01
2.024943475035821394e-01
1.961401764255048807e-01
1.725609592590587049e-01
2.062053513481913458e-01
2.939982565356846766e-01
1.703139148548843407e-01
1.698632673649110858e-01
2.238516404885869115e-01
2.522184638965789816e-01
1.806009008890606116e-01
2.025256117871555017e-01
1.658273013775072580e-01
1.747770527402286445e-01
2.133476692889857695e-01
1.454826108087868552e-01
1.969974188513876068e-01
1.762187520010755903e-01
1.758220140723326108e-01
1.045186631177276726e-01
2.161679888458279686e-01
2.574185027437636553e-01
1.743627044629496026e-01
1.255232388417404088e-01
2.111746450249892826e-01
1.643491954815875511e-01
1.390578820873359378e-01
1.734007674427234247e-01
1.455477693631979930e-01
1.482714015155176257e-01
1.664465041716133853e-01
1.596236119176785428e-01
1.030235180299761411e-01
8.851547356263922417e-02
1.615446490050598816e-01
1.469169891165389707e-01
7.135231791202568952e-02
1.340590620098872088e-01
1.136816493496155267e-01
8.236106655363931162e-02
5.576726714652564115e-02
8.493449228124316797e-02
8.899280809725459984e-02
7.754626273429326977e-02
6.736662519054681386e-02
1.078029062275973060e-01
5.297833657305497934e-02
1.202695867620138387e-02
2.047102007663785528e-02
5.788035644388690032e-02
4.818422044205239452e-03
6.470373416891364582e-02
8.420581614581028329e-03
2.567903508233735504e-02
4.364045489773328568e-02
9.805451862446620814e-03
-4.451893879240508001e-02
-1.797047913698004984e-02
-5.423712469147676241e-03
-1.670476216386394125e-02
-2.836890275777950374e-02
-6.445061146372055294e-04
-3.254555626838846749e-02
7.150739076382132964e-03
-2.100521495118298082e-02
-1.017136184446194164e-02
-1.687892396319868454e-02
-4.639223321297107627e-02
-2.915923570043250229e-02
2.351830548031297319e-02
-4.541753593026095354e-02
-4.855315300283839092e-02
-4.517241826533492655e-03
-1.296857201779134938e-02
-4.024960137419081319e-02
-7.576401637798937938e-02
-1.795923957444557628e-02
-7.969332924619648706e-02
-9.881970056239502975e-02
2.207734775486663859e-03
-2.558318407035104630e-02
-6.294997892016233887e-02
-7.260393849177526615e-02
-7.521473027179835513e-03
-1.510181937435427918e-02
-1.800647567974129892e-02
7.200001740353581536e-03
-6.844144111008344800e-02
-6.390777675520782630e-02
-1.245697931696831268e-02
1.183009238724476442e-02
-2.202071805350667988e-03
-4.668174218741655279e-02
-8.465015493496137744e-02
-1.618352991979601918e-02
-8.891394001860342122e-02
-4.559581365140105008e-02
-4.229801880241850637e-02
-4.289491928935057485e-02
-5.467831124316299696e-02
-8.316830190579654891e-02
-4.405717907564120350e-02
-1.743769058358812102e-02
-5.888584256472131906e-02
-3.456708166367501722e-02
-3.135096880854622986e-02
6.378327110674805733e-04
-7.021332767162488664e-02
3.090170408871085322e-02
-5.490568510591629925e-02
2.822424000747661421e-02
-3.618919725190799380e-02
-3.092465662350557531e-02
-8.721420542534552567e-03
-5.029102048520285584e-03
-7.748870936377807994e-02
2.535389378342360611e-02
-4.986563030849190670e-02
2.169756634952205165e-02
8.041978266681390486e-03
-1.370754138205328848e-02
-3.176617629121986780e-02
4.877820469163093864e-02
2.605800564990436857e-02
6.472642530169790687e-03
-4.333762543174093929e-03
4.099163623544786750e-02
2.178406126065401960e-03
2.689606025891132235e-02
1.327546954912142002e-02
6.591219981030724262e-02
7.441616328749350862e-02
9.779657993494565715e-02
8.170477363817978123e-02
5.577282103250146700e-02
4.050790453098428168e-02
4.140823080269584455e-02
4.596302475344128668e-03
6.919796416373570624e-02
5.355832220850852143e-02
3.075089833535604722e-02
1.176108930367093242e-01
1.411262329195970278e-01
6.312752784649011684e-02
5.854104310715108755e-02
8.481609636596498802e-02
1.178748391272166907e-01
1.060096207820257763e-01
1.214996026969322185e-01
1.071464610908745008e-01
7.742664275721011791e-02
6.573519579115705280e-02
3.333785700820341563e-02
7.654478571217812610e-02
1.102039241734624336e-01
4.597956211567138379e-02
1.140083909657376715e-01
1.080597852759089539e-01
1.235225671542947434e-01
1.297575732668771187e-01
1.377063188391914328e-01
1.123733639331092465e-01
1.226909880672267250e-01
8.669302172544252061e-02
1.554131287464629307e-01
1.387906156706036065e-01
1.418288050259314814e-01
2.217077150979584466e-01
2.081387689737345947e-01
2.377312738455969743e-01
3.819118051759272103e-01
4.298103626518492426e-01
4.605760612248715469e-01
5.456786044390425916e-01
6.251560531415971678e-01
7.428422629271066446e-01
7.976728961518885219e-01
9.554719602651245980e-01
9.903615604922055837e-01
1.131710573225935157e+00
1.170405819587754914e+00
1.269056877015202867e+00
1.316517269696652281e+00
1.391142406544252808e+00
1.339010619418967041e+00
1.403519074193497085e+00
1.405152726766038418e+00
1.405593894709328717e+00
1.332853582494294864e+00
1.267816627792517359e+00
1.167368263546654239e+00
1.091211207854985599e+00
9.791621382897974790e-01
9.212359885853400598e-01
7.757344253129995204e-01
7.685362771692858530e-01
6.375101344441310713e-01
5.088330232238209572e-01
4.817232897718467521e-01
3.468554990209384847e-01
3.213241470537308575e-01
2.523400593097493982e-01
2.556797112733026900e-01
1.735812680442942180e-01
1.327188819941508280e-01
1.636456925694718123e-01
9.551982449443624512e-02
1.231277418932097689e-01
6.432140081359455364e-02
1.136416285452119812e-01
5.884048575309348134e-02
9.308355803573933884e-02
1.099095271143518959e-01
7.905238667715135115e-02
7.582871177465186352e-02
8.307681343858960843e-02
1.439484794186547401e-01
1.819456042949391672e-01
5.362688258907684358e-03
7.729369015528243791e-02
1.146415199776901206e-01
1.365529817819572389e-01
1.181335333874759808e-01
1.644955988984213857e-01
1.311409159806130320e-01
1.074989237453941593e-01
1.205391715183780355e-01
1.448082381828384724e-01
1.341559044785445576e-01
2.056626254978796697e-01
1.110375041601566193e-01
1.276024847485113523e-01
1.806110375971879678e-01
2.025121470705825710e-01
1.874946117078175323e-01
1.634888977932354992e-01
1.753277842608152171e-01
2.285303545934327663e-01
1.519324976666177052e-01
3.117942064330563867e-01
1.804885455556847207e-01
1.784230256014767979e-01
1.985919451550937076e-01
1.795964487788560549e-01
2.222585901266574127e-01
1.941506636460976210e-01
2.171896699651539864e-01
2.180226983532279061e-01
1.956734207740545295e-01
2.098187198181768187e-01
2.015968371064377762e-01
2.239276766243716021e-01
2.481798512915361077e-01
2.522448989729287327e-01
1.731780374575308812e-01
1.408239293869812669e-01
2.312402841843747003e-01
2.390935175206855001e-01
1.760311075699338146e-01
2.270378028416673577e-01
1.661979975787742092e-01
1.778122487303478438e-01
1.561036515479748421e-01
1.846452666422941369e-01
1.881400047632793560e-01
1.383730484316960108e-01
1.910159257637729924e-01
1.741362328425196671e-01
1.909638396983296404e-01
1.237330144082612743e-01
1.241720109834666269e-01
1.635617766830567976e-01
6.872329724651767002e-02
6.473904084201709264e-02
1.231923399368533290e-01
1.095713059828926361e-01
9.493242469906106040e-02
9.298718056611687821e-02
6.053861365251540783e-02
8.866972296575238721e-02
1.170213807880232243e-01
1.223233529779080009e-01
7.854128797498982628e-02
4.813346297123674566e-02
4.861982869139119812e-02
1.614556191745822322e-02
8.017851205639281442e-02
5.346810211347227670e-02
5.133238228599631969e-02
6.100852456177169314e-04
4.521919347934481165e-02
6.107081566528056726e-02
3.982184989592213453e-03
3.224553556502673946e-02
3.300104043644079554e-02
2.433730975451749157e-02
-3.582403866744438004e-03
-5.315118875179321994e-03
5.659405929757585496e-02
3.320935736809439709e-02
9.538614171244897549e-03
3.163365451351851654e-02
1.156325002836588317e-03
3.223488121211116192e-02
-8.186149825602003632e-03
-9.887650769905519110e-04
4.142501121226495331e-02
-4.052230707795689835e-02
7.848350083204362615e-02
1.903893893920594049e-03
1.555376675718276452e-02
2.904347867100993269e-03
-9.317307342682271815e-03
1.036033393014191423e-02
3.500348377921375098e-03
-1.953133009830777811e-02
3.301773891347262180e-02
-1.067473120369615697e-02
-3.864792400196337407e-02
-5.182210828259967150e-02
-2.827453759674005904e-02
-6.358802231733708815e-03
3.990032928348972302e-02
-2.453419430797647294e-02
2.354349586513268533e-02
-6.737014169023874954e-02
-4.459661624417443626e-02
-4.301703951805130322e-02
4.450648886702706503e-02
-4.211936437215277329e-02
2.176419090153158126e-03
6.059546196028123971e-02
-3.211160994884970643e-05
6.829744043068963766e-03
-3.360625490006002858e-02
1.160378662235779512e-02
9.027104989493901083e-03
-4.352297949126528176e-02
-4.077710495471816021e-02
-2.693765521425024040e-02
-4.674034683540042451e-02
-2.902362496285998752e-03
-3.926896519143158182e-03
-1.171752424344028008e-02
-2.525304231495415982e-02
2.594085199613234416e-02
4.372287516927857165e-02
4.471237700069072979e-02
-3.127092551836669482e-02
-3.226211624796930522e-02
3.917487718032768018e-02
5.968166879039768502e-03
-9.290152653758852047e-03
3.699966045984147411e-02
1.708307954649468038e-03
2.169978730776013151e-02
-3.774430869404946792e-02
4.709726225887923834e-02
1.738160160558706660e-02
3.086456528626476542e-02
6.151661967560251992e-02
-9.577734007639511493e-03
1.492173291704675282e-02
4.963225652706351049e-02
2.472618278527767208e-02
1.167441882572606560e-01
8.163631597910975257e-02
7.502217126209262399e-02
4.748505543860775946e-02
1.336797741932559958e-01
7.479768529596456106e-02
1.459642020043937782e-01
1.302923409371764263e-01
1.529775169277051983e-01
7.825209790910395147e-02
1.715667944108255072e-01
7.579520111575631380e-02
1.213948615466043102e-01
1.417836335245078738e-01
1.423833633212283623e-01
1.251247742753294478e-01
1.737548703664381078e-01
1.928019338698709340e-01
1.658251385382001619e-01
1.160318372798035125e-01
1.516008834286571016e-01
1.645423519710289828e-01
1.512265914008762979e-01
9.179390112548434233e-02
1.175771495309858028e-01
1.594501934544558519e-01
1.435447515696559317e-01
1.414594050852294727e-01
1.195417383646350112e-01
1.023214288564401331e-01
1.155744502456221984e-01
1.399380079023974655e-01
1.205004765190351573e-01
9.246084449205710376e-02
1.499160902316789001e-01
1.489498207181749745e-01
1.843895018078402503e-01
2.589102394886106384e-01
2.700531494500709173e-01
3.063405476126612736e-01
3.460892254208330354e-01
3.752213316646031971e-01
4.362744835731940940e-01
5.550631870861054695e-01
6.444278920955921475e-01
6.820632949916672905e-01
7.901786132140860008e-01
9.089039930617427432e-01
1.006757497225920117e+00
9.960245185466225504e-01
1.222398051362533877e+00
1.252965169350134911e+00
1.270017623594035916e+00
1.364460347924995487e+00
1.377962845628027955e+00
1.449723793990757903e+00
1.433176686630192043e+00
1.489728970366890781e+00
1.378106398232046503e+00
1.347026924794998193e+00
1.314701859602010581e+00
1.219525884532522975e+00
1.168790262314284512e+00
1.019201148626767806e+00
9.489235482988698234e-01
9.123182258339375128e-01
7.822563458188281915e-01
6.581907172753846957e-01
6.247368913305834104e-01
5.195956319041221683e-01
3.690070309379603897e-01
3.630372990540221556e-01
3.949452343731086890e-01
2.294747843259198061e-01
2.596262450156686108e-01
2.047170377447446732e-01
1.993330964124315485e-01
1.978682418467616055e-01
1.517966922038098132e-01
1.600876937566086400e-01
1.563684473465833114e-01
7.093391907501268856e-02
1.585059012528968192e-01
1.061839206782513589e-01
1.201462306600248470e-01
1.423263533552221183e-01
9.150647623342031411e-02
1.391498874860962465e-01
1.234494630794250591e-01
1.082838557241944943e-01
1.921898474550929881e-01
1.246437789827597592e-01
1.703386702392808705e-01
1.690851448546291380e-01
1.951598025860440955e-01
1.365149051660500545e-01
1.459086672470198409e-01
2.290109938687054092e-01
1.742757760844939330e-01
1.885916931214494385e-01
2.227205052198341639e-01
1.821252504218886792e-01
1.822541586576632844e-01
2.706950650504753586e-01
2.468915693731207062e-01
2.784677425893876679e-01
2.515214221315317800e-01
2.156082814885719456e-01
2.259218264198623871e-01
2.218764071078586086e-01
2.237178593746506905e-01
2.817103146512944245e-01
2.543245399019692377e-01
2.612394137426484186e-01
2.735862344275880043e-01
2.510443667052587591e-01
2.822136367098658782e-01
2.193384626557912109e-01
2.347650734052849075e-01
2.465436247643409684e-01
2.791216003565649140e-01
3.391705547546712274e-01
2.101560283639051785e-01
2.509619855386806542e-01
2.485049282717853303e-01
2.825595190994689143e-01
2.745623424082675457e-01
3.032399126012608748e-01
2.384926693898100636e-01
2.598141761264755045e-01
2.482455874152018072e-01
2.211786296350490011e-01
2.584030045235960471e-01
1.877154041837744147e-01
2.240016938547478853e-01
2.877896727039609415e-01
1.865910417508213348e-01
2.376549981944656997e-01
3.018047593014834273e-01
1.501578473430042471e-01
1.784398635903449437e-01
2.143905392801357668e-01
1.639103670782583455e-01
1.959966911368816456e-01
1.965953641966491083e-01
1.293191469791203363e-01
1.516421970549093889e-01
1.809188382886058877e-01
1.067402817765299577e-01
2.083510669968106910e-01
1.676051824965717196e-01
9.023146452854560740e-02
1.423108862364348692e-01
1.662682854021922396e-01
1.100589979998803786e-01
1.259253049396401869e-01
1.030127127973659573e-01
1.137251573827268436e-01
1.179612387348303315e-01
1.359458514890530267e-01
1.680970691424804320e-01
1.000878666051184251e-01
1.559980909359856560e-02
1.081435763441983278e-01
9.628042707463596583e-02
9.249506097552015471e-02
1.223379598445850369e-01
8.140617115783185809e-02
1.277911144591776793e-01
5.089339664034379929e-02
6.281110028243178101e-02
3.933227483959880755e-02
5.414017646046924426e-02
5.339957870140431273e-02
3.384223747629644397e-02
7.789629976232729375e-03
2.165308860936672117e-02
8.031792710751298192e-02
6.162021477929531532e-02
3.363947471794991040e-02
5.449463079529406895e-02
4.854799947849504360e-02
1.102612704701523005e-01
1.103155129470778373e-01
5.583721903711067608e-02
3.471935570642849245e-02
7.905744066977013484e-02
4.939437069103225220e-02
4.259689547713663843e-02
3.080299172848694270e-02
5.105624005858057368e-02
3.542153135284439869e-02
5.835059611583882228e-02
5.762829519713376369e-02
2.450069663893594818e-02
1.291700248029140075e-02
8.280898515742023819e-03
7.135945142498115179e-02
4.523874816442622487e-02
1.879855839978984353e-02
-1.406491099404419409e-02
3.711123824474916316e-02
4.865454177094792609e-02
1.069459032777240887e-01
5.439018102798520021e-02
3.027711968257436326e-02
1.625530626033908424e-02
4.325817920655734838e-03
1.484234370084375892e-02
3.461386202772760712e-03
9.259209634190215810e-02
6.811704942383542405e-02
4.274583225641574724e-02
1.687890729434550485e-02
5.314067001387463851e-02
3.099251781933269612e-02
9.746728461143300271e-02
4.424668385957684913e-02
3.125190266463571953e-02
3.841492162162270241e-02
1.000846499192345751e-01
8.358775254566508384e-02
5.678112242246410868e-02
4.144359238224996911e-02
6.195330940922505469e-02
1.050772028138709790e-01
1.527984055909006045e-01
7.431000395960882243e-02
8.309652975354753224e-02
1.357108514533922894e-01
1.228794480444274778e-01
1.287971368949996920e-01
1.187090190752227853e-01
6.265544929026631293e-02
1.360571914110476899e-01
7.887123249970501293e-02
1.282258159949857257e-01
1.109459457344930955e-01
1.457285883229888501e-01
1.591308697774471703e-01
1.602241013064182873e-01
1.759086419586801675e-01
1.834173861884547396e-01
1.182652221771242768e-01
1.370756373815207874e-01
1.885464854230971821e-01
1.708916880440495834e-01
1.791772269920463290e-01
2.059403869354433092e-01
2.053022321526603577e-01
1.816332051942461390e-01
1.641926993603107232e-01
1.773143683146029548e-01
1.840902305528958616e-01
1.893930563734609329e-01
1.825274811944801734e-01
2.567849400798510318e-01
1.372463089984029272e-01
2.487288192517855268e-01
1.949029917917814436e-01
1.864884175359581842e-01
1.958923081457311921e-01
2.472210575258754206e-01
1.765293127583152100e-01
2.283684151656505124e-01
1.911850363589303881e-01
1.624473846579851943e-01
1.497084268864210532e-01
2.048835533050655799e-01
2.156460757406987450e-01
2.407399313218432091e-01
2.300119029048878494e-01
2.165662523536984740e-01
2.907597490542223051e-01
2.904572786065586221e-01
3.545156008148444560e-01
3.888366940661411864e-01
4.711161333650529248e-01
4.689273057313401716e-01
5.305896307326639638e-01
6.727149577559801141e-01
7.522488481484496115e-01
8.018624843750947750e-01
9.827173521113266030e-01
1.047857711345894005e+00
1.130384921392126873e+00
1.254214804120108884e+00
1.310389878513610551e+00
1.308211218708896562e+00
1.389043388773510079e+00
1.415999501249646464e+00
1.487205409481187957e+00
1.516113487372754420e+00
1.440481300671464071e+00
1.455225688960372077e+00
1.431379210522335965e+00
1.354301370424133788e+00
1.308413484186224940e+00
1.212158056888760660e+00
1.061098932416124407e+00
1.011290354346680465e+00
9.877476989220028702e-01
8.622927831063237347e-01
7.615618629962362940e-01
6.318256802990017684e-01
5.728958983388183768e-01
4.797439961284599153e-01
3.864619136508954389e-01
3.493573267691016393e-01
3.143703140306665644e-01
2.904522476084683280e-01
2.520707445485141363e-01
2.056274418973298435e-01
2.446214728430770868e-01
1.880035498677108396e-01
2.138890060380280178e-01
2.166138563664974925e-01
1.231748914863053934e-01
1.289893960395667449e-01
1.502616275550066050e-01
1.546528322276355394e-01
2.486409393883217411e-01
1.118123373543577492e-01
1.980285298419402762e-01
2.155360108091155524e-01
1.446262238375613518e-01
2.237197991427786747e-01
2.021109211056499599e-01
1.748753682573536972e-01
1.557483688674710098e-01
2.705812194293424899e-01
2.427097236974899430e-01
1.557961881873626275e-01
2.480858003741980289e-01
2.359682692082894495e-01
2.571469035586689822e-01
2.734056473169880763e-01
2.276522435881840889e-01
2.312324653010539577e-01
2.412124892584698588e-01
3.008273913122814225e-01
2.246157379628658801e-01
3.146773967337842537e-01
2.783872626707930009e-01
2.556514143065825584e-01
3.125230513340099270e-01
2.940948960528638745e-01
3.053177282181966934e-01
2.984062781877177550e-01
2.569198715133808042e-01
2.621363065586941876e-01
3.191065651236915657e-01
2.797642835103744119e-01
2.950947622640916479e-01
3.277428573898154007e-01
3.486202705830690474e-01
3.001257077186696987e-01
2.703810332863891830e-01
2.424813042324054368e-01
2.723989685167582109e-01
3.778640039710887688e-01
3.186195980570619146e-01
3.082843314039461213e-01
2.457258814330694208e-01
3.458010704598323271e-01
2.493181417742848238e-01
2.788893281555979708e-01
3.054648031583573342e-01
2.837246131646646297e-01
2.576769339241397616e-01
2.392498027841035158e-01
2.612460328250333363e-01
2.221640220321311476e-01
2.467308801729157230e-01
2.561953357503718998e-01
2.513221924240109373e-01
2.066454224992009259e-01
2.339432851894728271e-01
2.065072935447022084e-01
2.222701059771950982e-01
2.150616278523647951e-01
1.962141561079019381e-01
2.065634942538798757e-01
1.795248890599647484e-01
1.675214219078882405e-01
2.580364271223740680e-01
1.672737997640506569e-01
1.903080560212609407e-01
1.436300353024919652e-01
9.098820131184491566e-02
1.208401636919435029e-01
1.016398333326501008e-01
1.286789160926791187e-01
1.994585840109627251e-01
1.684680122599231389e-01
1.046323529098639876e-01
1.657255062475030405e-01
1.446767145438916935e-01
8.238227750511256664e-02
1.028976358126710844e-01
1.240686407366570765e-01
8.937331896875616577e-02
9.391349790943301357e-02
1.067993243730210318e-01
1.110137715867303559e-01
8.362834844634414733e-02
7.068780308597502615e-02
6.241529757043337567e-02
1.567607225668346815e-01
1.210718751110637786e-02
1.116924701886183174e-01
6.769555058461966535e-02
7.428363261473489021e-02
8.117408696378886068e-02
9.222395772723503138e-02
4.859210739130780110e-02
8.445941566023687508e-02
1.201100774475724053e-01
2.438725553419560793e-02
1.157730644036006756e-01
2.577341326010360034e-02
-1.803215171238654879e-02
1.201597061373332193e-02
8.543681525365864893e-02
6.082185752756856523e-02
9.441328190759899763e-02
8.002685835492685806e-02
5.368479373532020205e-02
8.901778760768011556e-02
4.848723052764654373e-02
5.350562566213625665e-02
2.172012403820217791e-02
3.494180560082086467e-02
3.204749413826991217e-02
9.105402735549987525e-03
-3.082867645306783255e-03
3.537924825163940579e-02
8.183077876758276803e-02
5.082299577933190038e-02
5.040399615251350829e-03
4.955173031522241284e-02
-1.353012053454845376e-03
6.210539045032428818e-02
4.264420113452860317e-02
5.856687337878557081e-02
8.428809812020937597e-02
6.966649266905336479e-02
5.465496010102306734e-02
6.610649828774972647e-02
2.551716013260619392e-02
1.010149778274571919e-01
4.761482426964831760e-02
5.001579379537417908e-02
1.102989659371610837e-01
5.149904905196619337e-02
6.481133826436150103e-02
8.929753896700748372e-02
9.042594787696059400e-02
9.711228077741854148e-02
5.144763125866864961e-02
5.137469246690426483e-02
8.388957350471058783e-02
8.642907391134596606e-02
1.009933066140185631e-01
8.186492561719402317e-02
1.117164620232022343e-01
1.004756352450526524e-01
1.274212069220104770e-01
9.595969527737840954e-02
1.357334985314932740e-01
1.071663199457991572e-01
1.527720848193492853e-01
1.852968315684868639e-01
1.528090693489504437e-01
1.098108930386969273e-01
1.376711741534698275e-01
1.482900742468301336e-01
1.861823064643028380e-01
1.050253724268091632e-01
1.540544457400650769e-01
1.296486308443606794e-01
1.381040910163295887e-01
1.743567007599094443e-01
1.950644327845538206e-01
1.670215484558599806e-01
1.228694121632820935e-01
2.327108059176236921e-01
1.918856262212888797e-01
1.967012364158892135e-01
2.037686103423058670e-01
1.628402422408681272e-01
2.211804070335111616e-01
1.906208280156554691e-01
1.785027034429828297e-01
2.070539477828913510e-01
1.821317427746049489e-01
1.427521403703115865e-01
1.675885823681304287e-01
2.453413413862373660e-01
1.843721601423622958e-01
1.768509762258744233e-01
1.942705912796218459e-01
1.891215639557982386e-01
1.511395947805940221e-01
1.848672591186988345e-01
1.639331979726263988e-01
2.489565917450272392e-01
2.264380843949603539e-01
2.457033088323097858e-01
2.666395889704954447e-01
2.724578995617346067e-01
3.957840136204069936e-01
3.882257871048382381e-01
4.133770633347713663e-01
4.894846797117183845e-01
5.892819453144890751e-01
6.678182444017549679e-01
7.302756947098878459e-01
8.088565508118849001e-01
9.246564102035110810e-01
9.896139709689877328e-01
1.082856408957177718e+00
1.167103012072182144e+00
1.249619733334254468e+00
1.306916315136411155e+00
1.374090138319928212e+00
1.416483243358082733e+00
1.459639630881139238e+00
1.441520560972743059e+00
1.509880806635508055e+00
1.413633586922766971e+00
1.319388118340327543e+00
1.320964374722491952e+00
1.268621475231207052e+00
1.146393967001211989e+00
1.079845037497931370e+00
9.964994759056067242e-01
9.075334612991187155e-01
7.847487660786459651e-01
7.002298514407107044e-01
6.188160162854541291e-01
5.276262981097483706e-01
4.638275756130879057e-01
4.316571595985718712e-01
3.566857218529643769e-01
2.280617670461684288e-01
2.349821689167581606e-01
1.896620075876803146e-01
1.962148803015674459e-01
1.762226769264610970e-01
1.288519913836809194e-01
1.731954603296238515e-01
2.075110189637136560e-01
1.371877316017772741e-01
1.267200575125022322e-01
1.363086921227888160e-01
1.305628414726135167e-01
1.455505708484818028e-01
1.189085884185100694e-01
1.254557105904051117e-01
1.953763796263007502e-01
1.532781329724989261e-01
1.616667448459851164e-01
2.059586978546457114e-01
1.432891738189053243e-01
1.373445882534018170e-01
2.308066111678486187e-01
2.158080654890873196e-01
2.010774856126285037e-01
2.109227436839956060e-01
1.821748110235712481e-01
2.000635003741356444e-01
2.877395544102495650e-01
2.465626347290385267e-01
2.227322993947545571e-01
2.329546417876802722e-01
1.899970230831823925e-01
2.451739006076728566e-01
2.173269396428226252e-01
2.758906222317153989e-01
2.825212121721528136e-01
2.427856535740659794e-01
2.544829284952307424e-01
3.090758753592708352e-01
2.374740408004351322e-01
3.171874867146191046e-01
3.094958471159660052e-01
2.505831543717600418e-01
2.738282044577569074e-01
2.174857473231471827e-01
2.459743808040421587e-01
2.645290705686728083e-01
2.553314850319630680e-01
2.353005918599877511e-01
2.660911935053278943e-01
2.801356275717687416e-01
2.369816617019248339e-01
2.094570057597630597e-01
2.896006800548769911e-01
2.477982034962088742e-01
2.037200449945837377e-01
2.450608016218577823e-01
2.537021978711986314e-01
2.163854385120376200e-01
2.249992046512618860e-01
2.984245560949414511e-01
2.034550303549828854e-01
2.042809545398032722e-01
1.745531521008976961e-01
1.488250971559850477e-01
1.845856412375566635e-01
1.659570189599963719e-01
1.916679117915437991e-01
2.179119992643626935e-01
1.720876196847538342e-01
2.142319138061634376e-01
8.752882545002482750e-02
1.272724534580799149e-01
1.715502456346373328e-01
1.309725650955921306e-01
1.876704805562200151e-01
1.762007582247286652e-01
1.935024567029690334e-01
1.416500256412923930e-01
1.048161198154397983e-01
1.520575858500311239e-01
1.313132404475033099e-01
1.070770875155080820e-01
8.652546160453528090e-02
7.045024636359033254e-02
1.104558590367904491e-01
9.829236959309187172e-02
1.723440693550326239e-03
5.382801124273429993e-02
6.501515146006890677e-02
1.084892081660787377e-01
1.276412922420337367e-02
4.297857772184846686e-02
7.297953113328504993e-02
7.821334824632721061e-02
6.107826212605751981e-02
5.676578128762284348e-02
3.358112037582476617e-02
7.784476715621389820e-02
5.019099269144306624e-02
1.138744059627421444e-02
4.266940214558848088e-02
5.309208315405872930e-02
-3.112338723452571024e-02
3.593153978518945357e-02
3.604728680624147419e-02
2.241225680852502664e-02
1.253733298861225628e-02
5.133950246569717740e-02
2.534701290884559810e-02
-9.490823273314298938e-03
-2.219408561689267811e-02
7.289105451215015241e-02
3.725426347905320956e-02
3.896377664813635566e-02
1.216730882891717443e-02
-7.652833983506611600e-03
2.710290517168503430e-02
7.386643486100930023e-02
1.746350316526762078e-03
-3.432980312467430462e-02
2.402982562755764419e-03
9.296304052300354828e-04
3.580843636173253186e-02
2.794394453696780883e-02
-7.179338291906025779e-03
-1.427529649194882524e-02
-3.803048609006642877e-02
2.089203362750188808e-02
-1.741805985506849480e-02
-3.661773132856774304e-04
-1.430138205700472696e-02
7.201899457310968061e-03
1.745699174570203641e-02
-5.070077204937827216e-03
-2.389646959390817615e-02
2.232539412465588125e-02
1.386718288358459658e-02
-6.182933033343381707e-02
-1.900963269176011994e-02
-2.376881030788077775e-02
1.965445091976064998e-02
-6.855270665080504672e-03
2.743315336098107321e-02
7.509882581157231729e-02
2.655187107772695454e-02
-1.032489304129713056e-02
1.615449513769981818e-02
-1.159194265561734258e-02
5.394271802715659009e-02
1.604725506987919603e-02
-6.511122734838632048e-03
4.145824101426748287e-02
2.491865408384964439e-02
7.352362876634632727e-02
5.585369678859677944e-02
3.963316150299376478e-02
7.617459346707759760e-02
8.477618421964505657e-02
4.909834448640382210e-02
8.625762230116498785e-02
9.771787548697656589e-02
3.885139312987337390e-02
6.825548486091788380e-02
5.276698281552760078e-02
1.418537366975313463e-01
1.176454976725428009e-01
1.121886731692612882e-01
8.963931267478866816e-02
9.210022403722556428e-02
5.181952678118317834e-02
1.154296488210223848e-01
9.643011115002619871e-02
1.421863835639121387e-01
1.485592192133928791e-01
1.451347749064968162e-01
1.234372829462722920e-01
1.403961541635976584e-01
1.710740877653750547e-01
1.428652584567016159e-01
1.845420357192689709e-01
1.240754011720952149e-01
1.287757207045944763e-01
1.185360985729699834e-01
1.271262894928770759e-01
8.334902775729591262e-02
1.607872316161626791e-01
1.261550659471348257e-01
6.987824014508201009e-02
8.721161532451511544e-02
1.106769739401004538e-01
1.429986551836348319e-01
1.366485013317003394e-01
1.166562737482638862e-01
1.406270093625112683e-01
1.247446258688794662e-01
1.231713370390779549e-01
2.027126573836184886e-01
1.508213197055272570e-01
1.735629060104889321e-01
2.345920119786518709e-01
2.693736221060876179e-01
2.977481174322603730e-01
3.180944235418518007e-01
3.890003698787177777e-01
4.321425334711292976e-01
5.209671846310568455e-01
5.723981196496289447e-01
6.372297998491855964e-01
6.932569120497406034e-01
8.108921397839063960e-01
9.497339122274673917e-01
1.060190185626687764e+00
1.162557800465581215e+00
1.219688678696655204e+00
1.290439552427897318e+00
1.373493885246433344e+00
1.372713302927027756e+00
1.449917446243143226e+00
1.417388774394339634e+00
1.370168302039555197e+00
1.308578209844465823e+00
1.302599805339070604e+00
1.305012531751746474e+00
1.124670722599112382e+00
1.090394262610293596e+00
1.003816634601339519e+00
8.548549092547791384e-01
8.052347209182370014e-01
7.153142368657088301e-01
6.087089479126602809e-01
5.632791267808694435e-01
5.839300101148754418e-01
4.218859126492164879e-01
3.467664253149264075e-01
2.664457051230996742e-01
2.284859374261435372e-01
2.523630614814854622e-01
2.013158976510854292e-01
1.262298865359807176e-01
1.333257816697191456e-01
9.388078856738962807e-02
1.186907897026323599e-01
7.854936314898086636e-02
9.485906756915833682e-02
1.374297675559486842e-01
1.058420241368589199e-01
1.178240879299091992e-01
8.023116022233112155e-02
8.235536136429996712e-02
2.244673465565742015e-02
1.255236443698150572e-01
7.830635492059548342e-02
9.533972080642033609e-02
1.159651491770485598e-01
1.595950444294623183e-01
1.346623363379496341e-01
9.543385432891809961e-02
1.426923683024257927e-01
1.181477501142014913e-01
1.558248969984126209e-01
1.314781357901311232e-01
1.911016810268630628e-01
2.568985166907971074e-01
2.242335195870833742e-01
2.013729811493494559e-01
2.212095264721299359e-01
2.632852760904437761e-01
1.947970418290373151e-01
2.150126141445328487e-01
2.061807702265751052e-01
1.645795530725242817e-01
1.832988165639040101e-01
2.013984854985574613e-01
1.777621255799837763e-01
1.618719615873619455e-01
1.836587535761524115e-01
2.171040115439659135e-01
1.998117516023606433e-01
2.374446029637043432e-01
2.761438110824894210e-01
2.406292006506796366e-01
1.728461448063952355e-01
1.746795585242619520e-01
1.591190276981213902e-01
2.062547762755995717e-01
2.174213871656641706e-01
1.775290821352186188e-01
2.386676659287281232e-01
1.858838028507260598e-01
2.501707952926588985e-01
2.344414763908212462e-01
1.711426872720606673e-01
1.561624711706168789e-01
1.781075028697642892e-01
1.767452711086238415e-01
2.192374723683029603e-01
1.388469139160792287e-01
1.756738803067533772e-01
1.916151423636836548e-01
1.432002026933573424e-01
2.034160251747939574e-01
1.013529668277996371e-01
1.376335870562098163e-01
9.061399339755288329e-02
1.252065667640449853e-01
1.574001637428940614e-01
7.247755294259197734e-02
1.072209764220198314e-01
1.555893745345815204e-01
1.219917354635827733e-01
8.656847097939517066e-02
5.348722836732948405e-02
5.066210350146847091e-02
8.420990304593348186e-02
8.719568536024513428e-02
4.217336358791440309e-02
6.573283711536895280e-02
3.794785779744852539e-02
3.330220154159322515e-02
4.110512732697065019e-02
5.334632353840600832e-02
4.873703507981956562e-02
8.490551438255977690e-02
-3.275644634281608264e-02
-3.546353609952124231e-02
-5.675050982388028104e-02
-1.871643088980652972e-02
2.355886009681396054e-02
-1.630924376620572491e-02
-3.248755815370014260e-02
-7.858544014949751799e-03
2.451412379748035830e-02
1.806049577131630529e-02
1.035410548352499321e-02
-1.999196931984574543e-03
-6.639229413321351414e-02
2.556194434104816504e-02
-1.885885172600985926e-03
-3.074397177406706927e-02
-1.175681171833403010e-02
-4.636036028943662374e-02
4.165908603301664986e-02
-2.105886496574272543e-02
-4.716025255593540855e-02
-2.152814731446681465e-02
-4.685447795189743442e-02
-1.232490579528159463e-02
-5.418699704465660544e-02
-2.211549751064835478e-02
1.370879806129630257e-02
-2.186796405090494014e-02
-1.433472448016739897e-04
-9.503626730224835895e-02
-3.259164677341839372e-02
-1.589044470097639855e-02
-8.496832618631633416e-02
-6.509912355523547745e-03
-3.327174814005898901e-02
-2.973749346847281289e-02
-6.634563771999406334e-02
-7.074504499075190411e-02
-2.650843143358972212e-02
-1.774617758773797474e-02
-4.819907714767211748e-02
-6.836674744463672182e-02
-9.985236626759298739e-02
-3.277838158559545634e-02
-7.102484861260534299e-02
-5.909430952500054068e-02
-4.389435014386801337e-02
-1.548216686524018365e-02
-1.626017487066711703e-02
-5.143268191535496636e-02
-2.926905078439491145e-02
-7.043970074992692010e-02
-2.995209977328945963e-02
-5.051113811874705095e-02
-2.664019507097079714e-02
6.367832900473477387e-03
-6.466927024178109606e-02
-7.938848488577632256e-02
-4.358838972790899519e-02
7.428746712614682501e-03
-7.071496411488092937e-02
-4.704309676444713706e-02
7.128624080803440399e-03
2.725563929433544308e-02
-4.533283161660672800e-02
-3.202251506755410954e-02
-2.148695812230985713e-02
1.860830359643624032e-02
5.325559235975750594e-02
-1.024170667881098284e-02
2.140907830600465023e-02
4.390809840408795017e-02
3.621697064640232860e-02
2.639434891185357679e-03
4.108661293519372953e-02
7.582521227350695614e-03
9.085833900748480074e-02
6.163500461238670403e-02
4.896797412244915243e-02
7.911664340182339439e-02
5.780018093537006574e-02
6.895073311934518667e-02
4.054117290491211084e-02
5.528627975554007562e-02
1.048134316310836422e-01
1.211434835763341988e-02
1.383704489241754376e-01
1.095659050108311605e-01
8.351135309696791631e-02
3.796052723246644278e-02
1.008199945692196398e-01
1.149803413458207885e-01
1.270063453024558031e-01
7.062999950457979348e-02
6.725908936964269946e-02
9.747725353153768868e-02
8.252795094771611661e-02
8.878763350992044390e-02
7.736622675577900510e-02
1.126628706687481801e-01
8.845059068548336012e-02
1.224361342336569708e-01
8.803479818828655046e-02
9.249924456220871838e-02
1.060295840931133882e-01
1.437182146732107757e-01
8.962305216683449927e-02
1.095691767124651883e-01
1.530030828826572098e-01
1.083491440530764821e-01
1.271897542293718431e-01
9.746117795493350333e-02
1.547110266825036662e-01
2.410542279356891748e-01
2.552261612437567440e-01
3.276303682076226464e-01
3.075940619671496679e-01
4.027354980801787776e-01
5.177991484463273508e-01
5.673739678627458538e-01
6.529989178860132748e-01
7.456143675751860656e-01
8.574937135347431294e-01
8.867764460682232563e-01
1.016221268485398621e+00
1.073960183708548399e+00
1.129812787752882075e+00
1.263583485035293830e+00
1.340621508956169938e+00
1.391752415342625282e+00
1.423902587317303459e+00
1.390160223404567130e+00
1.352594217449621494e+00
1.350604863422772306e+00
1.308740489887309177e+00
1.218861149564079760e+00
1.186055837414012881e+00
1.110003529903557995e+00
1.011141244765406899e+00
8.878746788872052820e-01
7.742692869802656475e-01
7.137555603189338349e-01
6.245333159196519990e-01
4.833582239421172488e-01
4.088685191948635000e-01
3.539382715394960854e-01
3.168399325637192288e-01
2.500200887603264421e-01
2.460279274513720860e-01
1.730442179780145029e-01
1.597417584132070079e-01
1.107234731118043047e-01
1.444705869143407817e-01
1.213964157028752378e-01
1.293497277243450122e-02
6.305494586586066208e-02
1.005176091041322106e-01
6.458903415153258165e-02
4.937090898784862736e-02
1.373678005550665188e-02
1.399996856346018975e-02
9.910980841507877059e-02
9.870930153698020959e-02
6.913615927818272944e-02
4.891566893497523161e-02
9.517496105105432980e-02
9.821388531192375149e-02
8.355052060753943854e-02
1.584205062114622808e-01
8.058478352876061179e-02
1.685417872069138456e-01
2.139253697408913801e-01
1.970580638209137037e-01
1.631779268485776258e-01
1.276745182813541768e-01
1.550924784213314478e-01
1.231348718129389314e-01
1.129944596123603068e-01
1.460465517461601581e-01
1.458234579006510712e-01
1.677731472343104158e-01
1.449561749369248087e-01
1.954697370716678706e-01
1.674659619615046224e-01
1.721175918273050720e-01
1.816996910124387687e-01
1.527900093112099789e-01
1.638035426882134271e-01
1.758844147766638610e-01
1.476195563431633162e-01
2.088917475130567247e-01
2.031082849838257154e-01
2.071101873802228543e-01
1.682832361929359755e-01
2.591429268366574612e-01
2.146769078854332269e-01
2.170447532334899843e-01
1.849931960803849751e-01
2.158201792764698479e-01
1.903834482360803326e-01
2.414713840326904726e-01
1.377061858075836476e-01
1.983131987013334874e-01
1.856999062528909561e-01
2.029648090446241060e-01
2.287034436524091052e-01
2.144607943410337947e-01
1.777515195246320012e-01
1.776900575542365857e-01
9.905250249262725903e-02
1.619581403520732321e-01
2.076714556337787843e-01
1.493043680599156486e-01
1.251638674454633449e-01
1.088947273460339482e-01
1.261635279733157033e-01
1.241786408036701234e-01
8.301947300182577205e-02
1.233676001666902944e-01
1.243876620903883040e-01
9.401719242855818837e-02
1.395635281137812822e-01
9.976175343499132930e-02
7.710244663591656056e-02
1.261999011544248928e-01
6.458859166541389141e-02
7.091991438783329382e-02
4.353095324542367861e-02
3.219193716817760065e-03
-1.414685553239750093e-02
6.389111018626518479e-02
5.725608442307980606e-02
2.597199467145050455e-02
6.269811228427128735e-02
6.405532615363487836e-02
1.355243355097328350e-02
-1.471535330640640765e-02
1.684353263478076401e-02
1.192043236769894238e-02
8.711813645216302804e-03
5.157669824587183399e-02
1.400478768581187028e-02
2.235008295479565948e-02
-4.020801285395766977e-03
-5.021166646215070861e-02
4.474394305484764855e-02
2.502584417543464446e-02
-4.981807206802139898e-02
-1.007641400595436082e-02
-9.993170520268962465e-04
-3.577066656552895657e-02
2.006503302028071062e-02
-2.805049357436332699e-02
-2.135036556110909978e-02
-2.272515540706757445e-02
-1.425880532135846701e-03
-2.410894958120091136e-02
-2.301216457466450857e-02
-2.545703077791603222e-02
-2.852505436360468216e-02
-2.025445424614050888e-02
-5.846824459025606185e-02
-1.621760369461205248e-02
-2.485626533714774961e-02
3.379943337840158463e-02
-8.320143048557054888e-02
-6.947082410186808388e-02
-6.552153215257179586e-02
-6.771465407791305013e-03
-1.508229899328743240e-03
-3.202904790249545136e-02
-5.307695193382224591e-02
-4.934821731154882818e-02
-4.799144044208127763e-02
-1.374902681501060861e-02
-4.257824019291667900e-02
-3.556753906616082900e-02
-1.051701022536715713e-01
-4.077594637400008132e-02
-4.845295945786756708e-02
-6.756181847213062197e-02
-1.099266511320744211e-03
-5.652062623208255199e-02
-1.396285104053962556e-02
-5.799809345444259523e-02
-1.469137982367579864e-02
-5.863636301075571267e-02
-2.659244410307200560e-02
-2.025191152108999845e-02
1.728469545903429244e-02
-7.120687743270065484e-02
3.250635866968275972e-02
-1.644702685082216620e-02
8.736064993580851257e-03
-1.430875897365961776e-02
-1.305631158760083704e-02
-3.259910838601474264e-02
1.835570629773186635e-04
1.116173690766951096e-02
-5.208586115362800334e-03
1.867736728841277311e-02
-1.549669834928031620e-02
-1.319428229171945577e-02
6.339727140038886599e-02
4.877630060429724579e-02
8.828036629772816057e-02
9.182226114447787635e-02
5.192687664414888382e-02
3.009870721348987394e-02
6.699528214901795398e-02
8.474821116183473002e-02
3.568196393964528923e-02
1.027750811551423199e-01
1.034777095598380103e-01
3.827875461176041827e-02
7.291850143164825548e-02
8.011791690678563005e-02
8.325277068629180488e-02
1.355227620115797837e-01
6.110547318097467318e-02
1.000664301452824645e-01
1.108878067976233756e-01
1.295723841016383493e-01
9.032027028925601608e-02
1.459759524132405728e-01
2.084968030701572494e-01
1.299483751373475826e-01
1.618945170850041582e-01
1.258183042207517421e-01
1.141661028241207354e-01
1.756272919614498551e-01
1.341925352289509987e-01
1.103548453407236785e-01
7.238025182976494387e-02
1.471470634466501837e-01
9.988413068361558234e-02
6.522017954885894753e-02
1.000478761025647700e-01
1.067678692921792960e-01
1.327603233260402638e-01
8.835008961899912250e-02
9.647972532729182094e-02
9.269452057288865565e-02
1.517574698171890724e-01
1.494715058226571414e-01
1.215521426722438736e-01
1.999936113704800233e-01
1.932023671659499064e-01
2.015086212569810187e-01
2.774406944625207871e-01
2.843503780274365123e-01
3.098238579545680160e-01
3.631079028152323640e-01
4.826705376218514698e-01
5.399308736051789959e-01
5.760157013633655509e-01
7.040067521795426719e-01
7.914981224684168870e-01
8.655644725460839295e-01
9.306084042105660092e-01
1.074699861928522404e+00
1.179210602007384034e+00
1.223631627630540564e+00
1.307122234970954366e+00
1.337617831080097686e+00
1.355981969613619942e+00
1.452386784232178263e+00
1.435545773526342606e+00
1.459729724837221188e+00
1.350122527822251728e+00
1.348500560751622945e+00
1.257977149078478130e+00
1.237007876113700666e+00
1.052399289444886143e+00
9.947216735869622850e-01
9.106711124129061030e-01
7.923774099989778774e-01
6.615482376250167995e-01
6.171625863365987064e-01
5.631259588167155661e-01
4.421144571247326294e-01
4.909820327251839256e-01
3.891622559675329551e-01
3.027974070674192553e-01
2.796748487226555224e-01
2.463226121523633683e-01
1.947298612260666140e-01
2.093516743632810040e-01
1.464072143426396466e-01
1.488901040281165045e-01
8.442015839904161434e-02
1.516296983281363586e-01
1.249001687149177142e-01
1.117339961277249161e-01
1.391913656952559197e-01
1.602095034493005721e-01
1.017485526889775338e-01
8.308962117806413528e-02
1.323904417034768299e-01
1.424417214935947140e-01
1.006461505800405193e-01
1.195055520132377452e-01
1.977030546999040406e-01
1.209242281843216221e-01
1.539244082556727178e-01
1.333352862322229049e-01
1.731187417316260302e-01
1.621848563966529766e-01
8.552508430045552279e-02
1.895076616598377894e-01
1.952869938206756306e-01
1.623923276702768925e-01
1.952222445225714198e-01
1.964091164887798169e-01
2.231813307584952499e-01
2.218609603332735158e-01
2.153861067732212864e-01
2.182247165863422378e-01
2.161056027002981605e-01
2.731101518921045801e-01
2.510234474873854760e-01
2.833293661061464519e-01
2.590709026312262298e-01
2.395732629280928894e-01
2.261874914906217005e-01
2.368487722459987066e-01
2.554235041272835960e-01
2.805188267871115415e-01
2.304387256408650664e-01
2.613277952564800888e-01
2.295700950050204581e-01
2.486917051833291703e-01
2.716206290262231371e-01
2.755424924442815282e-01
1.808666044728105549e-01
2.535876693914015934e-01
2.687691211680194314e-01
2.243379696457142580e-01
2.383473266087017817e-01
2.569319747305775503e-01
2.281573140446949699e-01
1.992991698225759500e-01
2.336722402926332542e-01
2.327461210529145619e-01
2.199127227384822802e-01
2.006364966209020495e-01
1.900071813360768580e-01
1.848725004404775107e-01
1.392620720780503585e-01
1.980465504536327304e-01
1.758821369023642889e-01
2.110688218731720800e-01
1.897461179669897025e-01
1.723658585990552328e-01
1.445559433234838431e-01
1.543323587861207824e-01
1.639004345905898663e-01
1.657013536996988501e-01
1.524797291812234334e-01
1.058091584312997047e-01
1.622678198240000147e-01
7.065286254774139074e-02
1.180144598842043646e-01
8.033398648957845722e-02
1.066494262386985664e-01
1.252003049181893424e-01
9.079685350999583404e-02
1.129654079948046452e-01
9.474553338046327877e-02
7.264771208988166085e-02
1.112642994409741432e-01
7.038968180234682348e-02
8.023375733253944320e-02
9.686930586769046392e-02
5.721087374774361939e-02
1.080244729758658567e-01
5.505314324977386709e-02
1.139781017474369579e-01
1.151073937033587069e-01
7.455860961812313392e-02
3.579050803432074629e-02
7.794468423704610516e-02
6.085570011296087545e-03
3.653197291928428347e-02
1.793594588150272673e-02
9.283956074909845146e-03
-1.499969417055185827e-03
2.630948463797197837e-02
4.238691075806495789e-03
2.751977985129886589e-02
1.822880698721600357e-02
5.704207067516876839e-02
6.744017352171596813e-02
5.379677193058851614e-02
7.329194958543465421e-02
5.975769885202930620e-03
4.541486449996787189e-02
2.951793636917197580e-02
5.674325013915614349e-03
-1.142641862415754578e-02
1.957481171562143463e-02
6.003018726134873306e-03
2.054890645180603229e-02
7.691474018084811654e-03
-7.699764466536015983e-04
2.587318566922701402e-02
-1.989688651075540923e-02
5.159349158115925094e-02
-1.879145973545814571e-02
2.766444501515666690e-02
3.244984579326798402e-02
2.696473339839065148e-02
4.432158250737922717e-02
3.912705881150482790e-02
5.619147192554117820e-02
5.581079961046228610e-02
3.806384805876408123e-02
2.447782978158580605e-02
2.029781257821591800e-02
5.202945025023595488e-02
1.667650860639025012e-02
3.925462879166243674e-02
1.861380689745680342e-02
2.222886892917219290e-02
8.141520179018532644e-02
5.789975107874470450e-02
6.349315029992545767e-02
7.344033627755489069e-02
3.773836821525666796e-02
3.466833583713033878e-02
5.032175277727826690e-02
3.483457510929835466e-03
7.592834225666615644e-02
1.757072539518435630e-02
7.618196598263128616e-02
8.915006124073751592e-02
1.083335772576001776e-01
4.094693817460413193e-02
6.948323673614725804e-02
7.198140735381304556e-02
8.291522809430135199e-02
8.266273577065832989e-02
5.796149290485620720e-02
6.468969320069820061e-02
1.365643010732548179e-01
1.254828061461764899e-01
9.513494566752996040e-02
1.505922617612922843e-01
9.013617965387024644e-02
1.258302557309787795e-01
1.858046092140065997e-01
1.124717544835772548e-01
1.894779734262619086e-01
1.031978930764922836e-01
1.740985164542598884e-01
1.099254506419389127e-01
2.190418071003945588e-01
1.626408576307342702e-01
1.646795675335294695e-01
1.859060566482360899e-01
1.711149506948090593e-01
1.859134418998754368e-01
1.898444482221029184e-01
1.547518147045392478e-01
1.766766100003981932e-01
2.466991331329551618e-01
1.915716253329161345e-01
1.738668662473782101e-01
1.979305652629838597e-01
2.007261707955283747e-01
2.080921646097909639e-01
1.597408717668764577e-01
2.155201801345760781e-01
1.891145605721029355e-01
1.811376778395758225e-01
1.504482891360305885e-01
1.896757521446661154e-01
1.559095947630483592e-01
1.465499782500082893e-01
1.969937431232326175e-01
1.780058015515891823e-01
1.803926446281809981e-01
1.576104875715282905e-01
2.404924161865562016e-01
2.378487544797740771e-01
2.878262479672497598e-01
3.512129638090856210e-01
3.650352245240316984e-01
4.369191689352056041e-01
5.228026870471260690e-01
5.855808808606947080e-01
6.570595176670278592e-01
7.689925566467232798e-01
8.171515565296687544e-01
8.412727706210991752e-01
9.883126949140101924e-01
1.151513569413090465e+00
1.234282252529414814e+00
1.312614275402018027e+00
1.345394806817032052e+00
1.333452307629840128e+00
1.454097171472184424e+00
1.508628491821723205e+00
1.450675997130733696e+00
1.454746025933806308e+00
1.475575696963537631e+00
1.387748723614454116e+00
1.304190022276302985e+00
1.174212290404906600e+00
1.105426564500988418e+00
1.093574954419375356e+00
1.001306090743323329e+00
9.158431048489513726e-01
8.027611958202660603e-01
7.251291468704283982e-01
6.649644970931968269e-01
5.232906588057668618e-01
4.720165001335245303e-01
3.823358445703291530e-01
3.751095123670814546e-01
3.187306104444305732e-01
2.505879272651335699e-01
2.142540649381891038e-01
2.502376108032374757e-01
1.887534205372289886e-01
1.880295857378596336e-01
1.710554596038493524e-01
1.782272339124081895e-01
1.587282039229421238e-01
1.522910139109789895e-01
1.322358511667817704e-01
1.585024059832376708e-01
1.657350142081880917e-01
1.552992823944046585e-01
1.891843987839060270e-01
1.685733331173855376e-01
5.662519618943625405e-02
2.006810620232257758e-01
2.110019872066468682e-01
2.217661008927179489e-01
2.530910189546981548e-01
2.532805238201748521e-01
2.318576949310719726e-01
2.467018914015758901e-01
2.408368872582657416e-01
2.251201232164130595e-01
1.719209786410085539e-01
1.556516040599291995e-01
2.104830336121330803e-01
3.015366831862373864e-01
2.617232501229745933e-01
2.567329598323030981e-01
2.684778325477817917e-01
2.803727678214898988e-01
3.093389925126223683e-01
2.879544555048926813e-01
2.865295839033203951e-01
3.033427017660880742e-01
2.401615234315744862e-01
2.631310575592599732e-01
2.972031356979478733e-01
3.332985297911412736e-01
2.607421389599211548e-01
2.664587957226109416e-01
2.811184995948577403e-01
3.181998967830245162e-01
3.019675801263264070e-01
2.815639121636520081e-01
3.097668951466095999e-01
2.862130251227653077e-01
2.612941944776153713e-01
2.952898989612112168e-01
2.568766347207867562e-01
3.197161722489372804e-01
2.661847235090447628e-01
2.988175762206393138e-01
2.985491978643756705e-01
2.958503845566142210e-01
2.675875866139436066e-01
2.573529049795114654e-01
2.315000501773419872e-01
2.319446359807026958e-01
2.112214897114291223e-01
1.907452210006252147e-01
2.597145231292882217e-01
2.873015425940441681e-01
2.126235523607643840e-01
2.228454288427500762e-01
2.270627871079433091e-01
2.207839136967624794e-01
1.885026314441501927e-01
1.935828076684912302e-01
2.401758386559027791e-01
1.742682004802298956e-01
2.157397820973005198e-01
2.150766306656989868e-01
1.592850905260728700e-01
1.453769992612874151e-01
1.542750756854694150e-01
1.630600390730327920e-01
1.404069352592420827e-01
1.500899742986129271e-01
1.615398162146724492e-01
1.118457374710741248e-01
1.433642404489191002e-01
1.316711920262076951e-01
1.041336103067882213e-01
4.787214609762168588e-02
1.080282171714536943e-01
1.247339021122498698e-01
9.417979988300839711e-02
8.317826784549654795e-02
1.068217134538100854e-01
1.174135763885404971e-01
5.693110841134044892e-02
8.608378235773989084e-02
8.250976367168051662e-02
1.567636388085575927e-01
5.318312287646914660e-02
9.365486398038237736e-02
5.632909994770710777e-02
6.963600986141353644e-02
1.349791974050624510e-01
7.715895170145531390e-02
9.689174859496209324e-02
1.369164359450805724e-01
6.283090053861917212e-02
6.227345399332297193e-02
1.838044179082459761e-02
1.233028103514420271e-01
6.330506897148030498e-02
5.354080642300231702e-02
7.866663578043225913e-02
-7.658104439097063176e-04
3.160394995814023306e-02
7.727895194459977191e-02
1.065575159889381868e-01
9.367431319858893213e-02
-3.609742547120396716e-03
1.176682053376807979e-01
2.877471936605820180e-02
3.832956045189685190e-02
5.370118334153888701e-02
4.116450760072315473e-02
7.502399259937977960e-02
4.508532081285505921e-02
8.436941888873222828e-02
7.556933924438699601e-02
7.136110996546042584e-02
6.804047852318277634e-02
9.322318325110373616e-02
5.368325885141404796e-02
7.759015073914407590e-02
6.974306618332877516e-03
6.527854557264710367e-02
1.047282061830908662e-01
7.443890619300561062e-02
-2.237481239494541752e-03
5.196167324818744965e-02
9.511105386283510987e-02
5.385286660851179574e-02
7.849242916806389858e-02
8.881931984504989885e-02
9.454076587270499044e-02
5.431909997083861352e-02
3.987506247606897869e-02
6.707656973639936071e-02
1.092011382913755241e-02
8.060330698646171743e-02
6.781323228540661607e-02
8.587505283706126091e-02
1.118762389247042743e-01
5.492507423109323911e-02
1.146752212165741136e-01
5.356075499216485236e-02
1.535366716663147113e-01
1.365861778999635789e-01
1.333633161462054462e-01
8.047211488049886563e-02
1.040449918058654888e-01
1.372674800759142166e-01
1.019298388123823784e-01
1.372755114269487708e-01
8.075596496188580664e-02
1.224589687307914981e-01
1.541537555023374251e-01
1.641895698226031597e-01
1.025577830730523554e-01
9.951194297520379872e-02
1.510329314249302946e-01
1.511849337084038847e-01
1.704324577106087757e-01
1.438341556230802176e-01
2.124970982323516611e-01
1.906605334451467459e-01
2.193811002766561380e-01
1.877845194039207410e-01
1.782987111390944013e-01
2.015545712557038627e-01
2.250218186639116880e-01
1.752714360096926660e-01
1.905388668073139669e-01
1.735602464609475593e-01
1.412901932957603690e-01
2.801017216335853210e-01
2.249538330815542553e-01
1.876419595165839949e-01
1.932200580451401140e-01
1.678349365544029581e-01
1.595399904314656059e-01
1.801574380758787508e-01
1.356091614520282818e-01
1.718280958336133035e-01
1.769215689353499932e-01
1.634238462819629367e-01
1.328697011198294864e-01
2.492924649174211582e-01
2.158765696242735399e-01
1.944170542385783018e-01
2.597912686862979825e-01
2.682521082518800615e-01
3.367227210208873500e-01
3.256415743725052936e-01
3.733328817981360626e-01
4.879225105682696850e-01
5.222710057319435162e-01
6.132063354618247919e-01
7.099769033868852386e-01
8.274933299705449219e-01
8.361506880010652898e-01
9.993293593857118795e-01
1.027717505791751806e+00
1.132992161739490466e+00
1.266644541689761816e+00
1.309339510030764542e+00
1.338361684617378700e+00
1.406551458616018158e+00
1.429168456514277707e+00
1.472720739665863920e+00
1.461186968244238660e+00
1.404595842279574791e+00
1.404595245091132094e+00
1.346383864774318928e+00
1.261565591554362653e+00
1.175007764475386018e+00
1.187363124811719572e+00
1.011338525352454054e+00
9.839978540294092024e-01
8.472478440929269716e-01
7.617558808455440200e-01
6.944728212865189931e-01
6.410974035653321801e-01
5.264619554557616876e-01
4.029028700943488861e-01
4.071891702290609816e-01
3.058858094010559192e-01
2.883814594179656132e-01
2.410978609910686687e-01
2.455863181732464984e-01
2.416171957260986325e-01
2.067846190112225258e-01
1.009529707114971697e-01
1.684566399692120076e-01
1.934593189480764697e-01
1.848875459733638205e-01
1.470107303262667420e-01
9.666142567672905694e-02
1.741838302534206573e-01
1.096959816252392472e-01
1.814416889032360869e-01
1.983942131992596503e-01
1.329889332430556903e-01
1.692382690341116269e-01
1.590105288379966009e-01
1.626271911678670024e-01
1.828186347159612701e-01
1.387411366376159194e-01
1.863069509601559537e-01
1.741593535621925037e-01
1.858115821888212671e-01
2.207593626115661734e-01
2.294026080670290568e-01
2.683205367951278508e-01
1.840407194703511939e-01
2.164555548363008841e-01
2.482895729506433002e-01
2.231421457370796890e-01
1.939548785143704879e-01
2.411800100041302797e-01
2.316809842741045511e-01
2.935337796448270198e-01
3.322364171648425901e-01
3.036560532802277668e-01
2.756649385531523833e-01
2.937613294910863537e-01
2.454986596456900372e-01
3.203616111296492819e-01
2.944363684750687105e-01
2.755562121747043292e-01
2.685277994067695739e-01
3.338729097795363199e-01
2.500191544854613035e-01
3.257594249875035985e-01
2.864049773195610493e-01
2.603658051079417168e-01
2.819349609087159481e-01
2.540740389541167876e-01
2.264798204414287808e-01
2.630248976502663205e-01
2.124790163926088271e-01
2.743075460821925993e-01
2.778235473645697673e-01
2.768459374748960533e-01
2.598140614516514235e-01
2.351417476947791352e-01
2.479015708633162673e-01
2.340883335442823510e-01
2.028808893932365076e-01
1.890874593768878953e-01
2.226309623523941850e-01
2.388663774258661665e-01
2.465553989362069820e-01
2.044162455731017014e-01
2.205804175788832477e-01
1.552943330361255536e-01
2.080102612145096064e-01
1.993794341610120313e-01
1.796471578681583248e-01
1.811430177234883421e-01
1.884022913467450211e-01
1.553893484025546945e-01
1.453883984978148747e-01
1.094242860458025934e-01
1.405316623817289279e-01
1.698677568188284026e-01
1.428215297594064848e-01
8.358382101512146223e-02
1.374987554892802277e-01
1.394092823025578909e-01
1.611174486911694514e-01
8.802551479243359012e-02
1.235498406756141421e-01
1.344990095020093257e-01
1.019753033527403124e-01
8.918883252344164680e-02
9.615721446842273590e-02
9.154337213440505439e-02
1.047860197172255647e-01
1.174772385057993029e-01
7.196720809858653256e-02
3.408065273552095958e-02
5.868121898399185354e-02
5.327987079825420580e-02
6.522104367704617545e-02
2.047751079979799951e-02
7.655229996578999385e-02
7.952311693719843477e-02
4.421249332135258892e-02
2.558854634564105418e-02
5.156711679655046066e-02
5.688758034024762877e-02
3.061046338526993149e-02
5.804595995995708024e-02
3.381018839844671109e-02
1.537257126044886714e-02
1.911439350590199426e-02
1.881987198340595926e-02
8.395986816483657841e-03
3.525373092843525624e-02
7.139858231778845044e-02
1.757383088525339004e-02
4.895972774949714640e-02
5.769412448980661134e-02
7.254133540210642994e-02
3.927091803056036168e-02
-1.490228912917418783e-02
-2.807791928960539155e-02
-2.078058633334652072e-02
-1.913209392383537905e-02
2.591682941503539728e-04
4.007817654364132648e-04
3.164608481342015556e-02
3.643686640794664700e-02
-5.117707880187217367e-02
-2.142028661162298855e-02
-5.709911071373786895e-04
1.989853832814702378e-03
2.550888232046544940e-02
5.288541482362420915e-02
-2.002107395304697501e-02
1.132360527740380596e-01
2.955283438853135644e-02
-2.905147007780065418e-02
1.477461740362880430e-02
-1.116543266545149890e-03
-4.721294520460432576e-02
1.005330074867608232e-02
4.241291881417138393e-02
1.637505903418880887e-02
4.855729950229147746e-02
-1.118182587414285473e-02
6.898151411296297997e-02
5.801733544140043330e-02
6.043980220144840043e-02
-3.809213621083719359e-02
4.454496457295870765e-02
5.429023468950722880e-02
8.377966519230656273e-02
9.194782750018976047e-04
4.934816659647055931e-02
9.988197882148756868e-02
2.358238920783338466e-02
1.159168891271475099e-01
2.719004640233333922e-03
8.006113174785195463e-02
7.495820089409303832e-02
8.159408219869461465e-02
1.317750232144085931e-01
7.643779657444667308e-02
1.089628718593963624e-01
1.101179591694272514e-01
1.357449589650894517e-01
8.556422967688111225e-02
1.320617625109107574e-01
1.066151171860026392e-01
1.572447585197555842e-01
1.116278421552220762e-01
1.612327484821755585e-01
1.147149732479265383e-01
1.175467053714096266e-01
1.140785778237206061e-01
1.287329749888510289e-01
1.347591157397853845e-01
9.677601889280999792e-02
1.604030388105837923e-01
1.661457109602489657e-01
1.217545999982126287e-01
1.523542170697232134e-01
1.188274857627129449e-01
1.184682131175547187e-01
1.699747594574669285e-01
1.906259616833155812e-01
1.802509106575732600e-01
1.028800180455859414e-01
1.419790936345696752e-01
1.866485124763414549e-01
1.616921968915278618e-01
1.719375325712338975e-01
1.873624862392024026e-01
2.010458668751279043e-01
1.213660277689022904e-01
1.025740523678776578e-01
2.556392854559065286e-01
1.554734592150743833e-01
1.686678749849666037e-01
1.920274681404117445e-01
2.693555846190137659e-01
2.551556624200428947e-01
3.329716090905075476e-01
3.789736229662955536e-01
3.937967314231830551e-01
4.783551245386423179e-01
5.182232866915899017e-01
6.535699134374912678e-01
6.517325454583278166e-01
7.974280884536392167e-01
8.907862279648907089e-01
1.008185449248418353e+00
1.085678734229879927e+00
1.156378395692256866e+00
1.235247493890245130e+00
1.304629602628263108e+00
1.390274619572188897e+00
1.407143366280009689e+00
1.423835610094427606e+00
1.416833353345544833e+00
1.419848266343976650e+00
1.454705401106213492e+00
1.349705288958161109e+00
1.255920245529831725e+00
1.167313109699580576e+00
1.112117565347995773e+00
1.032352096246046624e+00
9.232191737118585761e-01
8.153565962913790210e-01
7.055017268873865488e-01
6.452109984830426415e-01
5.908571563332142285e-01
4.397501070398321388e-01
4.029487447236695385e-01
3.563834812819876574e-01
2.672068522044951933e-01
2.781181113259081350e-01
1.766553670149647870e-01
1.682732663218088898e-01
1.728663076531778420e-01
2.012737268338807839e-01
1.215025910247194696e-01
8.613364730613087827e-02
1.296474047951192976e-01
8.584984779023321910e-02
9.575075318350885489e-02
1.131366302703084442e-01
7.394219136252097591e-02
6.750805441266306828e-02
1.092240267042772078e-01
1.567860607385736516e-01
1.953889861236766945e-01
1.261741474040935229e-01
1.104673981097559210e-01
1.327451361678908814e-01
1.496288251498799904e-01
1.449402845640382353e-01
1.750996313630354129e-01
1.396647946909231330e-01
1.540851157969200524e-01
1.607258411699812040e-01
1.553298724029267275e-01
2.233828695004694276e-01
1.529278600898428819e-01
2.239702323795540739e-01
1.893858190193713487e-01
1.602267160739578311e-01
1.758607311801518303e-01
1.607875668433488281e-01
2.008741760731283521e-01
2.087043359744744642e-01
2.338741346981672298e-01
2.881692162101227028e-01
2.215991479250688234e-01
2.156782466876065174e-01
2.339901800475285565e-01
2.625728219520131468e-01
2.334488455967992093e-01
2.249773138598904210e-01
2.118063934419482097e-01
2.653621565470732913e-01
2.325842220251355119e-01
2.134852433200859767e-01
2.282329119314773502e-01
2.117265158851511786e-01
2.091495981741148258e-01
2.350262578424272553e-01
2.627402512442143512e-01
2.036128567303162606e-01
2.153152160098757151e-01
2.086339099590889812e-01
2.140963784713498519e-01
2.158751931470475616e-01
2.733064663233338853e-01
2.377820070218203963e-01
1.612747860419022627e-01
1.855353543708859743e-01
1.630128284428766505e-01
2.188098741935726455e-01
1.794544224745332761e-01
2.301052403241302668e-01
1.522450057979327642e-01
1.121086326388544829e-01
1.668503578949856736e-01
2.024726432814156485e-01
1.179940621750944219e-01
1.473549397501320857e-01
1.239673819972251234e-01
8.790872744108231551e-02
1.337338260502490273e-01
9.901955498720318993e-02
1.121556582999002766e-01
4.962409389294943074e-02
5.616450506712163115e-02
8.399704651281224288e-02
9.752599423992962258e-02
4.483102264523344815e-02
8.533146997752567853e-02
1.951887415026528835e-02
4.423789711278711817e-02
6.700072152426167493e-02
1.416708850579965692e-02
4.358102411948647226e-02
2.115097835455429648e-02
9.525455923007443426e-03
2.210675772147509960e-02
8.340968497602678500e-03
4.594120570257642644e-02
2.926911090112393338e-02
6.735610197604345595e-03
-2.254295598177814830e-02
2.541965157831566763e-02
1.717070691813073896e-02
-2.805420703103341656e-02
3.577781256162957529e-02
-5.288429503819830346e-04
-8.783127954621348932e-03
4.014264145143172507e-02
-7.074857050652753193e-03
-3.385585795043365154e-02
-3.344355960317729748e-02
-1.507647936817443912e-02
-2.102132494099335364e-02
-2.981803336811810271e-02
2.056261037134923114e-02
-4.913495767595857378e-02
5.231162451299620209e-04
-2.124821481873686094e-02
-1.749121643070466331e-02
-1.044932246598246836e-02
4.305823682231633975e-02
-2.489242307797998044e-03
-5.705867273747926294e-02
-6.135725205003556004e-02
-2.096493102063193628e-02
-4.898345404601676945e-03
-1.639367953213610729e-02
-1.043243862943175615e-01
-4.035430294075215141e-03
