1.389600743831744589e+00
1.344082757938985795e+00
1.359404931082170087e+00
1.382249554207827469e+00
1.320242126540505545e+00
1.213202801391080277e+00
1.115981930475271167e+00
1.050016734254108242e+00
9.271454165329297004e-01
8.049450039776193666e-01
7.191854448030530200e-01
6.283434794303185411e-01
5.770496327393018765e-01
4.820878041418132920e-01
4.090691773590571789e-01
3.965985527155445056e-01
2.900483914199633584e-01
2.225702539538594871e-01
1.516832891246151227e-01
1.688931391596892040e-01
1.218868044296100295e-01
1.008529495259046505e-01
4.824788534201537166e-02
5.264961808517699265e-02
1.302745933734842376e-01
9.593914154972220387e-02
6.246110339095503616e-02
4.943680396815642447e-02
5.779130647274149241e-02
1.028745269760469316e-01
4.420627970029673837e-02
9.321270132171627365e-02
1.141857122800907093e-01
9.166778016032516019e-02
8.268802465060159923e-02
1.326221245393099379e-01
9.413608208148192824e-02
1.097156838752971486e-01
1.160565963325648209e-01
1.223412873391341027e-01
1.429051496206153460e-01
1.076103840672728157e-01
1.174206145377413441e-01
1.234712065616150323e-01
2.336137671613617295e-01
8.989142018172754933e-02
1.463185316283142634e-01
1.440880158661712596e-01
1.646895995519710720e-01
1.503255087560836922e-01
2.111082967757750006e-01
1.830147239659626890e-01
2.162209633783934160e-01
1.258452922790522510e-01
1.594770914600260325e-01
1.719802563824690544e-01
2.406715251385869725e-01
2.383631777836112686e-01
1.957304091848911798e-01
2.232332219231447645e-01
1.519534494810984293e-01
2.312108058853645232e-01
2.047104555244965429e-01
2.156655459926258012e-01
2.062133778726277511e-01
2.231371387963785036e-01
2.070884475916044409e-01
1.994225746899337959e-01
1.942523800571492043e-01
1.806289798887557585e-01
1.806634081050289831e-01
1.639722935952723781e-01
2.073797889018768326e-01
2.223632966119470922e-01
1.664626617857108692e-01
1.431706896371436333e-01
1.438497391393620262e-01
1.114391363246091810e-01
1.748698156414326688e-01
1.243003654783918777e-01
1.627910594566900626e-01
1.468751151692028745e-01
1.364127154346982396e-01
1.241933292275347878e-01
1.316490582688014666e-01
1.531526198594451438e-01
1.525885730504941418e-01
8.465502440358267655e-02
1.142273217259026641e-01
7.132730276121945767e-02
9.829988254381152868e-02
-2.621434399968545353e-02
5.195744429312654927e-02
1.181517595854672531e-01
-1.924589679746219195e-02
1.201073947113555362e-01
9.393704902093158449e-02
6.237655008023602898e-02
9.723542836878197593e-02
6.418628244689188189e-03
1.263640093833927336e-02
4.285214961213201779e-02
1.119191808098821128e-02
-1.917273948100889358e-02
6.233778195106299408e-02
2.253837712851373964e-02
1.260469516180875993e-04
2.379271336598071107e-02
3.294870369510406738e-03
1.780191456361945868e-02
6.319425358327815379e-03
-5.627269439871985385e-02
1.238651178388254503e-02
-2.436948283255905082e-02
-2.128182586783022509e-02
-5.915818296677852195e-03
-2.621954487905115566e-02
-6.357115691834014370e-02
-6.244636032098876965e-03
-3.563708832948361827e-03
-6.054946457526208525e-02
-6.568685752896198660e-02
-5.833398649008819659e-02
-1.454333531233432258e-02
-5.551401927825768551e-02
-3.153678452900485207e-02
1.893559848873797857e-02
-3.270107000474913039e-02
-4.256844796496025290e-02
-5.565322111904029423e-02
-6.434325522711711876e-03
-3.095214220428501098e-02
-5.097020441718583261e-02
-7.556355144226584164e-02
-8.819347737057234293e-02
-2.230188970655650610e-02
-5.044601249661682246e-02
-2.755641303520500740e-02
-7.545014257975640737e-02
9.939271159939061517e-03
-6.475044803972307417e-02
-6.391936489594510218e-02
-2.236509656183359451e-02
-1.629933228614325463e-02
-8.350884660401394766e-02
-9.137494122897005244e-02
-4.171820465241847520e-02
-4.249659334378416697e-02
-3.396149601604495083e-02
-8.442106626184872620e-03
-8.499817108800267196e-03
-6.571489834451978151e-02
2.819326240184168164e-03
-4.178016745408744126e-02
-5.301538590442219506e-02
-1.820822029351466809e-02
-5.921193505630327480e-03
-2.243166125609393977e-02
8.569894578254605433e-04
-3.228061484271754072e-02
4.084922337578730800e-02
-3.099209591207072872e-02
4.777749725169977424e-04
-8.480583232105494418e-03
1.859808269641147205e-03
-2.870744447652677500e-02
1.260644329671298941e-02
6.232694296458866912e-02
-4.078446833145916300e-02
2.786216461788672272e-02
1.823350548051701908e-02
6.340418691775431825e-02
7.843322605567856765e-02
3.171698828564442629e-02
4.300590488652403925e-02
1.010697670416924598e-01
1.096193208091892357e-01
1.224722377519757571e-01
4.393903634347039178e-02
4.802842978723716183e-02
1.060288344314481990e-01
1.036854487436263961e-01
8.466242229346929160e-02
1.257635045992006040e-01
5.649936701816976603e-02
7.323771491750874496e-02
8.478584134204278366e-02
1.115152038073226881e-01
1.327855745851404534e-01
1.101921698668602845e-01
6.612863428627803464e-02
1.323451922991232266e-01
1.126981371778842667e-01
1.032637563312928941e-01
6.946263882552161650e-02
7.837793258534794805e-02
8.165247386331059287e-02
1.348550636990100693e-01
1.279984820804152545e-01
6.144991282644918923e-02
1.228797542737859738e-01
1.034974023155285361e-01
6.815765856901331854e-02
9.592375065150207658e-02
1.360543449071618394e-01
5.865305939114025258e-02
1.091529573432064859e-01
8.773722150312754375e-02
1.459925054732463257e-01
1.063123196551160055e-01
1.616938357218304367e-01
1.870110208719338307e-01
2.382811007014046245e-01
2.785249672590315861e-01
3.722099958806740494e-01
3.759572626832264342e-01
4.999560806129683121e-01
5.638478493934131475e-01
6.600266258742202297e-01
6.783750198533992082e-01
8.287536225345292218e-01
9.626097677761877858e-01
1.024048988110487945e+00
1.113405031706714343e+00
1.191326269387442904e+00
1.271939095297157429e+00
1.280173798974106658e+00
1.344829632974646527e+00
1.343804068929186579e+00
1.325518751815433660e+00
1.394443817435901289e+00
1.359819000201744954e+00
1.324563294336468244e+00
1.271831857463592952e+00
1.163554322130154972e+00
1.057789750264266360e+00
1.016679380528109577e+00
9.151246490706277381e-01
8.744489200949548957e-01
7.078733824885656833e-01
6.710663299502848123e-01
5.285244609558454876e-01
4.607950793742431328e-01
3.817828611377370174e-01
2.946458619953687963e-01
2.508875888387273045e-01
2.478948422527230133e-01
2.010739521078658831e-01
1.667774785169777729e-01
1.297870174179759362e-01
1.274700665637671648e-01
9.416619165319928264e-02
7.515922290225496294e-02
6.864659010027336639e-02
4.735846435639040619e-03
5.511020231006122372e-02
5.819055657575718243e-02
5.362154433788891145e-02
4.539535855690141064e-02
8.938905358862378470e-02
3.442393460767243646e-02
8.106850984077229594e-02
9.762694405064020753e-02
5.842128585563848703e-02
6.710853967791129138e-02
1.048710122379264142e-01
8.681773986973978507e-02
7.336871456948323988e-02
1.224883579636606434e-01
1.271906272289804463e-01
1.355044295216683570e-01
1.709912242505068070e-01
1.698186618631862266e-01
1.316455899919147798e-01
1.358826327244943843e-01
1.352805819338873394e-01
1.855798063710263068e-01
1.873998949570959416e-01
1.915952761132221904e-01
1.972014488906229379e-01
1.996315182338158634e-01
1.923784364129632607e-01
2.485804054916899708e-01
1.827567021300562367e-01
1.773675554014906841e-01
1.556866310087800798e-01
1.989654325701381010e-01
1.927888475178408390e-01
2.285205307409916287e-01
1.776358565106452292e-01
2.387473274287831848e-01
2.200867984875300165e-01
1.846773081187812471e-01
2.292207314987951550e-01
2.517725299897377034e-01
1.805145201964296897e-01
2.448209008597775904e-01
2.177867252362828410e-01
2.385771088084867042e-01
2.027798782165831093e-01
1.906957924444332431e-01
2.141738477936283025e-01
1.671948659878164656e-01
1.982830923483698271e-01
1.810180812005052486e-01
1.588249231502992243e-01
1.235448787183368036e-01
1.394804676103995611e-01
1.512016409325831756e-01
1.813465290526674045e-01
1.288037300658373685e-01
1.397361783314258199e-01
8.538912215939145622e-02
1.327012373039122839e-01
7.999510523187297606e-02
1.630186038988391539e-01
1.215043307344625262e-01
1.391985112766506161e-01
9.975221003602667558e-02
1.513695329191649952e-01
5.570997621690566837e-02
1.284985637598120567e-01
9.469938615486901690e-02
8.979760509352592568e-02
5.766923595869735686e-02
8.260613599723373723e-02
1.024605410728488264e-01
3.466475095896000280e-02
2.363510367579656213e-02
9.665507924370055071e-02
5.148355720052001649e-02
-2.590176304930694867e-03
1.716233391093870131e-02
1.619976048620640902e-02
4.127713267205765368e-02
-7.616563615429963741e-04
3.834758849442068684e-02
4.534766397686870731e-02
3.303014251101993315e-02
2.192631024649892985e-02
3.306977355371660404e-02
3.506718774597884780e-03
1.518163910866637822e-02
-1.202095702229744045e-02
-5.178802326499433450e-02
-4.326438699228982165e-03
1.276201305449327361e-02
1.399077038235134116e-02
1.550113884562008201e-02
-4.951780566287392049e-02
9.787276324656316723e-03
3.863882982047910086e-02
-3.139755008500477729e-02
-3.132330545199517313e-02
3.004959298218374403e-02
-1.925040734383768465e-03
1.924379205560346889e-02
-2.653731169926318301e-02
2.879069252870455550e-02
-1.918149151970376456e-02
-3.536137723544459377e-02
-6.323511242800400334e-02
-7.680465389202832671e-02
1.867923631596759421e-02
-4.206701544841845442e-02
3.166246419927236377e-03
2.103980519282470929e-02
8.571575084564041214e-03
-3.576126190781511727e-02
-6.242351599425405295e-02
8.390339932998688854e-04
2.188198369959488965e-03
2.372073567608799088e-02
-6.158265825818441674e-02
4.339566240723850138e-03
3.186459901252153282e-02
-2.651915236505387324e-02
3.683149992819578084e-02
-7.938074482953730651e-03
-1.095560270733915952e-02
-6.020479400028198175e-02
1.234831577432133828e-02
-7.438640537987437421e-03
2.859118772137385356e-02
2.232181446798043797e-02
6.273995969178297605e-03
2.646581785796672109e-02
-4.699988568474602890e-02
3.461117092257232769e-03
-3.655397542479075362e-02
4.705494729657036523e-02
7.994478314960740822e-03
2.800176311722122821e-02
8.173786405081512330e-02
4.178215669880638167e-02
5.750889572229373609e-02
1.726639864384031664e-05
6.008541626971802829e-02
3.012146023883607165e-02
-2.449527765569240595e-02
3.349717115364341663e-02
8.409357415015165926e-02
1.353190613157205513e-02
9.171161244609660201e-02
9.659937617095025464e-02
1.227862858636936949e-01
1.218805243297837460e-01
8.470491561017035043e-02
9.326961328320527989e-02
9.485931182621561153e-02
1.357324268398791278e-01
1.160189033890874077e-01
1.203454379843665323e-01
1.469825481250663091e-01
6.548165526240801171e-02
1.403840031079416628e-01
1.540115035711523694e-01
9.219434919903785053e-02
1.689676191613266598e-01
1.300173014281176265e-01
1.207286067207480884e-01
1.623514351253238508e-01
1.321344891327525806e-01
1.951248915943760431e-01
2.131332379729371784e-01
2.062421693011846358e-01
1.068898680866870732e-01
1.618452015870727456e-01
1.711013319675692146e-01
9.091354550412769631e-02
6.684652645368885371e-02
1.413410970207361617e-01
9.536981777371468516e-02
1.926686942492287780e-01
1.401147409670315536e-01
1.445522948843603883e-01
1.653301428169418330e-01
1.563732578222415959e-01
1.619016439140869290e-01
1.913469593284486681e-01
2.301093585835282396e-01
2.814647541932805974e-01
3.240563126476679323e-01
4.243792055718117462e-01
4.571448698964518664e-01
4.883913827508327699e-01
5.903495153404403339e-01
6.371004151889947398e-01
7.273629437371145201e-01
9.077987431189972201e-01
9.168311704152091179e-01
1.050582726918046550e+00
1.149612397357003157e+00
1.207014559808586629e+00
1.288186456457911966e+00
1.370697123285476327e+00
1.413892636235729361e+00
1.457473936920359314e+00
1.428627503190349257e+00
1.437174977914493335e+00
1.438815992851521397e+00
1.306769825902354576e+00
1.365159061720281342e+00
1.327029600998676617e+00
1.217835360518232823e+00
1.070135979351863220e+00
9.841096958846154985e-01
8.787558319512150939e-01
7.837145592810991213e-01
6.992619264088169029e-01
6.011430789663987362e-01
4.890693158335903679e-01
4.377583082848915952e-01
4.148395961609822602e-01
3.833954496850612292e-01
2.413857363004300594e-01
2.416142808002203768e-01
1.788068882463738907e-01
1.449401322070086873e-01
1.439816872654660629e-01
1.420830855451132857e-01
1.713881066180939772e-01
7.555454312173205678e-02
1.135185432286641427e-01
7.932503050571421133e-02
1.294089277366064772e-01
1.382030186672502658e-01
1.277308910804672570e-01
1.233681038756893888e-01
1.451339578792102680e-01
1.446979515523111881e-01
1.364171419172098276e-01
1.146300554984193421e-01
1.376931268390498564e-01
1.573549104257322695e-01
1.814229062532263237e-01
2.123981959514040230e-01
1.822767904965154895e-01
2.393680473821230836e-01
1.722141589674887341e-01
2.452572637173404679e-01
1.953346925236547904e-01
2.057058826150207631e-01
1.973882731803530410e-01
2.238538811062008582e-01
2.036026917114463486e-01
1.815111183907382186e-01
1.937714800694344819e-01
2.735731465224760517e-01
2.545661985998990962e-01
2.655947960912753425e-01
2.372258934916918194e-01
2.936812062540570256e-01
2.400972163214805388e-01
2.644958747460803838e-01
2.695505292834726729e-01
3.231010087496262728e-01
2.365565981814425900e-01
2.926940874865471831e-01
2.916742319516880122e-01
3.192916499497258642e-01
3.078788193479871094e-01
2.352368367511613045e-01
3.094474062073161447e-01
2.342447357072106329e-01
2.213637643199093674e-01
2.629794677310043349e-01
1.981648677689193672e-01
2.577858389502424852e-01
2.210788425219557540e-01
2.629082762477676916e-01
2.334226812813492424e-01
1.945917997039562364e-01
2.505935604319975418e-01
2.458400944210698269e-01
2.083290486150135845e-01
2.197342604667026633e-01
2.008395893115315634e-01
1.947103752086163930e-01
2.654447319349174106e-01
2.192575535336703241e-01
2.740094844590822976e-01
1.933183430513818746e-01
2.064951269842203452e-01
1.794864905081172968e-01
1.683219610480444217e-01
2.154114491389245434e-01
2.006547599583525521e-01
1.541677169706597572e-01
1.779413213092718993e-01
1.108416262578410805e-01
1.376407559972038785e-01
1.630953941380077210e-01
1.764728494405649606e-01
1.821515650584221435e-01
9.848167415510604428e-02
1.300434891057813402e-01
1.383530528148202987e-01
1.035233668543752705e-01
1.041177445344843022e-01
6.771272072192213720e-02
8.116542046342661854e-02
7.678385394079283166e-02
8.883577914797376185e-02
6.714163914643667130e-02
9.417606210610343642e-02
4.158219740602949605e-02
6.747779681425833398e-02
4.711097272558456561e-02
1.169554002049316976e-01
4.160369810855029521e-02
3.041936806487458358e-02
3.628086972350044737e-02
4.637096965710992003e-02
6.580460264847126650e-02
4.186293650943846700e-02
1.088611436094711754e-01
7.051580421230380091e-02
8.674153739902648597e-02
8.526854277642187396e-02
1.092974589969853555e-02
4.147720997396860121e-02
2.415843202904440629e-02
3.944922970578150501e-02
2.601670688076392415e-02
8.477320526694633041e-02
9.318571782621469513e-02
1.629531919037288321e-02
6.250661529237908076e-02
3.059779296100279336e-02
4.442536271251303071e-02
4.161408780244540973e-02
4.999982405879863090e-02
3.118098937438266299e-02
4.536543192857808715e-02
2.798907559538061154e-02
6.367466646390293472e-02
1.155874488589198057e-02
3.968716140896204336e-02
9.483375251916667525e-02
1.140250410992072472e-01
2.821765672869463656e-02
3.826246061090297912e-03
7.768671940299617246e-03
6.611998523236831127e-02
3.865342544907666988e-02
6.422648712961302742e-02
4.303281215166214480e-02
5.153619121124062424e-02
8.012771810989846588e-02
4.861537622556021121e-02
2.358365031622771876e-02
8.040707943289879256e-02
8.278666452897173733e-02
6.576814976334152685e-03
5.110797606381890790e-02
5.908464749203917732e-02
9.403988970695846550e-02
8.751562089835007718e-02
3.872100327138698617e-02
4.089609100035141581e-02
8.265061447597508992e-02
9.719598449898869674e-02
5.868943171309605467e-02
7.112577077449948326e-02
1.498417266023347461e-01
9.746554731229296886e-02
7.743511950219345019e-02
1.545777709684722778e-01
7.463618313704246943e-02
9.344855539392762922e-02
1.156591888678199231e-01
1.418019449082406624e-01
1.205228944722253337e-01
1.513569018752612960e-01
8.739831764104402656e-02
1.810825405782028885e-01
1.840372421053151630e-01
5.428791777933967416e-02
1.195378047082832351e-01
1.504838815746661063e-01
1.408498594864387721e-01
1.542491359112884985e-01
2.008542600008095258e-01
1.755142153735081978e-01
1.553059142605182630e-01
1.900218975566403401e-01
1.758168262274651950e-01
1.920020720171434214e-01
2.262034541454662206e-01
1.401807710947252650e-01
1.984735004501620159e-01
1.073434061455708910e-01
1.692526718699992883e-01
2.043565095473056092e-01
2.082402690333676198e-01
1.685006025475163927e-01
1.846787760258403743e-01
1.706594439568691057e-01
1.689594514302815154e-01
1.629573129385951114e-01
2.070334390233102562e-01
1.347603797293667749e-01
1.975625515880355121e-01
1.374379999859355883e-01
2.120486106004220717e-01
2.178988990322610619e-01
2.296229649825537733e-01
3.408657452563862988e-01
3.173866175032581394e-01
3.850557551295249459e-01
3.540784078640101251e-01
3.457628050974427270e-01
4.660989841891308716e-01
5.626189667031060715e-01
6.203515015985910930e-01
7.496127101261442771e-01
8.232265092880717283e-01
9.078451857826957960e-01
1.002044454381073812e+00
1.074817944207880904e+00
1.159137250645989381e+00
1.213221687981256292e+00
1.351418167792563629e+00
1.377160292472188186e+00
1.507131099393105522e+00
1.429359647972981096e+00
1.429316107689269311e+00
1.527575876101507690e+00
1.484200619352373796e+00
1.403789340884384451e+00
1.344142740475430919e+00
1.262574721430246960e+00
1.239152159603198911e+00
1.130864824738615715e+00
1.057335647685493152e+00
9.458794175863428633e-01
8.246839133785027753e-01
7.283366862745904724e-01
6.679429723066326874e-01
5.473554832444673668e-01
5.371746757124249427e-01
4.120709854246687454e-01
4.040354288047597886e-01
3.289008735423385454e-01
2.986332727122403274e-01
2.566896765652246226e-01
1.987685057522715626e-01
2.032837216603124719e-01
1.609489859381413590e-01
2.010933895049749343e-01
1.608042201581512121e-01
1.677618244002814507e-01
1.907665890308143652e-01
1.744277298065678439e-01
1.475011237659141217e-01
1.492617315155185531e-01
2.116620119251915733e-01
1.974811929426955326e-01
2.514059094096987579e-01
1.997859060421923183e-01
2.202676184895014655e-01
1.698925895449794887e-01
2.125293592252868180e-01
1.947309713259811892e-01
1.512401621573893351e-01
1.773402494807954644e-01
2.365906881041938137e-01
2.667836981669208241e-01
2.317371217642322234e-01
2.933902243722327219e-01
2.470504476252522452e-01
2.231353330970342608e-01
2.334893033365065540e-01
3.052932000298859139e-01
2.727222213283227448e-01
2.667181013526565003e-01
2.685842438023223755e-01
3.262585289414910994e-01
2.885970818495082746e-01
2.688808764946883367e-01
2.619689174304059009e-01
2.847356270801263967e-01
2.777409635399792354e-01
3.130681716669118098e-01
2.500094900169417822e-01
2.841267321386558020e-01
2.617734690544530896e-01
2.698475985399095833e-01
3.425334130860807069e-01
2.896256590326461433e-01
2.703503200025334507e-01
2.503275552046619334e-01
3.053891630043963357e-01
2.824852229699094108e-01
3.296424874175074571e-01
3.256366153486228709e-01
2.971257827419109820e-01
2.677554519461667337e-01
3.094388771272482686e-01
2.829622691450095484e-01
2.818322752433284339e-01
2.750522917227504194e-01
2.626449172822974409e-01
2.312450560731297289e-01
2.866173235392315277e-01
2.810393040245866558e-01
2.821713277430685785e-01
2.013672038006129317e-01
2.701373509110675530e-01
2.315702667074336085e-01
2.342133339044043805e-01
2.287902418222131917e-01
2.081012206754466465e-01
2.656054092932148558e-01
1.856953993460966901e-01
1.579358536756592934e-01
1.587011581304814956e-01
1.720634907343748521e-01
1.525675605523748313e-01
2.033736660536887286e-01
1.272613968617298252e-01
1.016116782957469933e-01
1.734137800724325218e-01
1.662717064727296523e-01
1.355344264324732373e-01
1.421044057937580207e-01
1.029548726043283263e-01
1.230399599957603674e-01
1.196261302387661707e-01
1.007744769073025820e-01
1.789146997385883120e-01
1.402315213357461787e-01
1.300739840067583475e-01
1.024712554976080631e-01
1.031313876659808865e-01
1.225727773477563731e-01
9.380331422452944934e-02
1.369422978947457403e-01
6.155572665486290507e-02
1.002523690854226768e-01
8.476776651895162606e-02
3.078479586971125809e-02
7.661348865041557599e-02
6.582780170597696268e-02
6.238009611207551153e-02
3.055608327393287416e-03
9.609245781279511511e-02
7.513670982862742653e-02
8.321566927649362566e-02
4.753955395041679910e-02
7.157710638368725009e-02
3.958872103309511725e-02
3.230460871975008447e-02
5.957396334280364025e-03
4.755317251370806686e-02
1.836883964142493886e-02
4.396887167573280270e-02
5.860546781658829141e-03
-1.115048378021041287e-02
8.741926027643183439e-03
6.553200442781437207e-02
4.009197073030701386e-02
6.891614811602972401e-02
3.058769252044505824e-02
2.921523643869373965e-02
6.638840107027794979e-02
7.692160985654492023e-02
7.095628703209141963e-02
6.859620268664609610e-02
4.325673604093700081e-02
8.213966583821195877e-02
4.611954066629946059e-02
3.016839096509028872e-02
4.614878917536583552e-02
2.646493259540255022e-02
6.197244013172551608e-02
1.197629494124715782e-01
5.324166231884373823e-02
4.119676031679789935e-02
9.052869516582282006e-02
4.806053258922866889e-02
3.398967183861755642e-02
8.734344502774803176e-02
8.367853586249482389e-02
6.549289910806005421e-02
6.540794870024198293e-02
4.328186801324288013e-02
8.137964315329819509e-02
6.087858484214477006e-02
1.067215101105749020e-01
1.078820258465169185e-01
7.434229563732354384e-02
1.068481155026497209e-01
9.038198232961990042e-02
5.588007526246907553e-02
1.404556288851665224e-01
9.961021018215744649e-02
7.316457757539653051e-02
7.283864234146669725e-02
1.547901164030269783e-01
1.404171561565107917e-01
9.471302168549190770e-02
1.158855444413539604e-01
1.242123464661975679e-01
8.820456761066514106e-02
1.828690383198874336e-01
1.654879470032019073e-01
1.606466063997701588e-01
1.587447169048488149e-01
1.569131204901118570e-01
1.567020408858102176e-01
2.112432328275558602e-01
1.965677755018864770e-01
1.658282307329116967e-01
1.977909879252803538e-01
1.422385056117917435e-01
1.756301911743536337e-01
1.887989128473649136e-01
9.819567613669660799e-02
2.192305200394528419e-01
1.768190238159023375e-01
2.119283295871060291e-01
1.477303033369310459e-01
2.072719580913469362e-01
1.636599875355504718e-01
2.147472730082878867e-01
2.195213253948560261e-01
1.670497883301618747e-01
2.012485900520908644e-01
1.399957624842959047e-01
1.992358907527193024e-01
1.694219773730940015e-01
1.772966513455338511e-01
2.091962464410790368e-01
1.857214959124662557e-01
2.198749471639121211e-01
2.571201584776080518e-01
2.691465406695535689e-01
2.677160053157710551e-01
3.461884368978828119e-01
4.023895199230122510e-01
5.143242100070054557e-01
5.561020220185826091e-01
6.452925063199531630e-01
6.577111904859638258e-01
7.571681679933285336e-01
8.661594263733142229e-01
9.594841188217735350e-01
1.061028174283954684e+00
1.169508639777619541e+00
1.290660919780550309e+00
1.303013837785073958e+00
1.379142567615880388e+00
1.459636312355384158e+00
1.472070050707166011e+00
1.460287741488658142e+00
1.449669144274533750e+00
1.449066123140287710e+00
1.452436082203692802e+00
1.390825731153715328e+00
1.281875073205437809e+00
1.213413442089012584e+00
1.153866224292072973e+00
1.074631567081397288e+00
1.000009842552682215e+00
8.621079505751906291e-01
7.243031882855421877e-01
6.476798218977242172e-01
5.992118364736458425e-01
5.379958002738566281e-01
3.619514825042953188e-01
3.738530869135515133e-01
3.439581597806010693e-01
2.745126027236093891e-01
2.814010600110629645e-01
1.785905324857285925e-01
1.486355450850621041e-01
2.203006581486263438e-01
1.948451949772559699e-01
1.614911709129072670e-01
1.258643607054864555e-01
1.129455672532588689e-01
1.486150288009051856e-01
1.778970161255265803e-01
1.462518329574750697e-01
1.664944231027194466e-01
1.488616498572434832e-01
1.281429731738017719e-01
1.174316771481526273e-01
1.938120951186407814e-01
1.906236458861752803e-01
1.867541833466838941e-01
2.016879361138203264e-01
1.283930319842469803e-01
1.625080711086251128e-01
2.112121785442977739e-01
2.616715632621268717e-01
2.059420511174522850e-01
1.988497375718799864e-01
2.021851887002182879e-01
2.155915944695280528e-01
2.604585074527706601e-01
2.564871048072669968e-01
2.093617546667620177e-01
2.615575382040973840e-01
2.603490719530976993e-01
3.068819124114436914e-01
2.484547750709865666e-01
2.721666347278073328e-01
2.182263600136960247e-01
2.873233686602708614e-01
2.624962270625051386e-01
2.872553690942939997e-01
2.809514336932888434e-01
2.988910629214696080e-01
2.799217969224407354e-01
3.008371649909140078e-01
3.209416999097223777e-01
3.130850768513856464e-01
2.474363514332362790e-01
2.922814192447761861e-01
3.007848725050189520e-01
2.843360989238962744e-01
2.729266674031470274e-01
2.547273459283674879e-01
2.579136103580185191e-01
2.392276983123351186e-01
2.624404544863201405e-01
3.109509473477090613e-01
2.436317417212224279e-01
2.853003997883759579e-01
2.654092688245549003e-01
2.371857074337309912e-01
2.477579554961287234e-01
2.606549070436721682e-01
2.194545187215689031e-01
1.865948025394394971e-01
1.656964209860355697e-01
1.939795327785228118e-01
1.985027671431916219e-01
2.098260709886601849e-01
2.074292717582893741e-01
1.639682658043364050e-01
1.805552913945226157e-01
2.155329303187270285e-01
2.263310158458736732e-01
2.218568960933665901e-01
1.727315505067684165e-01
1.353924329035177121e-01
1.672035554323799689e-01
1.328106628743788153e-01
1.833085616977018772e-01
1.308913001772703810e-01
1.310869925482045228e-01
4.809962859957529757e-02
5.752945194739827323e-02
1.381874455273574831e-01
1.030547648037845182e-01
4.763338743569703326e-02
1.118458568635282008e-01
1.185347980901206438e-01
4.538003825565061627e-02
1.139670361770990514e-01
8.712506226035775236e-02
4.464614636307628198e-02
4.583262586860432225e-02
9.589115313520724104e-02
6.246557411193759402e-02
5.441184691940300494e-02
1.868607526504269950e-02
6.737499802953747507e-02
7.799820028820597662e-03
1.130505567894053709e-01
1.135722406713313981e-01
7.968670305813500832e-02
4.417879012706660280e-02
1.926559062155964314e-02
9.021468947286155268e-03
2.834333636982300925e-02
-6.157562409181296589e-03
8.153848367124426344e-02
3.920100292817278037e-02
2.573225277692795659e-02
2.110907405572949591e-02
8.939982897649509375e-03
3.777206129642494969e-02
6.626589017690953654e-02
1.602569373885821130e-02
8.089241258721303549e-03
-2.684201080519948990e-03
5.224311865104466941e-03
1.062396472209868430e-02
-6.256707050210712218e-02
2.317696515348139849e-02
-2.290028169377964634e-02
2.560427615791770542e-02
-3.858773362728330769e-02
3.313121704477823420e-02
3.606325585018087254e-02
-1.871314839587741655e-02
3.782202503257468817e-02
-3.982513849122430033e-02
4.650502004342506324e-02
-6.242479196712255422e-04
2.877512368082381020e-02
1.537062517520754006e-02
1.607284120132800725e-02
4.064493400789928601e-02
3.141208742779824561e-03
3.298770320641791071e-02
1.721887160568661909e-02
6.331012322160740891e-02
-9.688280669926370523e-04
5.650762754010051070e-02
1.716079952383389035e-02
3.754766331833474247e-02
1.567006604104934087e-02
-9.932858482616213625e-03
2.962582838902265078e-02
2.196287674723990807e-02
6.075770404185005386e-02
3.046856263310556909e-02
1.964980368749027345e-02
1.132537332612147535e-01
6.766024626985017720e-02
8.610016091418655482e-02
1.169210952250179930e-01
4.875458683449363645e-02
5.122621523937907762e-02
1.440976873929714908e-01
8.305506419985783650e-02
1.160202079760890570e-01
9.975344495880741902e-02
1.171655771354125075e-01
1.178038373226368563e-01
1.387843486884771382e-01
8.297896251251998812e-02
1.448292690916699044e-01
1.074420939617464488e-01
1.575076107337033404e-01
7.728238155829822431e-02
1.322749722265498806e-01
1.620334252211280690e-01
1.201811301603047805e-01
1.787317756972817140e-01
1.201343749443453957e-01
1.213617289073854882e-01
1.719195845870733208e-01
1.388401969962322346e-01
1.814348363452542301e-01
1.467436843848702599e-01
1.119754269512897304e-01
1.812525748088762989e-01
1.522183236216952673e-01
1.288854904760620146e-01
1.236287737305370449e-01
1.284964510584446773e-01
1.353644828767124331e-01
1.117060846746323610e-01
1.660793083533040893e-01
1.690605392481405178e-01
1.467477411211033089e-01
1.418784669355212524e-01
1.599928888374587688e-01
1.595885185970760678e-01
2.044553091261286648e-01
2.435111767816739436e-01
2.820672071779299905e-01
3.062107794671018457e-01
3.424311751294082384e-01
3.807010132127440771e-01
4.295361276167407039e-01
5.982256275184816285e-01
6.723025927398207369e-01
7.315850013687194009e-01
8.226219813955035765e-01
8.710700771245473151e-01
1.071715376807914621e+00
1.122352958091985320e+00
1.186303884157331012e+00
1.304994324861305843e+00
1.271446771386047558e+00
1.364364354100864096e+00
1.408816589372380079e+00
1.410947978943101422e+00
1.496057376570391284e+00
1.383462943168908277e+00
1.371867296464358121e+00
1.381058888785003491e+00
1.297314312509101786e+00
1.156060223275913179e+00
1.063575397027776814e+00
9.567660168502697404e-01
9.469078881836526795e-01
7.982389750029604825e-01
6.653483763920573502e-01
5.872330955218363346e-01
4.897237455024580632e-01
4.137445278754361966e-01
4.097214219910975119e-01
3.051477540092846774e-01
2.204567077021470367e-01
2.388951228958013651e-01
1.758343482740608033e-01
1.626572825291963398e-01
1.269891911136656892e-01
1.145082654165804625e-01
1.208131223807384774e-01
1.293415631807047772e-01
1.350738470635300947e-01
7.685243155211345101e-02
8.697420955523638142e-02
9.351811042301681753e-02
1.204567681373291677e-01
1.059986255234017516e-01
7.831783873443917687e-02
1.036428533714421896e-01
1.457803833018143924e-01
1.051224364384643201e-01
1.182390528677156188e-01
1.277605105093209126e-01
8.524846937968846849e-02
1.432680554125351224e-01
1.416508624528121096e-01
1.889023742430814556e-01
1.658620037997322882e-01
1.117626609575837066e-01
2.080251018696052667e-01
1.818449477165410555e-01
1.075286508047459677e-01
1.739668803504421379e-01
1.574753190968100902e-01
1.508150382426919622e-01
2.134388042522539497e-01
1.637987999473909939e-01
1.780855236752236781e-01
2.262931022739935738e-01
1.997554824405503582e-01
1.853737327320815476e-01
1.898254035637611803e-01
2.193833260002121532e-01
2.306047301937573235e-01
2.016839338813333493e-01
2.098055806131352008e-01
2.294373984493174590e-01
2.319453050273235506e-01
1.640306499282854213e-01
2.436424245248752229e-01
2.410956764241883599e-01
1.714021474803499590e-01
2.208516478738417610e-01
2.398401557455643041e-01
1.786336800718673901e-01
2.368927822405716699e-01
2.213030255289794579e-01
1.904911045445780160e-01
2.240070723196870006e-01
2.164106752369868436e-01
1.397119871284058790e-01
1.725975806449172034e-01
1.901942478065838937e-01
2.146044563116992210e-01
2.028624881754088893e-01
1.948339718974096413e-01
2.066614344086682986e-01
1.826803501876815838e-01
1.341036583578096297e-01
1.036218076568462820e-01
1.007489278364555874e-01
1.228480068096113320e-01
1.609537449241307816e-01
1.299855180948343014e-01
1.591834466047102048e-01
9.542527277907209005e-02
1.011641421113919082e-01
1.431830719183154188e-01
1.085384162462357249e-01
1.100535776005491517e-01
9.129213271371922067e-02
8.536641388314136769e-02
7.348632792496694044e-03
4.959361717878253001e-02
9.281443255647361945e-02
5.796853478987010894e-02
7.051106529200582007e-02
2.302733536079241278e-02
4.490408086839824120e-02
4.452307467895798287e-02
5.230910231233874830e-02
1.643966292771251170e-02
4.710084574921725997e-02
4.418909287762245314e-02
-6.299324921367899233e-02
7.444029577022322208e-02
6.282192508307399281e-02
1.543021939164120060e-02
-1.683406324442506333e-02
3.112669321175728920e-02
2.722194111246857562e-02
1.277334364698192587e-02
1.402001806633749320e-02
2.478311885748061411e-02
5.448485107025599627e-03
1.425523011202258633e-02
1.910532654984791606e-02
-2.044970317226149636e-02
-2.044669223746998013e-02
-2.762371761241940935e-02
-6.804126782948360930e-02
-9.626323406340675515e-03
-3.554892679807276912e-03
-5.582717605518403708e-02
-3.161839053723353166e-02
-6.183598519787998626e-02
-1.151479300943991646e-02
-4.269993163504658823e-02
-1.150480323320814263e-01
-1.533061161719130594e-02
-4.896692079905229367e-02
-5.096472307814027547e-02
-3.705085203533978883e-02
-6.952325633285405537e-03
-5.653004092001989722e-02
-2.152761179529565430e-02
-1.126559525790492011e-01
1.526153192983999152e-03
-3.384759834761100206e-02
-3.981479410334616553e-02
-7.180369155765814471e-02
-7.576243066567811546e-02
-4.548294641127526017e-02
6.115556876544692155e-03
-5.405782812933752901e-02
-4.381606074912219873e-02
-4.769375541886648751e-02
-5.043187769350174904e-02
-6.487812466667713940e-02
-5.554239312822355223e-02
-5.812226562607413632e-02
2.727943648578996794e-02
-4.386420506200847114e-02
-7.986675581382350619e-02
-3.522748440655272539e-02
-7.115508330095082767e-03
2.835610796800010908e-02
-4.386797205635931812e-02
-4.838299976435769811e-03
1.252517127479570169e-02
1.286487494530383358e-02
-4.361049116066224862e-02
4.124463640896550154e-02
-1.954157064431114726e-02
3.853010579803405056e-02
6.764407238374495202e-02
4.312299197160827935e-03
6.387939367109392308e-02
4.391955317187529878e-02
1.537139100215322018e-02
-2.900648811079396816e-02
6.255927350463016956e-02
3.042288832921286046e-02
5.098165273051126489e-02
6.295181718166675822e-02
6.555552545853619850e-02
4.767067571502101031e-02
8.044252596008036327e-02
-3.486782079261563361e-03
1.251927281571071637e-01
1.090691048166023414e-01
1.327460768026744731e-01
7.453076760176829962e-02
1.226489450233834433e-01
1.483743120587223130e-01
1.042939909902113882e-01
1.328538451274073884e-01
1.601887145374189525e-01
1.127657411614583771e-01
1.077505822567284416e-01
1.336760580345792426e-01
1.115813218659222200e-01
5.612498917629717143e-02
1.034598628404688608e-01
1.027558539217288125e-01
1.017309406535558958e-01
1.144693120483004090e-01
8.974416653394548526e-02
8.063637840453882766e-02
9.914921759709598159e-02
8.481341713425946671e-02
9.411116922552614783e-02
1.269723537827295579e-01
1.371159988200007229e-01
1.162464009220105093e-01
1.555450992302441493e-01
1.312634228470953013e-01
1.675635320728250943e-01
1.928103895787738054e-01
2.789688312679731719e-01
2.953920984760156077e-01
3.681651526816501763e-01
4.305623473841679316e-01
4.966455073368669648e-01
4.927216679526763565e-01
7.023051901297229227e-01
7.861124954775980944e-01
8.724489212652600800e-01
9.150125804843387556e-01
1.049920568701623314e+00
1.153623755395908335e+00
1.206443902659880330e+00
1.281019429645071428e+00
1.330958906172909906e+00
1.402223997990347470e+00
1.370375820067935901e+00
1.375883907794491101e+00
1.368098120936131146e+00
1.344465254974434698e+00
1.250879168137142949e+00
1.271712443147884786e+00
1.216514930909141867e+00
1.083449569524850054e+00
1.010600155362100461e+00
8.235971362133243101e-01
8.083258286303209861e-01
6.280209496954761716e-01
5.812164784074618229e-01
5.301011139209653722e-01
4.499357021495889453e-01
3.740037700886421068e-01
2.455336879262882688e-01
2.638615672823493297e-01
2.213265882013676356e-01
1.202534759028874856e-01
1.286620727915140372e-01
6.764311172832659924e-02
7.948121124902934875e-02
6.541498227094148799e-02
3.085066270141237355e-02
7.429977161183917711e-02
5.683055485102271598e-02
9.811193503016080175e-02
5.542504255737261409e-02
4.203014522649507756e-02
3.905124664759829223e-02
9.901412994239895682e-02
8.267453840721925018e-02
9.990630213410793548e-02
1.165369908880862226e-01
9.882857552020932190e-02
1.206348939095162609e-01
9.470779187225020213e-02
1.302250268552133106e-01
1.008410381820347701e-01
7.196332515187661705e-02
7.106217585322475994e-02
1.418310811120639392e-01
1.650583516617976643e-01
1.493877856059790676e-01
1.074322631260165029e-01
1.628634468725263240e-01
1.050661167203211233e-01
1.163280668057358747e-01
1.207349705951974161e-01
1.624601937863857926e-01
2.373144136034438523e-01
1.475027325982826987e-01
2.271146168273048549e-01
2.117416796962931502e-01
2.071430093520420512e-01
2.173569605083137124e-01
2.231690740475061330e-01
2.463829310019869101e-01
1.539038334043239531e-01
1.847291785428720468e-01
2.230345323713629202e-01
1.878850892892151014e-01
2.201468048901803753e-01
1.917892364226770896e-01
1.947909316761511633e-01
2.471171646641910635e-01
1.819274110873285999e-01
2.198287031132163116e-01
1.951992902438198785e-01
1.613822128924436716e-01
1.601634248294476481e-01
2.314123625054927968e-01
2.337914696483534283e-01
1.751365994566080331e-01
1.438176767831395586e-01
1.695332769062260214e-01
1.940505639108415781e-01
2.149228440731346668e-01
1.122217916407307337e-01
2.009619054834803631e-01
1.660350918217742278e-01
1.330364629875928351e-01
1.428483771670518709e-01
1.758595555305833003e-01
1.251145192168003073e-01
1.317241855583092258e-01
7.874667892560861804e-02
1.058388404317756742e-01
1.118295548363991143e-01
1.173227873141823863e-01
8.652518637190606543e-02
8.531403503524451204e-02
7.486221920686841891e-02
7.937129567724185430e-02
5.437375958384542407e-02
4.592350490646635031e-02
9.059935942689376076e-02
8.215685205996628437e-02
1.132237926737009459e-01
4.915405290020795348e-02
4.883443707151397667e-02
5.983112278138960627e-02
-1.136691530319292043e-02
1.663163055990365957e-02
-2.885513601118723515e-03
1.227459873469213120e-02
4.132991418800502359e-02
-2.846794101125584703e-02
2.673410813919863821e-02
2.599439031003569767e-02
-5.026141893355120377e-02
-2.718346739995027711e-02
2.706720463693166462e-02
4.738922898118241162e-02
-1.854031776325074099e-02
-1.436653619389949982e-02
-3.016947161800881405e-02
-6.278739079656654731e-02
4.251466285466086459e-02
-3.818817053436385223e-02
-1.938879100710294914e-02
-4.858107423228635174e-02
-8.385284698176995177e-02
-9.637356802316296434e-03
-5.363065589163340530e-02
-1.090777210175849360e-02
-1.571046065519884211e-02
-6.765418684426496854e-03
-1.669728312886677168e-03
-2.850576853109366982e-02
-2.091438378759586519e-02
-2.060255176024373275e-02
-5.012103864162685551e-02
-3.680354034217848957e-02
-2.100117314168613303e-03
-4.953405908963236931e-02
-5.728488389292952371e-02
-3.505024812409628793e-02
-6.444615354930484374e-02
-5.796222309916344850e-02
-5.787770276609483650e-02
-4.312307964384637371e-02
-1.312483060273726687e-03
-4.245835734142743012e-02
-2.913926733197694241e-03
1.162025757856861852e-02
-3.807536132742469354e-02
1.291754448818668854e-03
-3.284082849786290614e-03
-5.156315182820103010e-02
-5.913491009041369623e-02
1.027498656722777154e-02
-2.090925969551008651e-02
-8.969825261225805590e-04
2.271376547094182408e-02
-2.659940544955772743e-02
-1.792710865642913737e-02
-6.288074594023972119e-02
-3.147376087675360368e-03
2.962190155843445055e-02
8.218535550111601140e-03
-2.883365719642940264e-02
1.867443814432101501e-03
1.243839397187643248e-02
1.366385919241647207e-02
6.405672104518256305e-02
2.950964254154801736e-03
5.120248973449960384e-03
3.740169783004937409e-02
7.400187822223538991e-02
9.695177854525313665e-02
5.484887569371085791e-02
3.721808032543937050e-02
2.895615428118068074e-02
3.179482015024962666e-02
1.127528965654604892e-01
1.090690256553699944e-01
3.544333257140935833e-02
1.001253009876799382e-01
7.190497214218308231e-02
1.174548337899321837e-01
1.001939801444415579e-01
7.387309672071361299e-02
1.393773741667192756e-01
1.028072096318505824e-01
1.382566651013995007e-01
8.745739449993178427e-02
1.091999848361975001e-01
5.544665730305407131e-02
8.214156507919417871e-02
1.018387786094375191e-01
6.394330554088933916e-02
1.754310405287659025e-01
1.231554159094950807e-01
1.112335792145126012e-01
1.080028758689715040e-01
1.237965924020238973e-01
1.317511021285791006e-01
1.618809761236443823e-01
1.292543957403813615e-01
1.094654499211309695e-01
1.075656142893283707e-01
1.341145255954163673e-01
9.532411884213262687e-02
9.300100201793923271e-02
1.207848045067512061e-01
1.577781334056768126e-01
1.193100101695239029e-01
1.775881814191714869e-01
1.459152901566836691e-01
1.566747319941177163e-01
2.926473315963699640e-01
2.553475954662603464e-01
3.644804431547954415e-01
4.089681764039423406e-01
5.073509386174137603e-01
4.876410982125651272e-01
5.759998104641157468e-01
6.889304768701030035e-01
7.237277231414297463e-01
8.708633768515923190e-01
1.013177173774073125e+00
1.097869342307531193e+00
1.148640381900908780e+00
1.203251995080559578e+00
1.252223161050424416e+00
1.349296658172084218e+00
1.417765083969386275e+00
1.421910337270018143e+00
1.435199553041516696e+00
1.440416492167755580e+00
1.362522307667028088e+00
1.311603806154200580e+00
1.268696200633370186e+00
1.213139509514371106e+00
1.046286894008658264e+00
1.000870591049831448e+00
9.142235642407317009e-01
7.748170805572830444e-01
7.588613327642924622e-01
6.217097200367531773e-01
5.078617924182003973e-01
4.788345718530926942e-01
3.937471735592206201e-01
3.075654572299059697e-01
2.978012099662108447e-01
1.875600329927070431e-01
1.907055198061895773e-01
1.658793007379815720e-01
1.379979781109864634e-01
1.649636204802053252e-01
1.573502096477803480e-01
1.596998122478780757e-01
6.892848972423136489e-02
6.874568915459720875e-02
6.251260911263573083e-02
9.430514201465567403e-02
6.274082216028727121e-02
1.034284671202405498e-01
5.352396340676128517e-02
6.560877059313567627e-02
1.048065882425497919e-01
1.202760264355266367e-01
7.025913609586086073e-02
1.400253392573853894e-01
1.900695751135489941e-01
2.200456175879038356e-01
1.508042147409802136e-01
1.409284573491521031e-01
1.695957587248028420e-01
1.954468651783783650e-01
1.951147893976621917e-01
2.302159713380891315e-01
1.704141680206615050e-01
1.771557943363394616e-01
1.929951214427188533e-01
1.373246725788898059e-01
1.850258445837615340e-01
1.931492932613230185e-01
1.982389427922857661e-01
2.240252778762614194e-01
2.500488023406274851e-01
2.780964410688067101e-01
1.990772662464493359e-01
2.355802085424784365e-01
2.248568886895828123e-01
2.363881057828786658e-01
2.274178659010428760e-01
2.229230661563824656e-01
2.281250355468228685e-01
2.195868670960674229e-01
2.518707808854351859e-01
2.532851326935829928e-01
1.889483680290031942e-01
2.071041362718703815e-01
2.390155102048434343e-01
2.123930379131102053e-01
2.134853800838498461e-01
2.665842335071665348e-01
2.386017848857281964e-01
2.507194879306082202e-01
1.975162424115818327e-01
2.631205520615693683e-01
1.937506047543624821e-01
1.551057176424790462e-01
2.118072091475259044e-01
2.029505148152097871e-01
1.703093948569556204e-01
2.020731192564777234e-01
1.760389048225826647e-01
2.195141617813343715e-01
1.642646054470188466e-01
1.730527923945265611e-01
1.217329816734607911e-01
1.931780302313943209e-01
1.839712094472603088e-01
1.483520144673711183e-01
1.208302389390371878e-01
1.205115504385093766e-01
1.361465376339017486e-01
1.151077389877528945e-01
1.302036052982865622e-01
1.342657029058950957e-01
1.449386471419202849e-01
9.409422511439841097e-02
8.101988995265507754e-02
1.004247282974588817e-01
1.008677001805920737e-01
4.789980087245621770e-02
5.820402187722022169e-02
9.751852310755808328e-02
4.268884161476093481e-02
9.713616409907718796e-02
1.238742144954145530e-01
6.938949714188341611e-02
5.406628115464837125e-02
9.787104015258304979e-02
5.227737165307858036e-02
6.307813409133591898e-02
3.543928526245850724e-02
1.232864712071241320e-01
1.194353971875349724e-02
4.107678466627533165e-02
4.614571271784781784e-03
4.352431522549323611e-02
5.556778453719590088e-02
6.198973595852595546e-03
-5.322285948531390969e-03
-6.525378489806067314e-03
3.137366715855791771e-02
4.258771322780735558e-02
3.350028459425194449e-02
2.774236269734108723e-02
2.776780848104892091e-02
4.151104421139061029e-02
2.712953947690673051e-02
6.369102964277444101e-03
1.757849076455090045e-02
1.235963450679662332e-02
-7.429106078808476663e-03
1.156604741139535472e-03
-2.526329406398512140e-02
8.063432239960185988e-03
9.877467848775490014e-03
2.213681255990675167e-02
-2.533037286256713955e-02
-2.207644058170069035e-02
4.050327268664951491e-02
4.509966520817713931e-02
-1.618816177382465665e-02
6.704126756413894550e-03
-2.004424531926569941e-02
4.829591273395805739e-02
2.949112181108672071e-02
1.737392822168846301e-02
-9.758063614443181211e-04
4.904041154247187201e-02
3.224521969309768199e-02
6.007789247334596738e-02
4.697274925783963967e-02
1.479249109296288875e-02
-2.289704747525313222e-02
2.687034656095231913e-02
3.884826227490507239e-02
2.318234562785918135e-02
1.560112299066473453e-02
4.189221373787140046e-02
5.035484737922761578e-02
1.055319982790998111e-02
2.497582333467884483e-02
2.000551449367448525e-02
2.649455430793000443e-02
9.970855923085850114e-02
5.612189187299226889e-02
2.213457841247168725e-02
9.683962208913110548e-02
5.001984871609491123e-02
7.336111553572319255e-02
1.076976272252299915e-01
9.767912396539397968e-02
1.298312151752882282e-01
4.271652272043749421e-02
1.141305070751905404e-01
1.310810206648535536e-01
1.256003007581736330e-01
6.892137239206572175e-02
1.374229934908514084e-01
8.235381678603209687e-02
1.608969407682387942e-01
1.515917287597881302e-01
2.134364765557918986e-01
1.115474835260507613e-01
8.044151354699871637e-02
9.535001681782843963e-02
1.896578277740642027e-01
1.123440756353405179e-01
1.538014606769209092e-01
1.496988052909733469e-01
2.048118533915097295e-01
1.726006950651921557e-01
1.928053621502111570e-01
1.670105723262498010e-01
1.665851220704254732e-01
1.649529555026034988e-01
1.842900556560056746e-01
1.572477054183611389e-01
1.967576326467483372e-01
1.661985691758404438e-01
1.507943412966895047e-01
1.661941097474797235e-01
1.721350754560851404e-01
1.793626963269833452e-01
1.385585001303128450e-01
1.882004028160570441e-01
1.626691884561331514e-01
2.305131370953775183e-01
1.928537836504012615e-01
1.959017141956993502e-01
2.240916429245544128e-01
2.895178720080587298e-01
3.193559786172285864e-01
3.591104542730526594e-01
3.196591981984308606e-01
4.176918445884542086e-01
4.916413626357331035e-01
6.066591396073034437e-01
6.249271978156284435e-01
7.422760874425341493e-01
8.002281658017286192e-01
9.299676759375821167e-01
1.036522387089379382e+00
1.143839585932100000e+00
1.234979940580487323e+00
1.278141511610187964e+00
1.298046548108238829e+00
1.386675580135403374e+00
1.412545230681560682e+00
1.497990958683357965e+00
1.501673549077563452e+00
1.477467669555939889e+00
1.500112370623524649e+00
1.371064856679295785e+00
1.380909963302601184e+00
1.209668898338813969e+00
1.179602486005116191e+00
1.069072271091225046e+00
9.798327988166608549e-01
8.719713896218910243e-01
7.404828490798985863e-01
7.186608524754170002e-01
5.822210071949672772e-01
5.787245460123838781e-01
4.442067836982029894e-01
4.049369918881879915e-01
3.684377277083572544e-01
3.652081754562402360e-01
2.503919433186186927e-01
1.778835335687194708e-01
1.822314216963509259e-01
2.002810931504074854e-01
1.679906720599848857e-01
1.888874681571677816e-01
1.522706736974211716e-01
1.564264396377120780e-01
1.729326746033495732e-01
1.588956888565254133e-01
1.229000020549562144e-01
1.525296969440029793e-01
1.676392537595461363e-01
1.359857232984413300e-01
1.244815150722700103e-01
1.293857559324638473e-01
1.528762951203167519e-01
2.141216430957762484e-01
1.648120876199357376e-01
1.661759023772357846e-01
1.992061712400771956e-01
1.897391244035198654e-01
1.987528847502923746e-01
2.678265303954573406e-01
2.532145293422908283e-01
2.114470203843086538e-01
3.118783051527525552e-01
2.295442673016319102e-01
3.034320643024224218e-01
1.714000491995577025e-01
2.586964081703471696e-01
2.632326671796353934e-01
2.632247733846682092e-01
1.705762661033329297e-01
2.618691830579336077e-01
2.212182407242538063e-01
3.067354076716461986e-01
2.900050626678307153e-01
2.841121893937709753e-01
3.064343123282199377e-01
2.920796436677747243e-01
2.719468767967149203e-01
2.887103793259733209e-01
2.963420333088245817e-01
3.137570448634197651e-01
2.474754121169852328e-01
2.711577035548829451e-01
2.485283083066981147e-01
3.072828299778882499e-01
3.028591753147588106e-01
2.916446000487020740e-01
2.667705767290342589e-01
2.320391294033269936e-01
2.820928099327831839e-01
2.873422957657187360e-01
2.843143245495823312e-01
1.787107358994288187e-01
2.876391296086678873e-01
2.974398836498537979e-01
2.799423746239816380e-01
1.839564045772730527e-01
2.376250170186429145e-01
2.608177309874630256e-01
2.050128135873228452e-01
1.957694582227834657e-01
2.485819206081146260e-01
1.627616311987191144e-01
2.217681550303817195e-01
2.307175879287317044e-01
2.023348603184831895e-01
2.092461743605524838e-01
1.990574477177476376e-01
1.872602350431847862e-01
1.556323470784677920e-01
1.806160542813322889e-01
1.826080368778085494e-01
1.883312529212685105e-01
1.871825940286961643e-01
1.738460185396935864e-01
1.877023686271920289e-01
1.469734649245937330e-01
1.203150188903920059e-01
1.624697725705966656e-01
7.799178051087407582e-02
1.010615841429292894e-01
6.084452843449618398e-02
1.037524617568456597e-01
1.179732552846525923e-01
1.022072984534662388e-01
7.584021815938649103e-02
8.030061627730983309e-02
9.719613887650871420e-02
1.395814888942548404e-01
5.604976690828729347e-02
7.113923997684820644e-02
1.307566824847981313e-01
9.140453917511330573e-02
7.442521144134690847e-02
1.152925986321984148e-01
8.641630061159201459e-02
6.206781958035958308e-02
1.309076906180961786e-01
9.799126515184128361e-02
5.199712386102758876e-02
7.326943352200682158e-02
9.744189121753946137e-02
5.841223282992991095e-02
4.988717610899286170e-03
7.625750993395231936e-02
1.088089725657128137e-01
6.580390644682607149e-02
7.162550965189960761e-02
4.072244586967259383e-02
6.230453008843807317e-02
5.795688810540614022e-03
9.248165475655129031e-02
6.346549754962999002e-02
3.313263945874578287e-02
5.678376603184621257e-02
6.658674858284742426e-02
6.816212112155631275e-02
6.191608885059631667e-02
1.028546593456906716e-01
1.058847697929701792e-01
1.115856568651227149e-01
7.397768609110119686e-02
1.111952351255183352e-02
5.335335576824599274e-02
5.565581523510174794e-02
6.324664778058755599e-02
2.645861484820710013e-02
9.418310179550616612e-03
5.759967058665019235e-02
7.536402480136671078e-02
6.250823621426308818e-02
7.245048850541632723e-02
9.170442393144744020e-02
1.114355695741504337e-01
7.998314519347750340e-02
7.316275313943411407e-02
8.795627382013428142e-02
6.010598642119847901e-02
6.698648126259179603e-02
1.259022772070522711e-01
8.806047024979932192e-02
8.155928775696780209e-02
1.094487641342700573e-01
9.536743094341745830e-02
9.483885326066368582e-02
9.527838061409645010e-02
7.671290632714139468e-02
8.281487438929681366e-02
1.424401666318503845e-01
1.413175517134638848e-01
1.683340219814955518e-01
1.009248609265742391e-01
1.502368765409465290e-01
1.612697611026520650e-01
1.455377079741723700e-01
8.262000576347948433e-02
1.810248950684804070e-01
1.613845655746625751e-01
1.590618634599070824e-01
1.454619059378510493e-01
1.951437067929440716e-01
1.716273185517530608e-01
2.623178042163227808e-01
1.855877553141320468e-01
2.228536713904732958e-01
1.994615970350381295e-01
1.747332610872979752e-01
2.219729769726888624e-01
1.627933415936100581e-01
1.756373957529081542e-01
1.938149225535854003e-01
2.102795774635806691e-01
1.527692968550473096e-01
2.059876382547785045e-01
1.797285869835319183e-01
1.973173198342859092e-01
2.014637791075615803e-01
1.695135171400889706e-01
1.786747368305842132e-01
1.599188163506974070e-01
2.126091800323945402e-01
1.785725726248892642e-01
1.971140880154273467e-01
1.234698206949931265e-01
2.079042375844987744e-01
2.640164002713553115e-01
2.493202493280316512e-01
2.390172580263752733e-01
2.780143587881111489e-01
3.220953549880630207e-01
3.759860960640939442e-01
3.909536351733616244e-01
4.691610279077837453e-01
4.717251347158371577e-01
5.389124926953776651e-01
6.581040198396567176e-01
8.259250188508794333e-01
8.255076029880517030e-01
9.615033142937722266e-01
1.106690954861416998e+00
1.120684074117522799e+00
1.239258481722005811e+00
1.301849180833077435e+00
1.345018778288348482e+00
1.429065744149550454e+00
1.460982921242982790e+00
1.483118980274840348e+00
1.422698324763386202e+00
1.445189563715760128e+00
1.430058987943367610e+00
1.422353846730004312e+00
1.351240054176273020e+00
1.280466651212806006e+00
1.171958777999948742e+00
1.113229542517592430e+00
1.045598182945091992e+00
9.337831541998325990e-01
7.881055099975724509e-01
7.197375389367357545e-01
6.639208075195712766e-01
5.575871867800858972e-01
4.502511790612320208e-01
4.035271698836943033e-01
3.242111166285316926e-01
3.013005855742943440e-01
2.849169164125676668e-01
2.211684467073579963e-01
2.270139161625798763e-01
2.069385331518560078e-01
2.034150880731776800e-01
1.863511308538688682e-01
1.841322284896104167e-01
1.348309911333229749e-01
1.522172791659632263e-01
1.696974923270040125e-01
2.163410328530918081e-01
1.925918911610809692e-01
1.563452708724242801e-01
1.583613535195819155e-01
1.964176780826631941e-01
1.831304826518925233e-01
1.881189425099615009e-01
1.791457160393964687e-01
1.790620138066829625e-01
1.768628159973367753e-01
2.382318826763910324e-01
2.226681312615545472e-01
2.004885637636706908e-01
2.279483666624135541e-01
2.219200571841083713e-01
2.334202675746825939e-01
2.394098186857039345e-01
2.400801791719346101e-01
2.431783195906089545e-01
2.654964133870693077e-01
3.055104183870704926e-01
2.422584675920713415e-01
2.083324705720865921e-01
2.563051292387579783e-01
2.898502431940190860e-01
2.832142628976297982e-01
3.002059285618902118e-01
2.530683779676792255e-01
3.217139019039673697e-01
3.090115913385704793e-01
2.354620814073584978e-01
2.406463826790388727e-01
2.950665343690408449e-01
2.982387641607093243e-01
3.290088601793195733e-01
3.320215036377814899e-01
2.442494551841495609e-01
3.036290277954313277e-01
2.937778671254832608e-01
2.783807427875981122e-01
2.462930805136516743e-01
2.111587295702176126e-01
2.973503136774425237e-01
2.591207475324616150e-01
2.716795433924440450e-01
3.103089327483869453e-01
2.716780800481655711e-01
2.214148608292906273e-01
2.744457600742917780e-01
2.694459636341659525e-01
2.829889939888184935e-01
2.695176565192601292e-01
2.339828122733288995e-01
2.646602399142418127e-01
1.983555559286490633e-01
2.120751264445216444e-01
2.203407358505794222e-01
1.876240732373182785e-01
1.953805542967471387e-01
1.509174306375933861e-01
1.966256421777385355e-01
1.971417975253637045e-01
9.228101116245326918e-02
1.485686354682939359e-01
1.805654962752948900e-01
2.051595046829712554e-01
1.888016715809217594e-01
1.373386300098766166e-01
1.389767687099045801e-01
1.162961478570840174e-01
1.036374840679733511e-01
1.518179031005494062e-01
1.126546453751072763e-01
8.716390555002923035e-02
1.663857814571209903e-01
5.367993469167880310e-02
9.981647318227904186e-02
1.466848216753728895e-01
1.324289069648761918e-01
1.092241604051910897e-01
1.241950660407894202e-01
6.547676481284446515e-02
6.250819712392456651e-02
1.019480666969542204e-01
1.134879166390295041e-01
1.224889147710135351e-01
8.063865435160674777e-02
6.201464826743030567e-02
8.051151847572536602e-02
2.186651220761703235e-02
4.483380403556321003e-02
3.177315378584619904e-02
3.707287904550977953e-02
6.322513503822338454e-02
4.776707123426492119e-02
1.310239942752660924e-01
7.005855518993493736e-02
6.869307632209598058e-02
7.567269999388911983e-02
1.386649261927318938e-02
2.823297396307778567e-02
4.433781043140391787e-02
1.803289797180709919e-02
2.948067235123158492e-02
8.317626003526357170e-02
1.493732408102686413e-02
2.581145282489021031e-02
1.113768147014136123e-01
8.230088601345630916e-02
7.480924983728579059e-02
3.542339258686245246e-02
-1.642574634894469060e-02
5.182907778745453331e-02
7.565240891306901361e-02
1.937865497696040010e-02
-4.229013078970566414e-03
4.061021954169242998e-02
5.748517249381157601e-02
3.401448657248550694e-02
9.124381119768384951e-02
1.785902867282368120e-02
1.524267429043330013e-02
4.801655512597215875e-02
4.725207409228637107e-02
7.787917330580670927e-02
3.202584521625958386e-02
8.703628812795487224e-02
9.849734952777450259e-02
3.618826762962367577e-02
8.405308902415012384e-02
1.084997899078041922e-01
9.773177751797575141e-02
2.495334753174523537e-02
5.289755224079287221e-02
5.856023985815876631e-02
5.205534801821773416e-02
4.705175301173340763e-02
4.133211083439916611e-02
9.617874407799678615e-02
6.469657102320727771e-02
7.290664545228960070e-02
1.218243069668514950e-01
1.164308279171583638e-01
1.304161241671010496e-01
1.207665064167261215e-01
1.151060702184125012e-01
8.006133589238792481e-02
7.392002158800672906e-02
1.254568090101201849e-01
8.896092622606087408e-02
2.313662292089639638e-01
1.659774541134896031e-01
1.531825649090154395e-01
1.455878624729129434e-01
1.871248013915631503e-01
1.863971336571250137e-01
1.290701329473299963e-01
2.059795484147422528e-01
1.301242427514886224e-01
1.262791504520984764e-01
1.852652370050557884e-01
9.811720832347617383e-02
2.164668455736075969e-01
1.789555955787906494e-01
2.099883253262832539e-01
1.294532252390417915e-01
1.852028079458008514e-01
1.756716962234866064e-01
1.345403290258103401e-01
1.761455997858017153e-01
1.563175194640030463e-01
1.333356039291778428e-01
1.662634054455447152e-01
1.192031983784971050e-01
1.427391175151273006e-01
1.458187799851912991e-01
1.603365752968679281e-01
1.297196522859201673e-01
1.591897510909915381e-01
1.934616469999594079e-01
1.816654682743802374e-01
2.112694482641777061e-01
2.048754260881648082e-01
2.697356824380345297e-01
3.557153938643535240e-01
3.194059213246286388e-01
4.106686140252084338e-01
4.647005197214502115e-01
5.788822659473623622e-01
6.572032355385430957e-01
7.320921618109736961e-01
7.842310902947394746e-01
8.856742192628691557e-01
1.036523265107555991e+00
1.092771161338806696e+00
1.142983808949533442e+00
1.280308159399713652e+00
1.313118485799527946e+00
1.357459991739684346e+00
1.392570159670454943e+00
1.445545081974956902e+00
1.452132698730977278e+00
1.432545528769449295e+00
1.432641559018020150e+00
1.337778563853079916e+00
1.262963278738711947e+00
1.280706289108301865e+00
1.139163633474136628e+00
1.020121409577331661e+00
9.611811650122765727e-01
8.410582020951656856e-01
8.372924489960892336e-01
6.427174973865811269e-01
6.091440920760617939e-01
5.108672928070019381e-01
4.569166676849977238e-01
3.534061690860750282e-01
3.316308557288608072e-01
2.761446183745729921e-01
2.183675615807842418e-01
1.911191131481692895e-01
1.857994995342722444e-01
1.656196002013575197e-01
1.347094168461610286e-01
1.386460951053574975e-01
1.390082205561925244e-01
9.871399709173048209e-02
8.644689036324995635e-02
4.521252828846719640e-02
1.063400405416353445e-01
1.456310346322071125e-01
1.494825928153304118e-01
1.407572789722189854e-01
9.477113023497153732e-02
1.558195541749359536e-01
1.297388294040908441e-01
1.825759707015665589e-01
1.531134896343503971e-01
1.530469072110689499e-01
1.864740771279374543e-01
1.969343224601970144e-01
2.050016656532009929e-01
2.040046205582071726e-01
1.861985631725217305e-01
1.828646187797110523e-01
1.929180412472560613e-01
1.320536425424663207e-01
1.748492760509698651e-01
1.912095727196188588e-01
2.429540683892928987e-01
2.297590106329767123e-01
2.819305450607237917e-01
2.322432981651007811e-01
1.951992835003301952e-01
2.649583399704757980e-01
2.689604539907403113e-01
2.531491843221438942e-01
2.268160662179776188e-01
2.925264155265655530e-01
2.680783770930866838e-01
1.886719833115422518e-01
2.954299669396460160e-01
2.615076257539519222e-01
1.592094918694912931e-01
2.844298960360248651e-01
2.808304776011019688e-01
2.408102889221744869e-01
2.285705496439817963e-01
2.564987729640768044e-01
2.391490607797664703e-01
2.994710461997006079e-01
2.430617041375241760e-01
1.950000671694006593e-01
2.093279349955244062e-01
1.906519311831895436e-01
2.065732989369768180e-01
2.649840870094081757e-01
2.057335261101082002e-01
2.029788534461710592e-01
1.941895813015481198e-01
2.253097131038557244e-01
1.356687414657830049e-01
2.255171138412938592e-01
2.042928775353841375e-01
2.168239581264825855e-01
1.538701499348536228e-01
1.868028865864617694e-01
1.649778605271020326e-01
1.538147437792016514e-01
1.429656454213344974e-01
1.442637353660697341e-01
1.373276634689179487e-01
6.561392236194238392e-02
1.009325591365986541e-01
1.186337003485346542e-01
8.808007488779745486e-02
1.659586796390508656e-01
9.230467521481890147e-02
1.448202368238030446e-01
1.350758784806577184e-01
8.474784363585610714e-02
8.581645191829659347e-02
5.514331557969939096e-02
5.010766939724758950e-02
5.110331197705086231e-02
8.099380287497315312e-02
3.899730569601567165e-02
1.166403991741615451e-02
8.711341684832735188e-02
4.526607154519016185e-02
7.732373035036443215e-03
6.451531746536759426e-04
5.430619691847915487e-02
3.064028151442994147e-02
4.334909461939380482e-02
1.054215469775079961e-02
-1.076258180750665899e-02
-3.048424153196352404e-03
3.177657778556249729e-02
1.099167955666940227e-02
-1.457204106633926480e-02
1.322939105217104533e-02
-4.983620705921268379e-02
-5.619165092305401787e-03
-2.572454779440069145e-02
4.468857617022081730e-02
-2.300084975769214890e-02
6.229639117824862377e-02
2.554355907407483695e-03
3.405233760548481703e-02
-4.831430884928748781e-02
1.922165158208036934e-02
-1.089405029251207246e-02
-8.230839431057936084e-04
-6.662504325284413637e-03
-4.001706246029319847e-02
-1.053307827949272885e-02
-3.865289019723668063e-02
-9.268054847143308156e-03
3.566908313667304514e-03
-4.521284574228735115e-02
-3.863690729965416765e-02
4.332782945987337375e-02
-1.368344812272912631e-03
-4.347464342639602991e-03
-4.901294011440440052e-02
-3.386774744664886039e-02
1.905094129037664813e-02
-4.143729495393991963e-03
4.887307963631487562e-03
-4.561895407376682920e-02
-3.426893712433896899e-03
-6.973954123232854740e-02
-1.036215617557669222e-01
-3.850248047279049290e-02
-1.347792656898997958e-02
-7.485790847628289585e-03
4.605290471755323078e-02
-3.007706447600302577e-02
-5.835223335718175974e-02
-4.008452492201792366e-03
-7.415624460930790585e-02
-4.667255885270429894e-02
-7.755753990883483551e-02
-3.534605796993042781e-02
2.227837195432592204e-02
-3.090180435841865386e-02
-2.877953160860156553e-02
-5.540621314003047609e-02
-2.656261271923381073e-02
-2.998617845813824484e-02
-4.863970782896309686e-02
-7.893029360132684802e-02
-2.873641123596411273e-02
1.897726205884554818e-03
2.557751449738832061e-02
1.915524194159797661e-02
-3.751714943461848667e-02
-5.812562873803529817e-02
-2.218866909986932923e-02
-4.638353582074904863e-02
-1.286901585776902349e-02
-4.443212017135031444e-03
-5.713889044213767143e-02
-8.111858906088897925e-03
-3.506250995098570550e-02
-3.233381561016018119e-02
-6.035377974436437892e-02
7.350566436343179688e-03
-9.040183460616874056e-02
-2.892584316364049321e-02
-3.642746366232909455e-02
-4.933637715349534908e-02
-3.763224829414406336e-02
-8.030321801180431707e-02
-7.407075888349526349e-02
-4.355500480986750772e-02
-7.188486492105047865e-02
-6.391837474592618196e-02
-8.963260598416854935e-03
-1.804141231692459046e-03
-6.466523748569538710e-02
-6.907547917008265148e-02
-1.147930650631521221e-01
-4.307151880258616033e-02
-2.034791406739857797e-02
-5.963863653485410726e-02
-2.769449534590489453e-02
-2.365028001977415723e-02
-1.108158787044171562e-02
