1.283576430034675253e+00
1.300329304456240953e+00
1.275790078638385561e+00
1.247928210885687950e+00
1.223457963386368696e+00
1.183653284251891868e+00
1.039332171731670806e+00
9.693621959869233029e-01
9.037130703301707868e-01
7.579507162326606373e-01
6.885593124024729228e-01
5.783020570624767265e-01
5.596812163938047480e-01
4.392155295691256289e-01
3.898875267176991066e-01
3.874898090690328534e-01
2.544905780969134446e-01
2.209640878917594198e-01
2.061321844935627701e-01
1.875470676833198014e-01
1.121865403579960785e-01
1.192380896550392366e-01
1.180613702216962158e-01
1.026101729722863898e-01
6.169847688282741049e-02
6.306803183311664174e-02
4.465537661543939052e-02
4.507809465905188856e-02
8.030718118612922840e-02
8.002763496211284799e-02
2.392120903972530521e-02
9.467931668021989378e-02
9.922212932715494815e-02
1.120261513678964121e-01
7.942326547103117917e-02
4.028159562715892539e-02
1.572749898725293027e-01
9.703772072571240082e-02
2.196757070610092649e-02
1.312088557264740052e-01
1.526158209558112211e-01
1.033976744690508626e-01
1.557740098503830328e-01
1.484158827425590133e-01
1.471626197632578958e-01
1.349914600161112033e-01
2.109240426703430371e-01
1.579766243424695071e-01
1.955753225460102052e-01
1.547697306259812888e-01
2.076352864947877686e-01
1.869398872238450249e-01
2.372454329624467118e-01
1.696986653508149312e-01
2.060856427649080114e-01
1.788792653235025676e-01
1.538929925235521246e-01
1.722782888932758161e-01
1.799889648974478396e-01
2.514275702341188801e-01
1.928660017656611547e-01
1.900231263520558989e-01
2.312124526162734062e-01
2.646132343257995290e-01
2.307812942823128377e-01
2.417050730556097038e-01
1.736249108304005750e-01
2.015242586693052340e-01
1.243013313616877225e-01
2.427978418627322887e-01
2.022651106046419456e-01
2.125728798193854130e-01
2.403600360845033201e-01
1.600847248433822367e-01
1.785458125509570282e-01
1.572585118828397355e-01
1.980062681769980126e-01
1.906963441899759415e-01
1.803219361380666297e-01
1.574359096500583255e-01
1.641245454027124295e-01
1.234817595321663075e-01
1.624799470505300381e-01
1.664589184583793458e-01
1.144611700470433702e-01
8.244540575300743357e-02
1.653236791357305391e-01
1.577504419890113918e-01
1.170908136407320388e-01
1.126809185486966625e-01
6.525891956691742823e-02
9.678667430949969286e-02
6.323222483267057492e-02
4.860087062388106227e-02
9.060567875901354151e-02
1.213058568680428773e-01
6.302192371574159846e-02
1.983789218898653062e-02
3.885781792010653546e-02
6.473734620976609455e-02
1.009465351448327886e-01
-3.493186905721151758e-02
1.505584042077899587e-02
1.618621313534305411e-02
-4.049241402597485162e-03
2.263775633626968764e-02
-1.746017192307990767e-02
1.052683444294359033e-02
-4.863781212228065337e-02
1.632648520920984558e-02
9.454235922686682336e-03
3.036122566043571863e-02
-1.594233194882999083e-03
-3.026986562699879660e-02
-3.374166888814301990e-02
3.173544763538906077e-03
-1.031126841216360723e-03
-4.099778022357102036e-02
-9.771448993739095812e-02
-1.259983354938963573e-02
-5.463118193267101769e-02
-5.142553415821873863e-02
8.225490246771556546e-03
-3.383160740469974559e-02
-1.659752164338455793e-02
2.927583972119204847e-02
-1.977931999555859743e-02
-8.895336161507727546e-03
6.088931058431952537e-03
-1.901866375236219500e-02
-3.703509918985915805e-03
-5.993078106600206734e-02
-7.002706529441884986e-02
-3.357568856784068356e-02
-7.872019294139843970e-02
-2.152393022697873803e-02
-1.998544877240975015e-02
-1.052427853702524313e-01
-7.333645550040138184e-02
-5.381633394339448845e-02
-2.908553012674883892e-02
-2.291138612692936172e-02
-1.083775935570558263e-01
-2.919075270916937637e-02
-1.473291401397504308e-02
-7.018523666361063673e-02
-7.646401002681879611e-02
-6.426047557598542348e-02
-9.131788644950389333e-02
-3.553677049832283663e-02
-5.876419013548713627e-02
-3.833632750426236441e-02
1.857632398278186159e-02
-5.489836089348262838e-02
-1.365583445087883985e-02
-4.572816809531082133e-02
-7.716322884232802715e-02
-5.415693467620947416e-02
-2.770788413917742166e-02
-1.343093589775613134e-02
-4.547298412449005817e-02
-4.508523533172760500e-02
-2.693216888448544608e-02
-1.096992512049112245e-01
-9.096095569012717375e-03
-3.695269223319151697e-02
-6.382030298269486535e-02
-3.831185249157718908e-02
-6.292264925653742735e-02
-6.369638829189615270e-02
-4.486277087550766263e-02
-3.250912052572133698e-02
-4.833983972528996947e-02
4.496488189221159448e-03
-9.087084861129512969e-02
-6.794817751826498498e-02
-7.585317073748412686e-02
-1.407392980641616886e-02
-4.475710652067720063e-02
-5.372398173001049354e-02
-4.132822787735282444e-02
-5.119950753257209580e-02
-2.361822529295394546e-02
-4.597982357862963332e-02
5.675765619665693040e-03
-1.451599850548211668e-02
-1.122266511377909698e-02
-3.129797204688622436e-02
-3.183547438694304260e-02
-6.642777911112882072e-03
2.122645227759691056e-02
1.135247007574462924e-02
-3.020950744123444831e-03
1.837709129882495601e-02
4.835462808146249319e-02
6.191916076976964473e-02
2.572658128568623692e-02
7.561459101348114165e-02
8.646526393528308763e-02
6.698105911974014393e-02
2.591901552128228481e-02
8.199417206948392267e-02
4.443695383837843044e-02
5.857730428565158937e-02
1.119322685239049625e-01
1.015019838548234105e-01
1.086628769961509311e-01
1.312078040505900434e-01
7.524519955195389798e-02
8.584199556817107002e-02
1.486054349622099036e-01
8.795152098978514799e-02
1.319238126304406733e-01
1.323568622526171135e-01
1.239073665749033937e-01
1.098153233891673575e-01
1.505193928442413731e-01
1.138793256972559786e-01
7.003712955623585257e-02
1.208414154322755285e-01
1.089711244515707833e-01
1.020806586964769502e-01
8.219999324581697686e-02
9.159849702773574520e-02
7.816246093618506308e-02
7.685613314640146743e-02
7.552568541787946232e-02
6.779889327156488066e-02
9.100461669430684464e-02
1.037045094796896910e-01
1.133812519309841949e-01
2.038812836148634622e-01
1.936259578060001707e-01
2.571627695837899186e-01
2.268187026252408978e-01
2.706537479105317612e-01
2.938440800453088753e-01
4.133653631270681750e-01
4.609325595834958822e-01
5.972716147148235954e-01
6.100619760984469231e-01
7.105817625388199943e-01
8.700376709514596740e-01
8.923208196722943741e-01
9.667572864998454918e-01
1.098079281186757683e+00
1.149715987720740573e+00
1.221030827567387567e+00
1.277497382456324049e+00
1.342664960291779508e+00
1.273391819788332269e+00
1.283585592816867571e+00
1.302417117939526747e+00
1.313722032376347659e+00
1.242075486334591750e+00
1.116120770818396002e+00
1.107036213649764678e+00
1.069443873184359184e+00
1.020613131514404026e+00
8.706693453362664981e-01
7.316034121645298427e-01
6.772040764656807044e-01
6.154249518228378513e-01
4.862234261436367833e-01
4.113849518187967513e-01
4.301147831415382261e-01
3.276491753944746899e-01
2.918217873657627526e-01
1.462199357000588951e-01
1.397170146715402683e-01
6.110955299076484271e-02
1.173531149502793358e-01
8.462297665550330694e-02
1.067555093689569190e-01
9.721964066969859819e-02
1.138638028029398397e-01
1.042445394397270853e-01
6.881198647761707643e-02
1.093820925421383483e-01
4.912914685336592507e-02
8.565565801215724306e-02
4.949042064498070798e-02
8.628644286685441256e-02
7.954616518599522124e-02
1.447545332680960084e-01
1.278253833256198513e-01
9.624597900775273829e-02
1.094199583163840694e-01
1.224615402733915392e-01
1.179958502253421748e-01
1.317271013747768615e-01
1.570654860333501879e-01
1.259528173270919038e-01
1.421242811905863157e-01
1.670985286606889164e-01
2.181291045685591901e-01
1.790556543325327321e-01
1.830436084260657625e-01
1.913038756570799581e-01
1.500350435409659733e-01
1.863372780796848927e-01
1.563338638278394810e-01
1.950500745449481599e-01
1.560882306949576415e-01
1.873516469444491406e-01
2.545967060501982404e-01
2.287991308699476312e-01
2.324767068917959478e-01
2.237288830626630587e-01
2.560098836363232100e-01
2.691148241455107448e-01
2.082146004225065572e-01
2.461673558025141706e-01
2.338047436627954945e-01
1.356276912490963493e-01
1.851178760131730883e-01
2.722407972677531318e-01
2.777963465921262642e-01
1.823237708215741937e-01
2.064636043282869760e-01
2.744390402286166486e-01
2.101077596314397111e-01
2.273275736848258399e-01
2.559607731751039617e-01
1.868669885461166635e-01
2.471182485689543962e-01
2.272137555299861000e-01
1.830055307859010938e-01
2.030728331411222609e-01
1.639678706251337936e-01
2.078319595656135665e-01
1.967892934118387893e-01
1.468126457783995309e-01
2.071898732089650641e-01
1.491119226264362718e-01
1.102668803133824982e-01
1.148400697831847700e-01
1.350960170915965208e-01
1.437266252831294333e-01
1.355369838390064752e-01
8.228221668042326464e-02
1.236973496697005848e-01
9.285980354562821393e-02
9.033601811264083126e-02
9.622624300186591317e-02
8.977943273680324965e-02
1.243895523164133682e-01
1.294219100737643013e-01
9.693421225719943413e-02
4.750542843003913163e-02
4.363300249010128307e-02
6.481330594616589724e-02
4.411543915293149321e-02
8.102031207507938426e-02
3.561015970745003839e-02
5.250747013873714730e-02
9.152879654658624409e-02
7.538638936295229132e-02
2.561616561366299866e-03
2.338451606217236203e-02
3.713936661344979795e-02
2.755171025114422356e-02
2.594774061540540758e-02
-5.267182295695782557e-03
1.898755898671160985e-02
2.801467879338203487e-02
5.587864947473449029e-02
7.465508804293069511e-02
7.941313209721145849e-02
-6.891497626325860867e-03
4.160474068264666259e-02
-7.054306170285655139e-03
2.843995429091842470e-02
2.441607860933816404e-02
-3.548374871752502796e-02
4.878766801569934392e-02
6.432473297921585675e-02
-1.582531776573556370e-02
7.542856463761925256e-03
6.142062878753520166e-02
1.968593920920971158e-02
2.088310007056330686e-04
9.968919767023201595e-03
3.031356924122867447e-04
3.557094326438309251e-02
4.383083456643556419e-02
-3.542476816712940291e-02
-6.861221661989186371e-02
-3.740689394958107705e-02
-5.378385002839472517e-02
-3.128697985520565925e-03
3.084737065418584334e-03
3.346676789515834471e-03
-6.330660770863946740e-02
4.458935975024770626e-02
-3.148620925720373165e-02
-2.273477340306909872e-02
-1.836210763879551205e-03
9.457151221493180146e-03
-4.476568147332724359e-03
9.987174488833941779e-03
-1.057803236561816532e-02
4.354192342855165571e-02
-6.296555483653004659e-02
-1.093480595956241794e-02
5.479108652560541609e-02
-1.800248817296370984e-02
-2.447356023939849939e-02
-1.690016776885423094e-02
2.765663517585992964e-02
4.157370455896433614e-02
6.021771170084202346e-03
-2.627054364727623992e-02
-4.314186653083024181e-02
-2.406302547258316188e-02
-2.710686923195953016e-02
5.655875505754847515e-02
-1.065800121194564014e-02
-3.612612099867888726e-02
-5.498590337528946187e-02
1.197168156317553710e-02
-1.263428744776059001e-03
3.317240112708609578e-02
4.584323135678513086e-03
1.380966106482245555e-02
4.093341694824880611e-02
1.870450412442825616e-02
6.275848334800099640e-03
2.522593242955358320e-02
4.964158951450220458e-02
2.763675507889202035e-02
4.097261198371544150e-02
-1.326651671919506885e-02
-6.718504213394347474e-03
4.514977390412879682e-02
1.486500568782184520e-04
4.074574869847846087e-02
4.141878248023912051e-02
6.245691719412012344e-02
8.652216961920519700e-02
5.285975025900428032e-02
3.379279396317064893e-02
5.565768844347601663e-02
9.690941613687778511e-02
7.431418832676887909e-02
7.510994729802789038e-02
1.188031581380969010e-01
1.356577056922500801e-01
8.260562823984321512e-02
1.109846129250834923e-01
6.861201110604168985e-02
8.593602669427846674e-02
9.423018100777172390e-02
1.014085365860951521e-01
1.513094669314993812e-01
1.372317957001651378e-01
1.256675277896754928e-01
6.839316874734314988e-02
1.806584445988339005e-01
2.229173855984019070e-01
1.367557114408536334e-01
1.382646646718104499e-01
1.270527029700180555e-01
1.143845656547260031e-01
1.903714316761285774e-01
2.052866556729296688e-01
1.802644442314944029e-01
1.302232868027517199e-01
1.657139165525643165e-01
1.392606624810611704e-01
1.884207549665430914e-01
1.892641032933698453e-01
1.020479245950523112e-01
1.490694981435632949e-01
1.898245242715900227e-01
1.229892508942504875e-01
1.713733546112551354e-01
1.631684743145598027e-01
1.869854407912392991e-01
1.022436613121875532e-01
1.630816540470951259e-01
1.904437193037464560e-01
2.650976864985702952e-01
2.187014406351404650e-01
3.071268093555681311e-01
3.461109652967892525e-01
3.455091459182795255e-01
4.119707170432484467e-01
4.551515296741270866e-01
5.844256174486816002e-01
5.774365982376661321e-01
6.436283359084357114e-01
8.727695222088113214e-01
8.675253074222439853e-01
9.277845953166791171e-01
1.108802361734782416e+00
1.097040280016675196e+00
1.258477302968784572e+00
1.303958484358580083e+00
1.325543011175876140e+00
1.326264286044789742e+00
1.368992283330314974e+00
1.346126312098531841e+00
1.356919991587341556e+00
1.329812708434854995e+00
1.220188351387755388e+00
1.207727800368628035e+00
1.125239240203964597e+00
1.091421678121413885e+00
1.003114858228706829e+00
9.014273527299223598e-01
7.609694610365893563e-01
7.480562250956742654e-01
6.305420270051534937e-01
5.215506291429270469e-01
4.883521836114679826e-01
4.048861897954852962e-01
3.507200110188708475e-01
3.051133577681055531e-01
2.294586879279928993e-01
1.613821142542473108e-01
1.847369226642051887e-01
1.183137934588390366e-01
1.512518669697790197e-01
1.790755934155678353e-01
8.083894733343520433e-02
1.587527777664103079e-01
1.635480416799327263e-01
1.249115691227691421e-01
1.297988739742158004e-01
1.440773386235661147e-01
1.260150319488275716e-01
1.341525769478365271e-01
1.792877984028031224e-01
1.179894152444992406e-01
1.498599038697027430e-01
1.412370066800070489e-01
1.781212391129667061e-01
1.323378107063416798e-01
2.018534406651391055e-01
1.572790015613836356e-01
1.952917511207473145e-01
1.677644056150608409e-01
1.836865816730969825e-01
1.786166254169149759e-01
1.948087010535472507e-01
2.281519417844308784e-01
2.656611415308973156e-01
1.783418767354761347e-01
2.436898661276997169e-01
2.246394695023772592e-01
2.586208943711282293e-01
2.668589280849421597e-01
2.202584303108288399e-01
2.602461911255723459e-01
2.363641060296156060e-01
2.569494553245932345e-01
2.935702209174381183e-01
2.896140895014939765e-01
2.650802206672334127e-01
2.960401107442632851e-01
2.762470110629212661e-01
2.438443996876444864e-01
2.825012048982566415e-01
2.619082467477644727e-01
2.948999468650631561e-01
2.866873143797926682e-01
2.573357165256573431e-01
2.311402533005889881e-01
2.875314194710536508e-01
2.834205443955723491e-01
2.856522882194482693e-01
2.590907321702553556e-01
2.538252059833329133e-01
2.436634663503969289e-01
3.115781361378933134e-01
2.292841085511598820e-01
2.406970689899531335e-01
2.727570969440694104e-01
3.005209827818641766e-01
2.523616320427149451e-01
1.611763032251635197e-01
1.935150679950549679e-01
2.187648060191401678e-01
2.499738319316907043e-01
2.805393727883557786e-01
1.907633765202459974e-01
1.496360995729208720e-01
1.777577844241411131e-01
1.902584166574298186e-01
1.500848682553352909e-01
2.196492135407299151e-01
1.588766225790768649e-01
1.742768813428802466e-01
1.593408700221208008e-01
1.880243063557869021e-01
1.652351422137301740e-01
1.285597353082194583e-01
1.516910855766973598e-01
1.523773178670587980e-01
1.497935730630739759e-01
1.485259187237546186e-01
1.147445588923825532e-01
6.949868602003664297e-02
1.012932593102362500e-01
1.265663844388179027e-01
1.108170465628516566e-01
9.769927857027757567e-02
1.081566834237907559e-01
6.926572162498970120e-02
6.586419091670227266e-02
7.339999494382715151e-02
1.399463775617132422e-02
5.970177216204958226e-02
7.107688499502783086e-02
6.614114697857795266e-02
-3.308505701813443944e-03
4.312653019472646732e-02
6.877514627329225916e-02
5.280525023784372884e-02
1.665823192196694280e-02
7.039426335033452387e-02
7.978957781305251462e-04
5.181046604258511545e-02
1.214011930306888379e-02
-1.265435551246291146e-02
3.751231857790489344e-02
5.898254676638657601e-02
1.634445739195536373e-02
6.531539944522618546e-02
7.556757147881269787e-02
-1.215191324352105084e-03
3.811790363535220300e-02
5.474473048220100668e-02
5.147974445588329728e-02
3.422837827962615237e-02
5.364362117687625914e-02
6.548951698295255031e-02
1.100983524827398030e-02
6.977578079544258238e-02
7.471607867503618494e-02
4.414941851361173925e-02
1.089091880096960258e-02
1.032781283147812396e-01
1.910548417772808469e-02
7.898380686786848903e-02
8.603696606022324944e-02
1.074535855589135377e-02
5.364237720824992228e-02
2.034268490584231759e-02
7.635802527145868490e-02
3.390563187099701614e-02
1.099592618312032755e-02
4.072287731073506722e-02
3.392571665699761069e-02
-1.234279019590514559e-04
8.531957918009974717e-02
1.924996604465104011e-02
1.329794256538816694e-02
4.949076554492612412e-02
7.921153843610490020e-02
2.184186932613662105e-02
6.029675235683477214e-02
2.671293985777746516e-02
3.277511147459180596e-02
3.722164993498155300e-02
2.606366397013168759e-02
1.233989787385109810e-02
7.042509431373018824e-02
5.620244520366551866e-02
5.407808441294417040e-02
5.632522153641623952e-02
-3.434533858628678604e-03
2.701503727929377430e-02
3.740758247476311249e-02
6.135700838933479118e-02
8.557323244917994232e-02
5.033229620434745422e-02
5.329474655242570635e-02
6.208313496402521892e-02
1.087596776543523769e-01
1.071735048381577404e-01
1.075491412253033185e-01
8.698946501721024904e-02
1.280074568722476269e-01
-5.229943431225708705e-04
4.705843443334267046e-02
6.570083227645798218e-02
1.092361598063239514e-01
1.538625019858406995e-01
1.338845238496286782e-01
8.415937363771869295e-02
9.173496486952742446e-02
1.063457840168550161e-01
1.556882661033074933e-01
1.637453368787498142e-01
1.555017731222136379e-01
1.396126473710677107e-01
1.508379477990311746e-01
1.667124110745176191e-01
1.612800220013288766e-01
1.157971020721987598e-01
1.922000680460041466e-01
1.908633764673612065e-01
1.700072734603109703e-01
2.035325268866092774e-01
1.833888919468226741e-01
1.880034039518357902e-01
2.472814053669342427e-01
1.941033864811843868e-01
2.101169565137377404e-01
1.923152492381407508e-01
1.539878627219830320e-01
2.014281724452640920e-01
1.887769483117001934e-01
1.692928656524674003e-01
1.577100612885744546e-01
2.033468540700484051e-01
1.879081509424219143e-01
1.702737004348863215e-01
2.277658148866834598e-01
1.956823372931674743e-01
2.068105246458122326e-01
2.306412048440059093e-01
2.262423188283912145e-01
2.062418012473260787e-01
2.410468432126693372e-01
2.394759285632822865e-01
1.930742775467526040e-01
1.374259418106373309e-01
2.030551792158830360e-01
2.249525970625735338e-01
2.788711067461576154e-01
2.787335040683837084e-01
2.798800104584446835e-01
3.100166354438452232e-01
3.824031436560779706e-01
3.988291087260052992e-01
5.268074602638562753e-01
5.637501268554624412e-01
5.488870703285718688e-01
6.310092329895615748e-01
7.678759383997620924e-01
8.293250887155814155e-01
8.951932269469273784e-01
1.092710825313225165e+00
1.110359019019596438e+00
1.200104212950363625e+00
1.276040294891291227e+00
1.367029763811596688e+00
1.348680431175856453e+00
1.420662891674036477e+00
1.365628743809897072e+00
1.377521206855336411e+00
1.382155821620196567e+00
1.332496160162466303e+00
1.294700780839993515e+00
1.274589174270930103e+00
1.138121242128526056e+00
1.062408418487230000e+00
9.613955792415284085e-01
8.603253398259790297e-01
7.929429171835026269e-01
7.100559723231362197e-01
6.313003851462859473e-01
5.608610703135330500e-01
5.093132682021228597e-01
4.032807857403254426e-01
4.305226871954698220e-01
3.303085402098022150e-01
3.140359346124036999e-01
3.134892656868441541e-01
2.213681988047487559e-01
2.028448263918765648e-01
1.702995351664829959e-01
1.998862356723840605e-01
1.784941907581349407e-01
1.832686271069755846e-01
1.373454168914138573e-01
1.569210756192183642e-01
1.307741164103378428e-01
1.261794851829559916e-01
1.725860449348582404e-01
1.979839711260765189e-01
1.731134647363638535e-01
1.909703610993601641e-01
2.100740506261000728e-01
1.487638210353453561e-01
2.137283320084119032e-01
2.088473521319282045e-01
1.910200384080903702e-01
2.323581582358432707e-01
1.954096769505155873e-01
2.200266380632976693e-01
2.506130387160151463e-01
2.480189022095571350e-01
2.359618146839123631e-01
2.448476187571481943e-01
2.588588787460686103e-01
2.405160193462893836e-01
2.526249836964621909e-01
1.957576481483546404e-01
2.914636423403335064e-01
3.276944032847852739e-01
2.936052448521207503e-01
2.678605606605883316e-01
3.056515212660866343e-01
3.276012756473637433e-01
2.298104364992608062e-01
2.922354382263133710e-01
3.308319913210287511e-01
2.708370483310366117e-01
2.565944220246406116e-01
2.743303611402072573e-01
2.919733154353950644e-01
3.134454118872002648e-01
3.031240170945385115e-01
2.766652379797448491e-01
3.132646167845581919e-01
3.072299560830847320e-01
3.082808711429116388e-01
2.877148464144733131e-01
3.050921493909879434e-01
3.131256042381332927e-01
3.040169537472141026e-01
2.849531536636626949e-01
2.842063033342349110e-01
2.832256961541145257e-01
3.123919776056308661e-01
2.807666585193463460e-01
2.746572477187866901e-01
3.018810174617779785e-01
2.661037109356400587e-01
2.180707048173593232e-01
2.380008120601656840e-01
1.719071878330043490e-01
1.917336245708364806e-01
1.360156165645587112e-01
2.706847862596232779e-01
2.745780212659770791e-01
2.415747974535681630e-01
2.224076196942004202e-01
1.795153502679200375e-01
1.329392420317824230e-01
1.645697786206729296e-01
1.713362175231717965e-01
1.401030360568479016e-01
1.750076963377480699e-01
1.458177380347439878e-01
1.050845493144815374e-01
1.937742372636988009e-01
9.981543714153312541e-02
8.563399623396536486e-02
1.212388681949524150e-01
1.487540530511214654e-01
1.483305058796687836e-01
1.515915700485234996e-01
7.902419327473038380e-02
1.262477614679929916e-01
7.702060579382123684e-02
1.404411163414376607e-01
6.721735300614892217e-02
1.075192763031592724e-01
7.295473619593118020e-02
1.198122311359178932e-01
5.963167180083100288e-02
6.435314887277060469e-02
1.039766774627951113e-01
3.458310595481698529e-02
6.335028731761054022e-02
8.237046314345330966e-02
6.774735653170572969e-02
8.053515451100512479e-02
9.910763496398751482e-02
6.359485276253640240e-02
4.561404597328341110e-02
7.254725909830563035e-02
6.683658150379588603e-02
8.298253188963491955e-02
8.290406511441431037e-02
7.789919676523729408e-02
5.082222516099654114e-02
8.976328114182204054e-03
2.056873522765822332e-02
6.755394009920162590e-02
8.841494724348471224e-02
5.307878253812214203e-02
4.526602958059592480e-02
4.163655985790027519e-02
5.631954012320306013e-03
1.410452656409972791e-02
4.188965165801657176e-02
5.747219540407236260e-02
3.403459126813943025e-02
2.907542692468173540e-02
3.526966045867081789e-02
4.254560840539440419e-02
2.567218789637428292e-02
4.120132265218447859e-02
-1.480542746548273864e-02
3.036799079603513113e-02
2.822829166261891023e-02
1.010567807641011770e-02
6.052639458619139823e-02
6.464341468032461235e-02
6.432656907699868531e-04
7.451723097530473655e-03
8.365856310694635978e-02
2.517526757478715654e-02
3.023098903203357696e-02
8.861594503953933166e-02
3.549473085651954490e-02
5.221117108008454383e-02
4.907747560990093766e-02
6.511157678128498549e-02
5.884720277420488199e-02
3.749520499812903501e-02
2.608508696306367086e-02
8.876655199462055168e-02
4.018019240854042023e-02
5.770620438731523250e-02
9.259192932141555032e-02
6.788277737952880253e-02
9.241670216156008810e-02
-1.143487587309448272e-02
3.583832410838980881e-02
1.184951715255962157e-03
3.531185160971057196e-02
7.861567177941061746e-02
6.337493038943241286e-02
4.494023501811030691e-02
5.581571708927395015e-02
8.038777668537293308e-02
7.055407778535016661e-02
6.104691438338907122e-02
1.078558348496660990e-01
1.298409793905134502e-01
2.135483906465131948e-02
9.350713957084405559e-02
1.224822094407044815e-01
9.026361535685281656e-02
4.758835151642944877e-02
9.031642574239845400e-02
1.051513340977893174e-01
2.258828105802512115e-02
1.082500830777390344e-01
1.378439187053325243e-01
1.838795874745611791e-01
9.666386307042484916e-02
1.016345358908743585e-01
1.011275247609962208e-01
1.270685091202829464e-01
1.617638720987442935e-01
1.904298479599788319e-01
1.515580784238101109e-01
2.079808656889704788e-01
2.296323440652021097e-01
1.656191138378451388e-01
1.899863034840822418e-01
1.442072050593032895e-01
2.237238173722307932e-01
1.781562869481922162e-01
1.851460903524214108e-01
1.946591456850648161e-01
2.142034429768960857e-01
2.015971759718189760e-01
1.581935614905987109e-01
1.580845974856286140e-01
1.409810992408711827e-01
1.517799469373171117e-01
2.211208081011822035e-01
1.901744023054191268e-01
1.592910762043118489e-01
1.786269400325839751e-01
2.408690834141501702e-01
1.419561750822289636e-01
1.794410713298361659e-01
1.582810081965310978e-01
2.093019715986952078e-01
1.077037443491164759e-01
1.222781253852917860e-01
1.832978420715900003e-01
2.124306240451509231e-01
2.241808010734296086e-01
2.834175660426426768e-01
2.780007871202858083e-01
2.464851875600262976e-01
3.293479682272288933e-01
3.604731154105569324e-01
3.849586390177015538e-01
5.055488069583272681e-01
5.649128225574351347e-01
6.599950923828864502e-01
7.590281567573222699e-01
8.892417962120047203e-01
9.660525644278613600e-01
1.020288119942377003e+00
1.092696488989463255e+00
1.175014562758656123e+00
1.245908988831404551e+00
1.298686459658944914e+00
1.391378976184479033e+00
1.391724728053531868e+00
1.390457681485684827e+00
1.364232416114840030e+00
1.318102337590720596e+00
1.306416063750271972e+00
1.248311561949702497e+00
1.214731649595509388e+00
1.118870759404685167e+00
1.012601443667195289e+00
8.930239464702639518e-01
8.063745441592952146e-01
7.286668695244977734e-01
7.057178163964480389e-01
6.153891660402360797e-01
4.861644414582914631e-01
4.497207360087998040e-01
3.986045034246977758e-01
2.673778980396996907e-01
2.663138445024938461e-01
2.750267434484684470e-01
2.429523794861487562e-01
2.507905938232014020e-01
1.667957796234691148e-01
1.904089689455462364e-01
1.818344635707700718e-01
1.254544226587355205e-01
1.856387143815393381e-01
1.384757237565593657e-01
7.550160081165471770e-02
1.232851576820883643e-01
1.390477643284564746e-01
1.200034041487997027e-01
1.193252727819865688e-01
1.434944462744112137e-01
1.764148827360088323e-01
1.284380539359631923e-01
1.883646952652382467e-01
1.707462669316064663e-01
1.823399757655865816e-01
1.846329758591582215e-01
2.207667699839508946e-01
2.069294343740185060e-01
1.945800793065556311e-01
1.926779289712814425e-01
2.052889748238548862e-01
1.637562412752041341e-01
2.354195392992979030e-01
1.673875924741428656e-01
2.517540036810681503e-01
2.110884138776332186e-01
2.013155024322159092e-01
2.479525272772823419e-01
2.750872242621880126e-01
2.748587287088486986e-01
1.997967501471198393e-01
3.039302709018373294e-01
2.561015266916433220e-01
2.550261926718276340e-01
2.334348497062787853e-01
2.342776162994447686e-01
2.654521996870511380e-01
2.044589773469229765e-01
2.381060130498108551e-01
2.730544253976853186e-01
2.758598113664794127e-01
2.466751050071798734e-01
1.690966517869972041e-01
2.283224372728247520e-01
2.893235761031316966e-01
2.266393940868464407e-01
2.310545965475327979e-01
2.497432603978553545e-01
2.107961678676780470e-01
2.056571288447736623e-01
2.203168866545051896e-01
2.317123249232361237e-01
2.029110949698064159e-01
2.264902154247600830e-01
2.452245098432547787e-01
2.680124834150049429e-01
1.855549668467707525e-01
2.241175307680023099e-01
1.896384533473370604e-01
2.184956677160219685e-01
1.642134593363825390e-01
2.417000393213194209e-01
1.543197730886164687e-01
1.663357812348874865e-01
1.402133795804391958e-01
9.585917507574449881e-02
1.257426802738544069e-01
1.022966720680357350e-01
1.489392273123964772e-01
1.304416108228249327e-01
1.115275177462748679e-01
1.550091256598051526e-01
1.016602660210810943e-01
1.356866251505736420e-01
1.286337400803523601e-01
1.022096636598064656e-01
2.282359597570882831e-02
7.109364014932617604e-02
4.949174746512444156e-02
9.408258736731617278e-02
6.845055456231086133e-02
7.580434284041949466e-02
3.842436634267742263e-02
7.041437977589364017e-02
7.660143981661282631e-02
1.158805923322069609e-01
7.872026796293203621e-02
3.284630948111778859e-02
7.738344107607708633e-02
5.714692587992592498e-02
6.896353672993770986e-03
6.030813135392060903e-02
2.892974037814559363e-02
2.145607497099472766e-02
4.819244930560823148e-02
-6.845937170605512212e-03
-4.686867363250144664e-02
-1.294135572163347854e-02
8.224278958175757284e-03
-7.127415323954356188e-03
3.369545838695912898e-02
3.105837721463758361e-02
-5.491781322066341745e-03
2.445803208632948977e-02
-1.333459449994142849e-02
4.399579229505862221e-02
5.496695808314847748e-02
-1.976431288346042550e-02
-4.917739908701692503e-02
-2.553849728369850941e-02
3.327406162928919775e-02
-6.018531088551641595e-02
6.313517505643097966e-03
-3.895376708053226167e-02
-4.980705740330879094e-02
1.309388304165811506e-02
-1.020681001240947988e-02
2.643690875769550558e-02
3.271808484805449613e-02
-3.332144602622436058e-02
-1.765709543394442665e-02
-3.791206206306810267e-03
-3.386665806583916832e-02
1.323321725122199657e-02
-7.135103566359842983e-03
-2.454294600686801262e-02
-2.422711831842115637e-02
2.496246125315390932e-02
-3.073691293905366634e-02
2.208956304640524032e-02
-1.352974730427059825e-02
-7.222171411294686649e-02
-7.023703872153992667e-02
-2.978196105735960234e-02
-3.760841712471898329e-03
-1.201211636741495760e-02
-2.911936845254708278e-02
-1.776190516684847051e-02
3.325999728647544701e-03
-1.008538543413083077e-01
-2.117335667933897131e-02
-2.457094802693461991e-02
1.126086493466471952e-02
-2.349390911942281918e-02
-6.380608735665167786e-02
1.021896098091531341e-02
-4.675362645592588684e-02
-2.872510056964011280e-02
-4.993044176774996679e-02
-2.207742140902296812e-02
-8.109344267526508859e-03
-5.208864951202651916e-02
2.607998777361350898e-02
-4.531186914834152424e-02
3.146564107771972207e-02
7.603899659982454873e-03
-6.819968852520413849e-02
2.169662714326824754e-02
-3.759126202949891055e-03
4.020642804897035794e-02
-2.631825836495295043e-02
2.657840592961351750e-03
-3.699122267031511313e-02
3.473141615547041539e-02
7.017507108558486417e-02
4.278301738091852546e-02
4.730425333856051739e-02
2.899750688672182372e-02
3.814995099037525594e-02
6.145118236497736086e-02
5.939436218209913354e-02
5.397422656752250136e-02
2.743702751950067437e-02
7.088413675655247381e-02
3.652015819224277426e-02
3.480347637406257244e-02
1.101647255695550331e-01
7.114054995935244208e-02
1.223438981803175174e-01
9.351363096044561229e-02
1.341071720412692070e-01
1.174808970959937138e-01
1.057251437744550493e-01
1.257768036337382211e-01
1.106193889296348265e-01
1.384224051765942654e-01
1.232303541293371107e-01
7.965106851772804641e-02
6.935579255015464351e-02
7.243496513601155318e-02
1.522331647233089169e-01
1.045778806821399398e-01
1.436477111270945406e-01
1.062779234925547156e-01
1.498559229444229590e-01
1.278545597063149575e-01
1.663646728763288341e-01
1.099178432979524278e-01
1.448337592496460324e-01
1.185408786191571584e-01
1.216824309672909499e-01
8.071733626377793069e-02
7.721314611705723530e-02
1.416485579631911462e-01
1.267158200240153798e-01
1.093717242213000651e-01
1.281102416260225529e-01
9.306631725824901502e-02
1.780939432965240599e-01
2.465814897910741377e-01
1.463931172183343954e-01
2.164190111243111392e-01
2.952671916393401763e-01
3.821888263984463130e-01
4.010341563516361951e-01
5.121963288326011332e-01
5.103149364819417055e-01
6.184804485049810729e-01
7.363695080036091190e-01
8.494981891362417548e-01
8.592238543006394114e-01
1.022262845243554263e+00
1.142012530790194491e+00
1.145005508556393936e+00
1.183146474732939879e+00
1.268820136687936140e+00
1.276238491008297560e+00
1.282744498330233185e+00
1.282934837364191560e+00
1.276414848351698827e+00
1.303276880579850472e+00
1.243095427077470116e+00
1.178678048331408101e+00
1.156067579103309262e+00
1.030420355849046565e+00
9.332594954976394241e-01
8.279514554238898150e-01
7.760987764442976999e-01
6.964416057966726914e-01
5.785312619192435335e-01
5.561436699568017561e-01
3.980766432270477218e-01
3.416491831943826440e-01
3.885958652643518030e-01
2.647052902579509759e-01
1.671576242204465268e-01
1.425510801821267548e-01
1.526949956952753928e-01
1.123136292370587042e-01
1.147502934718117595e-01
1.047689873186993803e-01
7.419207261744752147e-02
-9.787928831529749130e-03
3.925979276367817794e-02
5.701853085826249362e-02
6.156477841470324452e-02
9.521872907636461103e-02
1.093619672500214385e-01
4.285503688552658175e-02
2.464853213158171852e-02
8.858114940576850005e-02
9.091877221003871745e-02
1.086901234253269954e-01
1.102384872034012919e-01
5.266581072625966392e-02
1.189162682621832529e-01
9.293342264627604821e-02
1.022985725838803373e-01
1.032591679645579463e-01
1.459870427296103557e-01
1.533297124589144966e-01
8.724735007242449825e-02
1.046423765479056883e-01
1.544994844433880132e-01
1.726536602146234722e-01
2.029881560383194061e-01
1.538119184452798327e-01
1.819329573312993276e-01
1.893810802268661164e-01
1.552423537571927803e-01
1.684318673275838618e-01
1.701269789078116157e-01
2.154191922637725132e-01
2.184522939057239599e-01
2.143920132620494301e-01
2.293788239008704433e-01
2.090929001426288791e-01
1.733226168598331063e-01
1.827945139915839456e-01
2.412644873388303246e-01
1.992657096574269870e-01
1.984603175508744821e-01
1.646970398411454761e-01
1.726224861927677101e-01
1.920125239707149156e-01
2.233351149152837667e-01
1.930519168107510952e-01
1.215256568774120693e-01
1.962417806172356283e-01
2.067300178397251109e-01
2.123386433219240643e-01
1.800355921282052463e-01
1.608580177954322121e-01
1.435675747298535976e-01
1.865897210199569112e-01
1.619702209190332642e-01
1.214483349737755513e-01
1.642820785636340264e-01
1.636738490820941472e-01
1.561270989252083741e-01
1.650728194074275179e-01
6.835763201623074048e-02
1.245196872141754590e-01
9.251101681101026042e-02
1.097850105372881885e-01
1.355866017591687012e-01
1.279167162691856041e-01
1.188081233419244487e-01
2.230131861746749433e-02
1.182900375947563976e-01
9.898011889061730795e-02
1.121033100451717390e-01
1.000520264216080285e-01
2.436312983096664692e-02
1.369641819999483506e-02
2.738928871381008517e-02
3.715383302903320362e-02
3.757230474572142986e-02
1.035699715269020327e-01
-7.934778583541086949e-03
1.837867392537224920e-02
3.352194160803213113e-02
2.840797498701125995e-02
8.709035666159777034e-03
3.094632099278214060e-02
8.534446590524108478e-02
-7.150658425210149050e-03
3.785554347904142997e-02
-1.061330249734183245e-02
-4.316099863489001459e-02
1.697285349177977271e-02
1.513867182571663333e-02
7.764383236442268243e-03
4.982511104540857799e-02
-6.683624151995637419e-02
-1.233129393008638996e-03
-5.432962555033393759e-02
-1.948072270204551787e-02
-4.307893176953167536e-02
-1.752515481210756287e-02
-2.753356719888939291e-02
-2.395815013438514288e-02
-6.858019160114252333e-02
-1.645298090855112222e-02
-7.554352758010704494e-02
-1.769176820348158236e-02
-4.698385077509181773e-02
-2.524993120008348774e-02
-8.018043472846210495e-02
-1.090021351240421515e-02
-6.213436383013082320e-02
-5.710487636921614263e-02
-7.075030636311112342e-02
-4.859939037030726328e-02
-1.346933820000403847e-02
-3.126903008842879528e-02
-6.474925044307280886e-02
-2.556501629282073931e-02
-3.709007832897251444e-02
-2.614785287329405433e-02
-9.488248205273558389e-02
-2.263701294420326915e-02
-7.510757476919648068e-02
-6.193241799662894953e-02
-8.213863847587725420e-02
5.075111379383073773e-03
-3.381890720042317333e-02
-1.218864192246706807e-02
-4.940732894714203183e-02
-7.221165880654629998e-02
-6.052442701466571873e-02
-4.785109539566800158e-02
-8.904615097724279116e-02
-6.609407186231891496e-02
-8.617884698951003286e-02
-9.316684125277105433e-02
-4.064298243323531679e-02
1.615913843074971712e-02
-1.816320103633960181e-02
-1.754563356850705191e-02
-5.262948173328809570e-02
-2.433434871955172246e-02
-3.690519337709990272e-02
-7.592646145149170578e-02
-6.702174885436033847e-02
-4.690325396612133463e-02
-1.337841876420679810e-02
-1.604415927529398433e-03
-1.851164733601088491e-02
3.284972618655786908e-02
-4.370055171993657284e-02
-5.600469652271181098e-02
-5.470596241176954588e-02
-3.713919034195253821e-02
-7.529003553996455045e-02
-5.835161725235413210e-02
-1.446951874743870881e-02
6.365508590887337947e-03
-5.088242043137299053e-02
-6.383737744188835994e-02
-4.877803562059575271e-02
-1.322140884169626524e-02
-1.798008467511560959e-04
4.620122619739025494e-02
-9.739544267371794128e-03
-5.658453089682752291e-02
3.550770935309054133e-02
3.060962330692126865e-02
2.085566914963498525e-02
1.825956401944059393e-02
7.040345460150015944e-02
4.647172537922782121e-02
1.640334863980145996e-02
1.678020702049923263e-02
4.657791679739965718e-02
7.415111839399553262e-02
1.406820871251626692e-02
8.261777964890353043e-03
4.112639256253112358e-02
5.593321037531996665e-03
4.084320662988356887e-02
1.358272634533877754e-01
9.907583567054464857e-02
1.077235427291968473e-01
9.130651622373885112e-02
7.192977303698207259e-02
8.373538169525977792e-02
4.479971225740818352e-02
1.270965128195716554e-01
9.430160074790744362e-02
8.260367530860504570e-02
8.532268273311932605e-02
1.451141774857077904e-01
5.971771877628667680e-02
1.104568323981315742e-01
8.415598812960520259e-02
1.154604173817048163e-01
8.205506177152346869e-02
6.879804219215203409e-02
1.247964600105497812e-01
7.068042704638441420e-02
1.149584984747118177e-01
1.079575721732095872e-01
1.341416906501740891e-01
7.707297218118275284e-02
9.885284295520008202e-02
5.923800317068363824e-02
1.010078441812172489e-01
1.124904155935345790e-01
1.017768181003400052e-01
1.662516319921062691e-01
1.836613359959912151e-01
2.491339221578741103e-01
3.137212427721696728e-01
3.712043929910505691e-01
4.224470718277484882e-01
4.999538927837648972e-01
5.683580984808108694e-01
5.951524135954967543e-01
7.334206564462275590e-01
8.277704782564766495e-01
9.114457725967460844e-01
1.028967513226876296e+00
1.072234255311667050e+00
1.164404863304845605e+00
1.242258651979322392e+00
1.251046784891551633e+00
1.338837156285288543e+00
1.316338531254546140e+00
1.302780127430485102e+00
1.298982663836895091e+00
1.255457537196466244e+00
1.231871673665436706e+00
1.190098900219741962e+00
1.118110434414903764e+00
9.577731427241528150e-01
9.615842943308059443e-01
8.526651112421460565e-01
7.211704946580688169e-01
6.122059319174252279e-01
5.401589905228740829e-01
5.150309578484343342e-01
4.502333394486744966e-01
3.727977128703665044e-01
3.082958512811765361e-01
2.599260467347022097e-01
1.475347144062057470e-01
1.565979138079620914e-01
1.706951904896229499e-01
1.455621184149303859e-01
1.636093759933559544e-01
9.397764961628068958e-02
8.988442338595886705e-02
1.193730685771577371e-01
7.545042995835039845e-02
8.424012903336057512e-02
7.819864554232264231e-02
4.402265223396749361e-02
8.130791368238146632e-02
1.032894660463275077e-01
8.303085631368573027e-02
9.781136844415072584e-02
1.428745936923155324e-01
6.574152305580215072e-02
1.285919795247590647e-01
1.404504027615534612e-01
8.381167738775216480e-02
1.622135860169504340e-01
2.238179871759694850e-01
1.787197274217409981e-01
1.996542744791975910e-01
1.134661283856227831e-01
1.800413074164325111e-01
1.730733904955836511e-01
1.541493179990767182e-01
2.321383147996403939e-01
1.636539824401757603e-01
1.538475199708221053e-01
1.948025015482607314e-01
1.671568879160625631e-01
2.396729571879546161e-01
1.338265136372329689e-01
1.915624343301802479e-01
1.422521354690455819e-01
2.195173229668148651e-01
2.437145203211864841e-01
2.277702711533546032e-01
2.481635137671687752e-01
1.776400974029486435e-01
2.201794067314449266e-01
2.172840926988167665e-01
2.117453979455550528e-01
1.921651989042541531e-01
2.358047294567203189e-01
1.751502599493446610e-01
2.159112772836673244e-01
2.192624985040898533e-01
2.015075529204601035e-01
1.688514747672370253e-01
2.181749134775380072e-01
2.198440281880970626e-01
1.885837105243292622e-01
2.021472318148002101e-01
1.701771357721689193e-01
2.369596324600142245e-01
2.557215887398718301e-01
1.950684367640386774e-01
2.015830309327914793e-01
2.251530681198055384e-01
1.804256522752119840e-01
2.070348307073682226e-01
1.224999418286106811e-01
7.545336117179596291e-02
1.708031269527596485e-01
1.734919287613291006e-01
1.238594331958368239e-01
1.071318592011367143e-01
1.316949187268517951e-01
1.084027390209931635e-01
1.605083992740250765e-01
5.518156561838519214e-02
9.827155885432412030e-02
9.585618308956819766e-02
6.865224960312536762e-02
1.036161263400172672e-01
8.011779684823136516e-02
1.221136780596542154e-01
1.338875900375122996e-01
-2.016049415719405394e-02
8.365093523429455169e-02
3.417031856480985674e-02
1.087514661655268888e-01
5.917401498574870189e-02
1.338182248013689013e-02
2.169181479493227996e-02
5.153694754345065909e-03
4.753352449683428960e-02
-1.689920045099253809e-02
1.717765887301797231e-02
-2.612918244178659422e-02
4.916226147568103499e-02
1.202760010264072865e-02
2.929319151307453739e-02
1.233800910437354847e-02
-3.910465141890262508e-02
-4.286606190410227613e-03
1.015423736568915256e-02
-1.680592326779415530e-02
-3.800064224802260360e-02
6.941012530164859806e-02
-3.611356352311034801e-02
-2.459061645256713571e-02
5.997955878554207809e-04
-1.213177941128166550e-02
9.076981094354907159e-03
-2.755117688767541595e-02
-1.449430224781824740e-02
1.068975539833740343e-02
-1.376591275212453447e-03
2.758448867564677193e-02
-5.666085709291069847e-03
-1.780414547595702071e-02
2.473494407024003777e-02
-3.066304750781942076e-02
-1.667783982847104510e-02
-1.622378579897022777e-02
8.779306544142256169e-03
1.731648961520095009e-02
-1.488837287442059190e-02
-1.735245077802345312e-02
-1.648856008168964743e-02
-4.911161318746828236e-03
1.675835366629171985e-03
1.208444479566806243e-02
-6.123628440593709837e-02
-2.936821426693220216e-02
2.042637814601519497e-02
-4.718677516497748331e-02
-5.080111091624146813e-02
2.865958433206467273e-03
-5.721767884873806692e-02
9.433534785121690247e-03
1.814607467841690414e-02
3.352773451150842937e-02
1.819487557159316787e-03
6.288632871061638346e-04
-8.808528681783518721e-02
-2.445722195167218671e-02
3.187087998084969093e-02
-4.275824912274172468e-02
-2.895251613299464760e-02
8.462551511578699989e-03
1.675256481640672451e-02
1.217709214643491501e-02
1.710695788118773292e-02
3.107886593483888057e-02
2.294304953927490953e-02
3.563399412731680510e-02
-7.095559642953913615e-03
-1.696759039197326402e-02
5.300500099005488186e-02
7.880317398600567014e-03
1.881213815281988777e-02
-4.395581344749483269e-03
-3.529776297414400493e-02
4.224979930892396041e-02
3.876060784720462837e-02
3.828751962226295547e-02
-2.184528837554910313e-02
2.511895849045187035e-02
5.507964260174492976e-02
-7.455562214303271956e-03
2.367179806466261464e-03
4.395377380794356081e-02
5.660861698306512979e-03
-3.233185959535569975e-02
3.272441563446888690e-02
2.778405364736723573e-02
7.329551476974063839e-02
8.997999146403197479e-02
4.558450705422813221e-02
1.463195472241373973e-01
8.750640678124174676e-02
5.993144061306898002e-02
1.071707238770358700e-01
1.067105215614545799e-01
1.149920397013322187e-01
1.538535178891136668e-01
7.788897505529016052e-02
1.354813609044440148e-01
1.221731061262473217e-01
6.937472093662272465e-02
8.164206912335142396e-02
1.698573531373040180e-01
1.628047597884555719e-01
1.895755011187629790e-01
1.523710919466030600e-01
9.034923576274148105e-02
1.411373441716123334e-01
1.444146200071863562e-01
1.496270361813228089e-01
1.215564867255282816e-01
1.966835485927164728e-01
1.266541471297253918e-01
1.544642807516884431e-01
1.284929744645656735e-01
1.728065603114220250e-01
1.099906097495989832e-01
1.062787765884574270e-01
1.783994340041192839e-01
1.594563107009210334e-01
1.973583913336668383e-01
1.506539964392855646e-01
1.523204228200132904e-01
1.162411362729540154e-01
1.860601690541733300e-01
1.850005452891811120e-01
1.942341099190224574e-01
1.849208037636679292e-01
1.761245134148365921e-01
2.143604981408622767e-01
2.488559019761559798e-01
2.706286979904219958e-01
3.073601163023250704e-01
3.901876393188070669e-01
4.561804674870998388e-01
4.597650246397569918e-01
5.662068259646904078e-01
6.888520752167719419e-01
7.014763425901910932e-01
8.022793870260467308e-01
8.764248265347494016e-01
9.863191611822762495e-01
1.083882064301776138e+00
1.157192680218929182e+00
1.251001277335942019e+00
1.287248367990700304e+00
1.342019306377582044e+00
1.347041785716318829e+00
1.340751984420837317e+00
1.430041529829684466e+00
1.372923042419632589e+00
1.294033226845225037e+00
1.265892277206053462e+00
1.223330025450371616e+00
1.118001110472113924e+00
1.046361837205815215e+00
9.752292579459446165e-01
8.809572031458541286e-01
7.314277334058629787e-01
6.901756697655718753e-01
5.554498195204082833e-01
5.380849664218205763e-01
4.671142458199527003e-01
3.975154137357878037e-01
3.580499208907821362e-01
2.355597280427315088e-01
2.401106509268169653e-01
1.991195718932987635e-01
1.777089320111023274e-01
1.466059481252549590e-01
1.385384601621788003e-01
1.055834058397214503e-01
1.345899594058112270e-01
1.405451341283024125e-01
1.553586500933692716e-01
1.228029527479115451e-01
1.548133026027057602e-01
1.286893608631826946e-01
1.744581813744082166e-01
1.532268627906345493e-01
1.354919352092539830e-01
1.858700841816573190e-01
1.383030489012605779e-01
1.770977907207781921e-01
1.454488467256117579e-01
2.070350390898309523e-01
2.323833506010764827e-01
1.313960606903963324e-01
1.887685266758901415e-01
2.607967057141638012e-01
1.791158905485606967e-01
2.007886836842323608e-01
2.197708315819189018e-01
2.079294761626056254e-01
2.750030733597978450e-01
2.709996528873829247e-01
1.920010613519670672e-01
2.323689186587691857e-01
2.983726456834385199e-01
2.295455285775594156e-01
2.606718893473633503e-01
2.202943150818235940e-01
2.853462210817511169e-01
2.774060904145553841e-01
2.445455644772497328e-01
2.932607544370038899e-01
2.409919088309299962e-01
3.076318287461783374e-01
3.087732157229718388e-01
2.975274760338688096e-01
2.828147936708432231e-01
2.530543211876540299e-01
2.448231048297720425e-01
3.021343818549798166e-01
2.122094320537250556e-01
2.467791678025642310e-01
2.839571656235562735e-01
2.532983714619797544e-01
3.185033972502728794e-01
2.400687008906940423e-01
2.404134129065006176e-01
2.431121429335350304e-01
2.232483766954903859e-01
2.883582276977464387e-01
1.968224059111237656e-01
2.472639860551364421e-01
2.890796558054140597e-01
2.580988563093258303e-01
2.379882042082646643e-01
2.067587611588079521e-01
2.126533025303244673e-01
2.352757820268031597e-01
2.695614383204446018e-01
1.962149223623858019e-01
1.441816531515942579e-01
2.315050961778709060e-01
1.928811874812138005e-01
1.889235728539953585e-01
1.618820382307381844e-01
1.469127116781186182e-01
1.167529683472366686e-01
1.740079004406640817e-01
1.821548888673515942e-01
1.678968913868899571e-01
1.281355579521380184e-01
2.088711673559838777e-01
1.806600198101262489e-01
1.544005242336970729e-01
1.184850027328483435e-01
1.512551661427931626e-01
1.138015460510027055e-01
1.546171986061730119e-01
1.101928603831947573e-01
8.310538620107689456e-02
1.369958673419907624e-01
1.390263738794547954e-01
1.023326722371854791e-01
1.000735152052349280e-01
1.178334442098553786e-01
3.432033323586729939e-02
9.822594171049202350e-02
8.202865535732389857e-02
5.687351709943307132e-02
8.723064634087218661e-02
1.358144930673371997e-01
3.306506372143891426e-02
7.839461930165184111e-02
5.271064926376953230e-02
3.742025329186340898e-02
4.473412340379787772e-02
8.005810478612361558e-02
5.413927925823441151e-02
7.809723647541622071e-02
4.099687246662589435e-02
8.109541427496305688e-02
1.219001900521202511e-02
7.880863703301010936e-02
1.097452157412644180e-03
6.088290843415535697e-02
4.109576732417841854e-02
-2.208551681923291710e-03
7.083296796044878663e-02
6.139441960750764704e-02
4.115228759430985400e-02
-2.160323342576722649e-02
6.086646402412004830e-02
4.958696042680622862e-02
-2.656706344837517914e-02
6.224918759576167360e-02
9.530255153164987614e-02
-5.440368443838571044e-03
1.815698746164776806e-02
5.464651213968860222e-02
9.528550025480593544e-02
4.573741600730248102e-02
5.641031377094882227e-02
-1.751817150690304636e-02
5.879344580968916267e-02
3.325559057228037046e-02
5.975205879856886060e-02
8.089612547597974102e-02
9.385315705219693383e-02
7.048909884209467180e-02
3.751570894672891926e-02
1.958194538108906646e-02
1.497621040779812188e-02
2.865086303234497256e-02
9.468238563440775635e-02
1.940643666963931535e-02
1.944162307880480459e-02
3.276599344221834548e-02
3.838921320627412814e-02
2.167172999220579738e-02
6.117952196714233903e-02
6.451678297223821523e-02
3.908165406696619687e-02
4.932592805454562995e-02
3.866163843191545990e-02
8.223121629266133548e-02
3.123406805723094939e-02
2.564521378209744934e-02
1.182465911879667653e-01
1.659687458756212847e-02
7.221531662501645688e-02
4.520049183068604315e-02
1.028183100964898816e-01
3.330983938905028585e-02
7.504652842662021262e-02
8.099086667680277518e-02
1.047606264613753085e-01
6.646876874978645267e-02
1.314947087917013313e-01
9.681998836730912328e-02
1.188739122593702735e-01
1.240720862419667225e-01
9.611204443338175474e-02
8.919104970800381671e-02
7.929093833012595960e-02
1.141794278306578203e-01
9.040831011884338519e-02
1.238838650287858306e-01
1.542607711001548476e-01
1.144217756489148002e-01
8.711464203209884349e-02
1.327859315393943862e-01
1.359714687122738908e-01
1.578856774200553259e-01
1.567611615910724787e-01
1.603587973445061432e-01
1.767764988511746904e-01
1.820237322241577416e-01
1.947686587866981345e-01
1.570661957745907722e-01
1.677536728264126809e-01
1.654581229701822809e-01
2.048315347546370846e-01
1.693972537682529589e-01
1.862184489940180432e-01
2.620939790089852339e-01
2.132751336374432705e-01
2.107254448532351332e-01
1.773454902968942815e-01
2.316535653743553858e-01
1.912319210229601607e-01
2.343645309208480798e-01
1.874552651925503188e-01
1.498806702248028921e-01
1.805694036146292814e-01
1.853023876436513118e-01
1.774250867577543689e-01
2.083362156832360423e-01
2.365309700017948491e-01
1.270172837576493963e-01
1.625533165923490064e-01
2.034799589003946085e-01
1.607303335639489739e-01
2.311240143858846741e-01
1.781423792683047846e-01
2.296803151883497762e-01
2.033178106326671286e-01
2.677751323049789578e-01
2.350063906479950282e-01
3.097287882777435830e-01
3.614458471864163691e-01
4.445787310130679404e-01
5.042492215432995417e-01
5.434310888505711201e-01
6.445314058437403570e-01
6.768506481227857252e-01
8.151394377594760599e-01
8.992202651810868863e-01
9.675364114904334567e-01
1.069470336022268819e+00
1.114799971686007307e+00
1.210309161469925954e+00
1.307940518259272267e+00
1.338253705323310339e+00
1.366364915353219800e+00
1.408165431807576251e+00
1.358440866943448233e+00
1.416776000549012871e+00
1.348670223429521142e+00
1.297785198178279309e+00
1.282705996487030875e+00
1.247981013103934389e+00
1.132943652472523599e+00
1.064635141015260800e+00
9.863500580588839828e-01
8.855354428670185740e-01
8.010527128936442143e-01
6.958008445219081572e-01
6.008496121859077110e-01
5.476097490024888215e-01
5.120667818196981136e-01
3.956346749649452543e-01
3.568161071518539118e-01
3.037683428797620655e-01
3.376082770093040697e-01
2.729921504291180634e-01
2.025271452135429251e-01
1.217270245904823606e-01
2.004019048578393747e-01
1.565484270003691392e-01
1.010792208906532014e-01
1.433481410615388696e-01
2.037453573529747763e-01
1.738661150056352578e-01
1.447165724916381624e-01
1.688574653759339905e-01
1.735448383117610960e-01
1.990898957151233384e-01
1.856852483664029885e-01
1.960268775248736328e-01
1.655168602321574478e-01
2.087479718234230563e-01
1.230202878044360792e-01
2.400258734509241321e-01
1.936242120006533007e-01
2.350338421650343401e-01
2.211890737595277046e-01
1.693983362289932237e-01
1.869118410543539610e-01
2.593916396843449212e-01
2.302089478124647315e-01
2.137971699060499109e-01
2.649389821365090159e-01
2.712891999861464232e-01
2.495193469593335323e-01
2.960388490675059381e-01
2.368473873766450966e-01
2.564156462909946699e-01
2.573556717477773481e-01
3.382021900660376890e-01
2.494588619023102027e-01
3.088490872305992285e-01
3.213128884370813343e-01
2.798593117749631487e-01
2.780377511755693920e-01
3.502575181802587423e-01
2.911115871515487230e-01
3.127503187679955277e-01
3.156535345219991795e-01
2.772191993200578408e-01
2.622378124303055835e-01
2.675678125236005123e-01
2.468783861342107588e-01
3.198680726912432881e-01
2.352178015753190465e-01
2.920961745009278410e-01
3.222179092315082816e-01
2.046690841246690540e-01
2.392269245450842352e-01
2.469855322652858842e-01
2.968158572496797931e-01
2.948324819842662037e-01
2.489906176330369814e-01
2.940691250462795781e-01
2.553376475187656425e-01
2.570683702504967805e-01
2.456939172419931872e-01
2.690668830192487482e-01
2.550774423971011728e-01
2.346811517431708904e-01
1.724072056231867600e-01
2.426468774330616807e-01
2.390597132456989127e-01
2.102614531615738525e-01
2.372366142345040951e-01
2.135263591558446972e-01
1.926012254003226787e-01
2.095914931785377300e-01
1.533475542108733713e-01
1.817487175536480204e-01
1.813963041551731881e-01
2.017884492582526501e-01
1.373825777821652272e-01
1.220712931464016521e-01
1.691063329416793160e-01
1.301698561030198709e-01
1.015450268144720558e-01
1.399853545431009039e-01
1.989565947137746649e-01
1.375847391639649087e-01
8.118130055461196537e-02
9.174491178811186587e-02
7.964889453132992236e-02
7.111360037675516776e-02
1.004496247022607369e-01
7.776790748564144096e-02
1.420235407263160665e-01
7.195327888536096062e-02
1.005124557849368105e-01
9.384415007105081918e-02
1.116226267949503026e-01
6.164403213324106540e-02
3.759001571893225147e-02
5.681652610378844920e-02
8.980213374365378365e-02
6.154029671984413696e-02
4.782550582525262745e-02
9.396915937002908725e-02
7.565979626175250994e-02
-1.196640143280753438e-02
3.774072445034743623e-02
1.012773818282090565e-01
6.138631921622469956e-02
6.160650994995453544e-02
4.969813867165329135e-03
7.424397194745221973e-02
6.017287926239895529e-02
4.586375636679390633e-02
2.986742260149476483e-02
6.277315023996063448e-02
1.967113523367366654e-02
5.575393587514057558e-02
2.503428055657825127e-02
2.539580783281183279e-02
1.630319476897900202e-02
7.242815437229591091e-02
6.233428790804063091e-02
7.094810084841397801e-02
5.509790832857051207e-02
4.960389338978060669e-02
9.544159417104484955e-02
3.266080651812205971e-02
9.439954719967308394e-02
8.493895455795498484e-02
7.760078838986217420e-02
6.914579037520884874e-02
9.956273234476588352e-02
5.062743620680740936e-02
2.849967991086412716e-02
2.799831573393576217e-02
1.179976771771909516e-02
7.895690120313546279e-02
7.323193054755114395e-02
6.287369116427762861e-02
7.754812435973670176e-03
7.195522785533309262e-02
2.866365748071957389e-02
1.277736336671581735e-02
1.055524214586943677e-01
2.138536014750897635e-02
4.256335630336188086e-02
6.094017305809214941e-03
4.559115689313864711e-02
6.290716091691973821e-02
8.203159225709985569e-02
2.137761076202636043e-02
5.282651182289133107e-02
1.768907772187781544e-02
3.932610308775511682e-02
6.688295489672246852e-02
3.835136741333525223e-03
7.227365970263580075e-02
4.487528654200250572e-03
5.815528980790910657e-02
4.902204163406255477e-02
4.240047915305559384e-02
5.090995625050703799e-02
9.500383546393442735e-02
3.491654527971149724e-02
4.943850462920888755e-02
1.363869968276621158e-01
9.949439528857587089e-02
8.694954092018793157e-02
1.118104233549002402e-01
8.398838987500703568e-02
9.325724373742740048e-02
6.570609847517722146e-02
1.210387377586398527e-01
8.355297297994870864e-02
1.534266818314266034e-01
9.218606450681604558e-02
1.235442403140107615e-01
8.697023534470554873e-02
1.009916357817127741e-01
1.118310924621572083e-01
1.790974862202359408e-01
1.631199711327528945e-01
1.698027626388625144e-01
1.953924707993303367e-01
1.595162355251653064e-01
1.078490330203976111e-01
1.698642228664210829e-01
1.867049226169651965e-01
1.639075328092345907e-01
2.142422195889342462e-01
1.586502000793454936e-01
1.263833046321967135e-01
1.927459592136345767e-01
1.876866058196791642e-01
1.439852469622782127e-01
1.674726580645394258e-01
1.879828817346155256e-01
1.204211547655720249e-01
1.716602949016917679e-01
1.726285144521770565e-01
2.108197182376450596e-01
2.313114476580527268e-01
1.632333907225478331e-01
1.201343050883796337e-01
2.047125437697256967e-01
1.327962008820297024e-01
1.920165873969918446e-01
1.776489371079069679e-01
1.913694735185688667e-01
1.950033123725064543e-01
1.799524793474187312e-01
2.296301164572837616e-01
2.094036715895887246e-01
2.995700576682054361e-01
2.919430793515166989e-01
3.085250068415953395e-01
3.321792614859436776e-01
4.353033772383326783e-01
4.520368679748935081e-01
5.001099495404959239e-01
6.154136470116674529e-01
6.392006777907641712e-01
7.898764034276941626e-01
8.488385536842051327e-01
1.005163697128529154e+00
1.035479816684566901e+00
1.139509211097076813e+00
1.234916909139993635e+00
1.257574898598363689e+00
1.337661279570749429e+00
1.403154299154055318e+00
1.364709843298894443e+00
1.390097620414787682e+00
1.407673460138808563e+00
1.337970627031494608e+00
1.293071072809677480e+00
1.207523831124132974e+00
1.122518247962772442e+00
1.074698025183302708e+00
9.537256313304268707e-01
9.456624716988600854e-01
8.007699187229367910e-01
7.921007907506252277e-01
7.280966131685642218e-01
5.674044847341559450e-01
5.042245091406619695e-01
4.343219945178687369e-01
3.413357932506968506e-01
2.576408172144384334e-01
2.337807572557298874e-01
1.620227927018494940e-01
1.704939211826562717e-01
2.256522194794389480e-01
1.472033123251869913e-01
1.496107265707968537e-01
1.849653081447756586e-01
1.114946840297984104e-01
1.187388444857641057e-01
1.114599371048410198e-01
1.764129361096234971e-01
1.394768010540975434e-01
1.475260717089298679e-01
1.561105088143743547e-01
1.336632463463178766e-01
1.310248392635777193e-01
1.565502982930012665e-01
1.443332912416534497e-01
1.578493298811119439e-01
1.882986270764042402e-01
1.720219862092562113e-01
1.897544130661625861e-01
2.029313913501721578e-01
1.343440214377547848e-01
1.427619694004670092e-01
1.626486794674536496e-01
1.422292223654390286e-01
1.733010374631512029e-01
2.612653387859750209e-01
2.269070985851478206e-01
2.382358803019803406e-01
2.312126740799254898e-01
2.346378617653955556e-01
2.494228363111360702e-01
2.449043016124133609e-01
2.611791840859761238e-01
1.994917604346262696e-01
2.670223899860938443e-01
2.813820037517559269e-01
2.090333267035479892e-01
2.411892165146792000e-01
2.485275303187373108e-01
2.479910871705612585e-01
2.544326756776279508e-01
2.899524558580381384e-01
2.946480627411782738e-01
2.456382171356869815e-01
1.909449011277863373e-01
2.172942524300108535e-01
2.961676512061682254e-01
2.150703082642609065e-01
2.073057726762501662e-01
2.429252097384390352e-01
2.367202035238419322e-01
1.934625313932307744e-01
2.443196162342644306e-01
2.126083350312901743e-01
2.557249153336659808e-01
1.938002750679671815e-01
2.303288124567971218e-01
1.800640119761969249e-01
2.362321676906218859e-01
1.722970512831986101e-01
1.863195915122447532e-01
1.927503346495464676e-01
2.218582728298492401e-01
1.603252423133552373e-01
1.753836616002537041e-01
1.552931352201891990e-01
1.391603634273843315e-01
1.552051502284531037e-01
1.249365408322850868e-01
1.408985594176293543e-01
1.492556772041648550e-01
1.581326686482383559e-01
1.635142372925204868e-01
1.696796706450024728e-01
1.168963520533832096e-01
1.150249806438764927e-01
9.042288462808752147e-02
1.185268897894721368e-01
9.888377377116247535e-02
1.345116782341595485e-01
9.773299589116432595e-02
6.056239638935227015e-02
9.461167989596186434e-02
5.264158695636859259e-02
3.733563699436894673e-02
6.081729225805716094e-02
-6.303611100712321058e-03
7.168071965716273086e-02
4.186162717217205981e-02
5.540208540130438231e-02
8.878997980075178931e-02
7.024160759397632403e-02
3.224911263271799250e-02
2.636590556698106130e-02
6.842468746346322406e-02
-6.800549925432266760e-03
2.628488040962637454e-02
7.173708453829330534e-02
2.289966095838219529e-02
3.324110836448180423e-02
2.147228964059482575e-02
3.345356334834669390e-03
-9.720216739895634617e-03
-7.716097053875456066e-03
-8.532935766473260034e-03
-2.288357331385130686e-03
2.984552760706065538e-02
5.854154522383582873e-03
-3.752541149946519300e-02
1.985172434979320250e-02
-1.619060809769931261e-02
-2.563327294722790237e-02
-3.200779984747970097e-02
-3.514959793820944534e-02
3.379777356168192637e-03
6.319273233403401024e-02
-1.253395459818008872e-02
-4.094599625775878493e-02
-1.814333413242660148e-02
-5.428312433010783200e-02
-4.015894416939856659e-02
2.557399868561820860e-02
-1.387668695674387255e-02
2.140267080995249260e-02
-3.444013661038348301e-03
-4.614015037030445854e-02
-5.395595197950926736e-02
1.714795462428772913e-02
-3.584563129211874866e-02
-3.720938643650795880e-02
-4.243776301895923336e-02
-1.097872278880033386e-03
-1.259830349550694790e-02
-2.161893091228699049e-02
6.858191620922941129e-03
-4.689810411484385266e-02
-2.478597766186922680e-02
-1.690761054740702249e-02
-7.789347458698055518e-03
4.390821940316372990e-03
-6.869893431670723305e-02
-5.419274909787063360e-03
-3.151563985928468314e-02
-3.391656512221553205e-02
-5.358616310122735205e-02
-6.054515853405800785e-02
-1.930359029170275117e-02
-3.922239649342097734e-02
-3.202431335483852531e-02
-3.819188561219060557e-02
-4.941259273800284457e-02
-8.084487165516246465e-02
-2.920793456206087491e-02
-3.240261013509625199e-02
-1.087008905069526861e-02
-5.276377759754206920e-02
4.912290476723868426e-03
5.482732610063510009e-02
-1.149142575919846754e-02
-7.605647156955416821e-02
-4.407507386012820411e-02
-8.191220888685193935e-02
-8.412175647009438595e-02
-1.008260671957658325e-02
-2.495349203853476985e-02
-3.641709790406622016e-03
4.217384214238529411e-02
-5.013533685273238033e-02
-1.147100126778772405e-02
-4.549823372255458465e-02
-2.977118150815667372e-02
3.657444959256485328e-02
-4.664657211531113290e-02
-2.459298280997648800e-02
2.811213749712801122e-02
-2.485382783193976902e-02
-3.094067922550271590e-02
-1.270502932266448157e-02
2.660999788870424543e-02
-1.255860647756282603e-02
-5.756565848773296384e-03
-2.740800083205514187e-02
-4.499194847643302186e-02
-1.814078935850896995e-02
-5.839094562293879742e-02
-3.731407608379301577e-02
-3.895941608348206520e-02
8.380665913896287456e-03
-4.845974308728157043e-02
3.232373193708927561e-03
-3.174278862397048734e-02
-3.241204034884415108e-02
7.230577259426544667e-03
-4.889858840170346888e-02
-1.417461732241319383e-02
-5.543394152207398173e-02
2.828779550755518291e-02
-4.608045119801083833e-02
4.690686992128344224e-03
-5.343241141043716946e-02
-8.466420382626110158e-03
1.181509416308364896e-02
-1.837173210259102421e-02
-1.853609276199918651e-02
-6.127342546586263261e-02
-7.635004949109508443e-02
-2.789865649197985700e-02
7.643101412298194952e-03
-5.269499671202915875e-02
-4.874619464439959582e-02
-2.177791332242000333e-02
-6.023042038628681483e-02
-2.522148640819760201e-02
-2.068202648266436600e-02
-4.870643716751067720e-02
-8.472948585518327858e-02
-2.049943623646935040e-02
-3.963970319342829951e-02
-4.442364771226570141e-02
-2.322866558728627420e-02
-2.967096082610770277e-02
-7.131187147964167250e-02
-3.933926554269440851e-02
