1.421269649172213212e+00
1.439313437751597924e+00
1.413612857146741009e+00
1.359362897057816433e+00
1.266161129422514353e+00
1.200864807499927522e+00
1.115310725029875272e+00
1.009981254236003601e+00
9.454676875061517327e-01
8.355749482458865174e-01
7.202462956670783178e-01
6.644871491268379282e-01
5.563271464170238545e-01
4.854253101575182194e-01
3.779911369908063867e-01
2.453057222393831560e-01
2.839615314974784921e-01
1.859153798512063194e-01
2.239924528600665543e-01
1.447902256392887277e-01
9.175196665620385938e-02
9.099943325151441109e-02
9.150831420898830615e-02
1.163961445157708219e-01
1.141907116054451665e-01
7.374387305675118853e-02
5.145692425508717471e-02
8.434970193218094270e-02
5.785601934639385963e-02
1.108501840397493055e-01
4.954227315038797763e-02
1.409068539007071463e-01
9.645445608551740657e-02
7.997139086430944677e-02
1.248695846723035796e-01
1.187505756969986642e-01
1.280973733268624404e-01
1.254147667618125406e-01
1.283001976101540986e-01
1.588204334839457554e-01
1.121251220695620721e-01
1.670631927391671434e-01
1.275304145803772271e-01
1.655172841055674304e-01
1.968517744976172879e-01
1.920329019075099342e-01
1.570001200359866234e-01
1.160574564009490411e-01
1.964755917658005391e-01
1.436358922451426989e-01
1.853093675938413676e-01
1.704790797155997795e-01
2.105612095658346838e-01
1.663752028328372989e-01
1.565234492838447899e-01
1.316288990243594526e-01
2.044381316401542581e-01
1.879057916027379038e-01
1.790941241229471181e-01
1.984382459443853608e-01
2.123600891507671784e-01
2.191955546583428949e-01
1.624634601110204468e-01
2.248543321897600589e-01
2.271701818539124951e-01
1.231746802592771639e-01
2.173024711162218070e-01
2.214793431590537098e-01
1.822999767962892870e-01
1.603372228645722486e-01
1.978728565232644732e-01
1.514213382731088020e-01
2.179719825841677505e-01
1.847703974027168072e-01
2.264533652028778710e-01
1.576876777854653300e-01
1.927325798133277812e-01
1.717044756827905139e-01
1.412853495346974020e-01
1.320638801977003784e-01
1.734605537633852890e-01
1.741253883008783143e-01
1.666381506462952244e-01
1.214770319111707908e-01
1.155125695248363782e-01
2.084999442997916008e-01
1.346173400034015588e-01
1.328156283320505726e-01
1.194556543605850563e-01
1.287655515658811256e-01
1.007770828969695442e-01
7.987294034675632148e-02
4.226118780352892262e-02
1.874041989241459483e-02
4.818572845916382907e-02
7.392593957360409085e-03
3.118082507956178306e-02
5.828193588145946791e-02
3.200412709774674846e-02
6.235035117493632761e-02
1.926607809638670316e-02
4.828188894774086692e-02
1.744371796211525993e-02
-6.541757382669310950e-02
7.763041265364431509e-02
7.067854933221248692e-03
-4.898571108991112144e-03
-3.660271874026956029e-02
2.204840049070802555e-02
3.239525036186394202e-02
-1.878608281809560077e-02
-1.711718809663447666e-02
1.444841080161606006e-02
-3.289856494747853827e-02
2.962989655170459452e-02
8.323744729054768920e-03
-1.105462952355937972e-02
-5.330620281753382927e-02
-6.632114561317334345e-03
-6.568586563693173952e-02
-1.863236683699068252e-02
-8.476481390337017863e-02
-2.295842447677109988e-04
1.064574057708040505e-02
-5.581109941775853900e-02
-1.131365486277596810e-03
-7.724626171247811479e-02
-4.568694921117170266e-02
-2.667870782386149581e-02
-3.504021779584871876e-02
-4.707872603004682743e-02
-2.424626020015963057e-02
-1.885788677717708736e-02
-4.319943263829356672e-02
-5.152703489201186648e-02
-7.461054993630998611e-02
-5.277410713856722085e-02
-6.168484997121806424e-02
-2.015082412284744870e-02
-4.561335048192662750e-02
-1.263808951989592311e-02
-9.945293533152058107e-02
-5.502601610158246170e-03
-6.469847339399825703e-02
-2.107976254398910912e-02
-5.924763234701909548e-02
-3.245363527853164370e-02
-5.138765426093616639e-02
-3.662923820792798185e-02
-4.587342929275189246e-02
3.378474237408779501e-05
-5.455473371924253467e-02
-2.333160220896692005e-02
-3.925140439916074975e-02
-8.693337661488148571e-02
-2.882103668376835223e-02
-3.391500622674433613e-02
-7.924915368801106752e-02
-1.016410421952669146e-01
-2.836616509904173883e-02
-4.369359175211114804e-02
-5.961739560770871332e-02
-5.021661117751574643e-02
-2.058023155339424454e-02
-7.074874494741754949e-02
-5.925589543567209155e-02
-3.677458713185605826e-02
-2.648442299281763418e-02
-2.939795222082727463e-02
2.994690494437544925e-02
-2.432329413259618628e-02
-6.303898654405282187e-03
-1.150963827726684263e-01
2.534383489278725643e-02
5.530586379449774215e-03
-7.865488929513857197e-02
-6.562556036429591233e-02
-2.800777352813024063e-02
-1.140515800472954866e-02
5.837492129791205242e-03
3.252500606408977035e-03
-4.654680515589818685e-02
7.391087594143391781e-05
2.188942038039660976e-02
-4.712216922123028950e-03
8.921210924862227332e-05
4.058743248701798811e-02
-4.697099787030235840e-03
-3.642553538737297592e-04
4.745448241898600483e-02
2.063006391052393806e-02
6.300220343352835872e-02
9.670344884821907572e-03
3.792983189459454146e-02
4.009022135158055861e-02
1.007809676878042293e-01
4.201867789866473024e-02
7.964646324763272056e-02
7.126234186276414473e-02
6.530481323689002471e-02
1.151958023077507276e-01
1.056575751040619571e-01
1.093377319081271226e-01
8.826784822321998014e-02
9.192715056137922003e-02
1.289096335943227256e-01
1.412329906936817814e-01
9.294991862958398854e-02
8.996259072323767314e-02
6.398690458974762296e-02
7.229684544626011067e-02
1.219099685285024992e-01
5.098673091160671467e-02
1.199903630166492263e-01
9.152235601119304564e-02
7.149148101758412421e-02
9.328702009977277165e-02
6.881621663730400074e-02
5.201789274128294782e-02
8.627468101833196679e-02
1.158052233120676899e-01
8.301481333974086718e-02
5.233561946686959149e-02
1.313745542907420183e-01
7.369175094291532946e-02
1.272794063820071320e-01
1.784352733075330877e-01
8.404422265077990395e-02
1.096620705991081801e-01
2.279528683584991500e-01
2.850493249362943127e-01
3.069856255525742483e-01
3.437340072047510020e-01
4.514022029353120802e-01
4.853234165974269487e-01
5.216939069870016876e-01
6.915867670056390359e-01
7.298745133283242037e-01
8.148363028396630181e-01
8.587750136777642096e-01
1.036295512768173888e+00
1.066141661238966032e+00
1.144442436802303176e+00
1.203592918151300983e+00
1.310224597114129974e+00
1.332625502810389939e+00
1.360471652529323894e+00
1.370790883978352914e+00
1.383180843272116878e+00
1.331126400574015101e+00
1.344156045358809282e+00
1.251191570831606370e+00
1.178991108922686770e+00
1.079669157085110687e+00
1.092890430416151526e+00
9.384041766006354646e-01
8.354973104568510500e-01
7.259468976868895806e-01
7.017279894868556633e-01
5.824850690491255589e-01
5.162545260142931136e-01
4.327297215566905941e-01
3.699686683453133895e-01
2.791571993368674454e-01
2.606975755336673473e-01
2.273439896007503069e-01
1.880939654174180742e-01
1.591878646953749366e-01
1.154054282961026745e-01
9.357844633040160454e-02
1.050651509282263113e-01
9.368828138613721768e-02
7.844185211369902877e-02
1.011736317413412523e-01
8.086835372974515712e-02
4.661031778356072852e-02
4.711902056135561234e-02
9.488205128910151553e-02
6.827932286631155367e-02
1.409250207684372980e-01
9.930971585369041676e-02
7.799474231551478676e-02
6.930882568715265868e-02
1.511642737891568111e-01
6.937025737797379576e-02
1.250969607206718071e-01
1.440311202477416730e-01
8.319540071254785674e-02
1.054395328911175989e-01
1.207566077315943009e-01
2.145657062415795013e-01
1.561654640050093579e-01
1.732043836762393041e-01
2.181650755382930906e-01
1.630937192898994637e-01
1.104149113761901668e-01
1.076868637820094093e-01
1.559831797685911070e-01
2.102163062414913464e-01
2.434470285675809365e-01
2.155937323005349404e-01
1.824360236212396735e-01
1.774582454559702205e-01
2.650901701810491895e-01
2.908312532402879680e-01
2.146283034937219447e-01
2.333918099553122794e-01
2.199896678404780204e-01
2.078654165318895020e-01
2.167448628225228935e-01
1.731607488105278980e-01
1.916094416270675005e-01
2.259809996892797879e-01
2.552130202784235746e-01
2.157506333656556419e-01
2.953337206648640190e-01
1.850602832614220428e-01
2.164547225035039213e-01
2.344870685500225482e-01
1.893114264515734779e-01
2.360950623546449745e-01
2.632774282920717912e-01
1.569711855318442206e-01
1.800690298126549627e-01
1.433136939523089737e-01
1.380648621291808986e-01
2.146792689578951030e-01
1.955265616955734476e-01
1.430081684543520193e-01
1.852995089933407447e-01
1.066772102628815999e-01
1.544131949764436795e-01
1.354929244533458754e-01
1.442124846220007861e-01
1.227649458648228664e-01
1.109566306971419003e-01
1.528264484316844141e-01
1.154138741456282036e-01
1.255404677767855415e-01
8.333254360915777481e-02
4.732576794720119023e-02
8.572268736281912771e-02
5.089339508564624803e-02
7.792532403695134890e-02
1.086984821077101454e-01
5.304161285974449969e-02
1.131692864473187315e-01
7.222107881795518380e-02
1.290864359991091281e-01
5.844906424679105483e-02
6.661045420357709912e-02
-1.625336903864163865e-02
2.277864910352848937e-02
2.595882928359522987e-02
8.699712859265809617e-02
9.197648283429452759e-03
6.497935484423728036e-02
6.720942805575359780e-02
-8.200121284747164535e-03
3.855717481170252425e-02
1.822878230224349999e-02
3.309164295867313144e-02
1.544205000634463545e-02
-1.022445193548063291e-03
-2.697642136800742357e-02
3.473042116512572997e-02
-3.578745986289177949e-02
2.989953972606815627e-02
-1.598787995730210215e-02
4.465442758239335230e-02
2.796114810754393720e-02
2.370978104798153463e-02
-2.463338075270927324e-03
1.203481240128980584e-02
-4.457180108443474509e-03
-7.902555837779890943e-03
2.390730902408532560e-02
-7.075286238368340766e-03
-3.646753938918358834e-03
3.830070968921027441e-02
3.803095568044657232e-02
-6.535619231250298922e-02
-8.630940537510317645e-02
1.979935385961935357e-02
2.532475013502185832e-02
-2.822981425307011932e-02
2.920313864168758849e-02
-3.348486754330901038e-02
-2.661346705420595052e-02
3.205590408002333136e-02
-3.826909904054636574e-02
-2.006490090243655960e-02
-1.402232852075766673e-02
1.618984620992492893e-02
-4.126675388239092745e-02
-4.370954342117721464e-02
-2.514712660377590309e-02
-2.386068228629289675e-02
-2.070135743690807578e-03
-4.066929040824047298e-02
-1.109713426722827925e-02
-2.606722351614356586e-02
-1.352724127923749138e-02
1.594984838565591603e-02
2.985683033363122768e-02
-6.220118851512480493e-03
3.288153695492102013e-02
-5.247553725278741865e-02
3.641198582058280050e-03
3.895939979213604298e-02
-1.154211932890550178e-02
2.879931863413653925e-02
-7.070867156228306111e-03
6.867315583507392282e-03
-7.318257732206385688e-03
-4.554148089603261840e-02
4.926948278802092962e-03
1.842809722053739135e-02
-1.869288030975022746e-02
-1.799265356418385670e-04
-5.446166340942783235e-03
3.134242390961957531e-02
3.750837665258027753e-02
6.120448830767538650e-03
-4.142223340540146861e-03
5.386419150720337529e-02
2.086265050371896579e-02
6.860255550024721427e-02
3.597865942363959006e-03
4.665233961568350518e-02
1.361781102564877180e-02
2.287357000847999727e-02
7.518798497334105990e-02
1.619085110885983003e-02
7.165797961148417938e-02
9.035463267431283196e-02
7.171893608590500235e-02
7.174705578372796155e-02
1.017168485555467322e-01
2.697229035497284919e-02
1.342695527928844945e-01
1.092148821447096463e-01
1.069904287404267462e-01
9.626702107706831824e-02
1.198090582790934666e-01
1.671192632006216205e-01
1.499396726374642719e-01
9.014762969460964059e-02
1.010253671862704899e-01
1.394184047198049059e-01
1.063297697242855805e-01
1.117262970132026634e-01
1.493873757946215797e-01
1.499657872937377179e-01
1.536462314413426233e-01
1.619958859527427519e-01
1.289799179866085166e-01
1.298020417423514372e-01
1.323588207617845403e-01
2.064016485074663676e-01
1.256657385959049633e-01
1.242761835065369497e-01
6.970560224320991594e-02
1.455124544260646968e-01
1.258412319106713417e-01
1.707140972609189067e-01
1.363655316090117142e-01
1.313309886163575302e-01
1.419181216831870984e-01
1.113871625429707218e-01
1.175750820920454243e-01
1.732237160494775052e-01
1.399270034192929280e-01
1.527389823147282666e-01
2.070092897780961283e-01
2.536977334608206402e-01
2.376027866002448918e-01
3.051553054227186257e-01
2.736255010186869896e-01
3.785928968419552398e-01
4.975282780052532328e-01
5.007814669651680095e-01
5.834411815480101682e-01
6.163245248873981952e-01
7.202786422776170649e-01
8.411065207393181309e-01
8.918914963429455112e-01
1.032948451548387103e+00
1.142714494419521998e+00
1.172261674487470096e+00
1.269203456500042737e+00
1.330904840592697980e+00
1.366489941333434155e+00
1.427311611011196968e+00
1.442730387036470940e+00
1.534280637722108764e+00
1.383335100336961165e+00
1.367056143706868010e+00
1.292661318408625970e+00
1.277820535379999844e+00
1.197371384680705031e+00
1.122213004534433622e+00
1.013199056255292607e+00
9.659264764570892892e-01
8.402583279443678332e-01
7.812945114715345030e-01
6.845946927310817554e-01
5.472872818095033676e-01
4.443613569249188489e-01
4.407965721699725892e-01
3.513955059532923308e-01
3.201030445505332334e-01
2.565563973378282014e-01
2.468632756411865969e-01
1.547190433848887048e-01
2.061633960377774188e-01
1.618506616027360068e-01
1.407873189370258959e-01
1.737643150648169599e-01
9.514945828467259725e-02
5.626822805351863743e-02
1.086361915260062871e-01
1.344091204358296709e-01
1.485838057038428028e-01
1.714797702168946170e-01
1.789362787989742798e-01
1.552959316451934801e-01
1.685630190143128926e-01
1.167393643261017272e-01
1.783200960550692105e-01
1.848923767166678889e-01
1.927877539757328895e-01
1.284396969372651742e-01
1.802490603346547093e-01
2.114979347540512644e-01
1.314006716634506244e-01
1.951955139344323797e-01
1.899663175626715717e-01
2.222043994117505750e-01
2.167170230929502117e-01
2.057276725270399398e-01
2.062913500772126096e-01
2.406487717008219951e-01
2.051633508166192943e-01
2.371214680053216339e-01
2.259214040336789409e-01
2.521623441440505320e-01
2.189686223316918701e-01
2.503820418301091477e-01
2.555418632225288644e-01
2.949527337832499874e-01
2.848897830594895875e-01
3.256545376755334842e-01
2.731352994942428669e-01
2.891775849979452140e-01
2.429990865958699398e-01
3.213619193624167591e-01
3.218747736452995944e-01
2.756677356815234736e-01
3.005202629089612776e-01
2.669377032788725068e-01
2.499562425869786553e-01
2.705386303296146711e-01
2.953863351569835372e-01
2.795620095427266416e-01
2.702934503504609842e-01
3.142456363040439515e-01
2.704791381915607751e-01
3.153364120621336975e-01
2.769541551645695043e-01
2.671174290214420877e-01
2.679031993875732875e-01
2.238034443402874274e-01
2.203737240549851206e-01
2.294140358924035561e-01
2.889348699010331756e-01
2.284507366346055224e-01
2.023425619156296873e-01
2.382443525132224571e-01
2.129876656742570040e-01
1.987828903930326518e-01
1.727833290390306809e-01
1.524259359793938562e-01
2.061583408367744230e-01
1.610683550846844503e-01
1.268400703794552997e-01
1.990468973409961206e-01
1.423910327568402023e-01
1.585294206361343994e-01
1.359549190288756870e-01
1.962066731274549614e-01
1.271196900160089516e-01
1.728949513124862503e-01
1.763730235894081511e-01
1.308100645670539075e-01
9.648070945469783277e-02
5.916331318859818084e-02
1.182823688857275457e-01
1.551779747490270034e-01
8.118483183131330883e-02
1.338650188474250491e-01
8.281419043256144086e-02
1.193658698402652596e-01
1.236218252448447463e-01
8.266763710125381304e-02
1.044962172050951793e-01
7.975491423621999809e-02
5.595036183196379354e-02
1.731030690587153503e-02
2.155362531108405422e-02
3.502164615636049749e-02
1.183835000372660401e-01
7.084372634022981230e-02
6.659222304203230025e-02
5.817405757035511160e-02
2.884015948724085940e-02
5.579510492756467599e-02
2.144049764908655814e-02
6.864288708827458174e-02
6.661241917412907831e-03
4.241384216151153352e-02
7.286319815908350039e-02
6.762653742654457789e-02
5.177528712734626865e-02
4.798715759363682970e-02
8.765191924302148663e-02
5.016770427771913982e-02
2.409124290817810793e-02
5.670437782629945966e-02
4.111819847405309702e-02
3.755656910699896323e-02
5.261587204752773278e-02
1.549555083014306223e-02
5.882245105241587502e-03
2.340667967643494940e-02
-1.856032917092505924e-02
8.912445174524673275e-02
9.568073607425364724e-02
4.698864095392592949e-02
1.370037714833087159e-02
6.396627279972594282e-02
5.549335667564119640e-02
9.322837251187859886e-02
3.865467831421956491e-03
6.747757070502923005e-03
1.938959483470760470e-03
3.243167231251839477e-02
9.437344504018146951e-03
5.390565991105158994e-02
1.058385512571047016e-01
8.513463060476642030e-02
-1.826067813543288954e-03
5.747106908409363446e-02
5.205752655298188925e-02
7.280043128494981253e-02
4.672586055377356967e-02
3.423375808139764165e-02
3.624576890789970446e-02
-1.631259428541577405e-02
3.747574846855117325e-02
4.421028762755587621e-02
7.403988534612304662e-02
5.900008414564716225e-02
3.852955392867608159e-02
8.554704350692204917e-02
6.184672378870039594e-02
1.879700644227752862e-02
3.901100743259758308e-02
4.043630494991246049e-02
6.711708970795590701e-02
3.772617830812091677e-02
9.609182903808155540e-02
8.174621844784596414e-02
6.447249626930573463e-02
7.675002600013960952e-02
6.786474613954926460e-02
9.026027711628792360e-02
8.264535416172597015e-02
1.282820622388307630e-01
5.346029114071526589e-02
8.765040113394728660e-02
1.135310216315850163e-01
5.039478259878658190e-02
1.431134001961003877e-01
1.335451427465203511e-01
1.508543959535331713e-01
5.372133526555160354e-02
1.694102813257262197e-01
1.904387380805093177e-01
1.675118977834877398e-01
1.887854072644340186e-01
1.642064462816277826e-01
1.752520457213829208e-01
1.772907221277724432e-01
2.617232486843174000e-01
1.774483019248777049e-01
1.696531539783061038e-01
1.696775018405313196e-01
2.319144009041202714e-01
1.783108339780098972e-01
2.153851230713214604e-01
1.815127037208349725e-01
2.364887926871503954e-01
2.222015924489635919e-01
2.160294030055446568e-01
2.523529743684172488e-01
1.596470016872739150e-01
2.583652843198321891e-01
2.413993669017332477e-01
2.285203423343000195e-01
1.978321771753454583e-01
2.263949865691032293e-01
2.001257700258057826e-01
2.036361123853177024e-01
2.651947137956987000e-01
1.711535559156487085e-01
1.634803230342447011e-01
1.923924684110826788e-01
1.663073401254611672e-01
1.811857590520037364e-01
2.191338029364283679e-01
2.397118439225279785e-01
3.057783299151466405e-01
2.566664937641653932e-01
3.253178710356461889e-01
3.046489438514770609e-01
4.256929912902436275e-01
4.734171611918130962e-01
4.957991707065135256e-01
6.095277352749427502e-01
6.614883526407264736e-01
6.776989926959461341e-01
8.054473841114240251e-01
8.956585659697340329e-01
1.058588008631522692e+00
1.126320883505105730e+00
1.230704755039710108e+00
1.312796835494314918e+00
1.369770025963990223e+00
1.421432093086427706e+00
1.493958032323948304e+00
1.450333278497336620e+00
1.495094695879077840e+00
1.491842572192332295e+00
1.459788833700361721e+00
1.363958232556184536e+00
1.303459940518246096e+00
1.216747612462909078e+00
1.142823850667124885e+00
1.096591915174431442e+00
1.003877724715015018e+00
8.806413495759942700e-01
7.876779967395256543e-01
6.699089208611607171e-01
6.558871615227035434e-01
4.510015722911714930e-01
5.096076820272933405e-01
4.506029440534924380e-01
3.408009159845677427e-01
3.240776224088603996e-01
2.948507614116381848e-01
2.386094077247138956e-01
2.108128551598824063e-01
2.176911366442661477e-01
1.555888564608723101e-01
1.645139994290518715e-01
1.948547742693933493e-01
1.784759108970971342e-01
1.613713608668069233e-01
1.824890370759503222e-01
1.460345791625421441e-01
1.665412095876820930e-01
2.188052623869605195e-01
2.503884449667113099e-01
1.725920973108123757e-01
2.191271723061110621e-01
1.661867704460537609e-01
1.965967456563409987e-01
1.931571352881455150e-01
1.903770435899327651e-01
2.443993408431819336e-01
2.161040538540608125e-01
2.399380463849811740e-01
2.915997397898520971e-01
2.195914026171082167e-01
2.644715246005061582e-01
2.291624247712121532e-01
2.479958701416936084e-01
2.945581558638504793e-01
2.562092653624082339e-01
2.663678991195032042e-01
2.791840899618754368e-01
2.528620144506513179e-01
2.559621077917042520e-01
3.165637093116205891e-01
3.195527714341678260e-01
3.282039736516753625e-01
2.720983187656065283e-01
3.076120154812693741e-01
3.466526037791268777e-01
3.303407374536859731e-01
2.738309321035764521e-01
3.104152732983297414e-01
2.567590998533316737e-01
3.171703308108148600e-01
3.295159748119530496e-01
3.133966903698940376e-01
2.849675778185560837e-01
2.825905379573596665e-01
3.318816516792557625e-01
2.727240634763106186e-01
3.127080363732208657e-01
3.465338928044643385e-01
3.007966109138007216e-01
2.653304985063540400e-01
3.038840964886359020e-01
2.154871694940528881e-01
2.738964509767489730e-01
2.401469253809034310e-01
2.557839969685889447e-01
1.937104228806743877e-01
2.852215356867354723e-01
2.069883802197451939e-01
2.443810154749524455e-01
2.491355206081232732e-01
2.531700598888290132e-01
1.940537040501428834e-01
2.146465160590269594e-01
2.130158115056343671e-01
2.078944607043174408e-01
2.061115547615018362e-01
2.294610390894789853e-01
1.719227895486421243e-01
1.609018514564066193e-01
2.176984720657512973e-01
2.231202706297174543e-01
2.203923804744738479e-01
1.591413306479416145e-01
1.536513141287241258e-01
1.299856888722679404e-01
1.287950222084099927e-01
1.307751414314496929e-01
1.488949427812135684e-01
1.212136344543824351e-01
9.919160872417862040e-02
7.705290679190829328e-02
1.644278432230384668e-01
1.116701206273408853e-01
1.126870317826418333e-01
3.859910696934868574e-02
6.463648594537182990e-02
1.136813955442675106e-01
4.851659558098679603e-02
6.641292462059104895e-02
8.432578646796759503e-02
3.701248798037044818e-02
1.042463984310773584e-01
7.620677263976569082e-02
6.171798988282223286e-02
7.325029770896174242e-02
5.916142110040278901e-02
1.090553125569432014e-01
9.246612535876180816e-02
1.417045987947974650e-01
6.270103624123704589e-02
1.277347067399717262e-01
3.508499785658082681e-02
9.516259916519416440e-02
5.885852155130152918e-02
5.968425144197092580e-02
5.896162165296733870e-02
7.727816240329549169e-02
5.501307095536147468e-02
-9.855627636492170218e-03
4.324301479819687988e-02
4.731106711445594998e-02
5.324592672810016247e-02
7.538255445830355228e-02
4.397370158181301142e-02
2.889472001349864885e-02
7.907916061983591427e-02
5.866876410960916721e-02
4.675202668841547254e-02
3.831913105236352257e-02
3.336454386817597206e-02
2.317088816191170686e-02
9.561059966397035537e-03
6.289688968750413445e-02
6.029390790404719203e-02
2.758218475814806780e-02
1.310492139227377104e-02
2.335184248934030898e-02
5.416371932015566493e-02
7.506541304568277451e-02
4.109243216840877122e-03
6.204210221584856300e-02
8.569323343487603162e-02
6.231117359424034885e-02
1.860044841992870499e-02
7.079532786978967596e-03
3.591342016839651347e-02
8.485059157370584970e-02
6.435528747926383408e-02
3.561849159923737018e-02
7.943206583194460657e-02
3.005534544590233656e-02
3.024792528146897502e-02
3.706092220740556803e-02
9.612096341834196894e-03
2.376662427940783723e-02
7.525797577823886697e-04
2.165171041363057533e-02
1.441073457227279309e-01
7.485343443036912570e-02
4.247368602426306039e-02
4.506471553150805803e-02
2.907354529057418896e-02
9.479953054947479196e-02
3.879002341911019780e-02
6.617253051964130939e-02
5.869278079039487450e-02
7.325695324877111447e-02
3.309655102901582630e-02
8.536848629371093788e-02
4.390082894441207917e-02
8.343699731961144728e-02
1.278564869701230011e-01
1.108467058072416245e-01
9.996637245926420778e-02
4.403477511807349365e-02
1.554614648728510629e-01
1.434261483859721187e-01
1.056109691221474578e-01
1.383592558165214759e-01
1.691761936264910005e-01
1.427260960957720259e-01
1.505210402854913476e-01
1.474299781636337625e-01
1.372275111478471754e-01
1.283617822254384810e-01
1.574926516745517868e-01
1.518262797495479599e-01
2.118107514452385876e-01
1.598939443679591732e-01
2.317637533224850555e-01
1.402265584170596657e-01
2.315803231185591116e-01
2.070948911550956895e-01
1.232498686851692671e-01
1.607865739449834686e-01
1.606983325591344047e-01
1.507001009160763294e-01
2.054685554668699288e-01
1.853221947019506877e-01
1.884267738299288397e-01
9.505284968921592914e-02
1.485968086008968292e-01
1.682549914165389071e-01
2.528872288306165395e-01
1.661370426300463055e-01
1.644764303872664202e-01
1.724488168533868937e-01
2.134079905734540539e-01
1.935980610556199133e-01
1.996673684864869736e-01
1.893947285343278719e-01
1.549569218809834781e-01
2.405784351093375462e-01
1.370165314518038413e-01
2.466360287789761130e-01
1.958019463735168053e-01
3.332139717548074920e-01
3.110124943399257269e-01
3.385305113000350863e-01
4.384854642308267381e-01
4.437256016393499314e-01
5.590863276589291830e-01
6.456784155158260541e-01
7.173271481846459352e-01
8.263856428868678883e-01
9.205721538945487170e-01
1.005612903664888202e+00
1.138425209898105139e+00
1.150716628785155349e+00
1.253103021326898325e+00
1.353111324762344969e+00
1.356982098369033718e+00
1.352268524645831693e+00
1.464361736663293057e+00
1.501164015541681884e+00
1.467134553043860201e+00
1.421745220967502110e+00
1.364602960522371511e+00
1.303820664819928421e+00
1.286720913974839897e+00
1.237711463495277719e+00
1.098014973638098635e+00
9.685569062863426115e-01
9.012186262445023299e-01
7.918613237777196723e-01
6.925578565487348071e-01
5.937218911935684407e-01
5.011445511601162472e-01
4.448852571918250343e-01
3.523211967774143027e-01
3.596945435611547670e-01
3.198827757444632214e-01
2.364067244150327152e-01
2.457375770421271199e-01
2.168501852684040221e-01
2.098020197543761234e-01
1.583135546600139276e-01
1.487390620655113516e-01
7.702112684825329625e-02
1.466645706578711961e-01
9.740508245327815506e-02
9.594718154748162198e-02
1.637250703466373025e-01
1.626565798278040709e-01
1.690006162313847926e-01
1.769721039908841442e-01
1.637545822450987842e-01
9.341423947336600919e-02
1.076748341967166539e-01
1.826546860882741208e-01
1.522558622857826949e-01
1.853429214447801510e-01
1.797606367611924716e-01
1.552605113815952176e-01
1.476061437766487683e-01
1.604023466010266463e-01
2.171460488470987604e-01
1.672256134772142910e-01
1.426688149222930246e-01
2.316055496683824544e-01
2.358975019271463691e-01
2.293971893726875766e-01
1.818286047385555271e-01
2.883817722921667714e-01
2.135923005522105955e-01
2.416454309835648073e-01
2.313699954034329487e-01
2.385091175038737688e-01
2.667854065890482573e-01
2.657387866712349611e-01
2.033825761816192013e-01
2.571410304737599684e-01
2.194459347318916398e-01
1.918846235065402583e-01
1.830244161632307298e-01
2.672810998187529208e-01
2.561759590598655101e-01
2.751596256140302899e-01
2.691772065941849257e-01
2.648651795037775258e-01
2.282705601835135212e-01
2.666716516963376082e-01
2.147526085151061359e-01
2.323440421544690493e-01
2.443712282528062718e-01
2.779335901700820677e-01
2.626323170919497851e-01
2.496850076477109270e-01
2.851023943658975712e-01
2.885055205690264524e-01
2.301952984531185353e-01
2.493221863688887263e-01
2.164325167550585627e-01
2.110769743828031231e-01
1.912194024368404910e-01
1.790125731169268930e-01
2.199920452655108327e-01
2.212519854487831616e-01
1.825187782831653727e-01
1.689272273099191035e-01
1.573144366320219367e-01
1.592510235547232589e-01
1.394340155782770041e-01
1.601799015359950396e-01
1.174120363674475281e-01
1.419209577649394038e-01
1.445217286641442556e-01
1.563928747620669246e-01
7.507255541246267427e-02
1.175586602654185436e-01
5.323391905283729464e-02
8.374088304939271421e-02
1.260934634613320171e-01
9.770538897250893862e-02
6.305654654340256404e-02
8.529753125875390307e-02
7.417482314670263699e-02
1.006844091238043720e-01
8.138019359440785971e-02
6.420814821017092888e-02
9.045795207426185480e-02
2.177779698464590852e-02
3.540526436176921060e-02
-1.380907788571095890e-02
1.206778917200939522e-01
8.004925445849927698e-03
2.671781160134024946e-02
-2.290670532615042554e-02
5.330453490003938394e-02
1.386894430814500020e-03
3.204812663620518892e-02
1.212550012085428924e-02
2.902422972681428445e-02
-2.280970955677022113e-04
7.391969977393599012e-02
7.770504610052719405e-03
3.061794864080159134e-02
-4.495680935715402893e-03
-3.089416817993219377e-03
-7.364121175624441587e-03
3.623776586016592277e-02
-1.257285575483533570e-02
-4.774988999552585295e-02
2.355014513132508425e-02
-1.035006502560159754e-02
-2.205475954123798515e-02
-6.087611906144667351e-02
1.972848554680380062e-02
2.720850818062588161e-02
-7.445875202571315687e-02
-1.837888134917760666e-02
3.042473453345047665e-03
-7.607339731669398100e-03
-1.084669224417275646e-02
-1.588351827197836269e-02
-1.824143578946189892e-04
2.326284801244056510e-02
-2.199774723139160879e-02
-4.638770092164370973e-02
-1.590858450192974768e-02
-1.988211962610305847e-02
1.107950248547397328e-02
1.294547963316004455e-02
-5.466131133947785270e-02
-5.685466641085714506e-02
-3.546025434569255452e-02
5.320507086012091907e-03
2.785814122558036288e-02
-4.958527587605735670e-02
-2.765757665481143740e-02
-5.817777251777167535e-02
-3.123583550021538993e-02
1.614343135860283121e-02
-4.683059456736675397e-02
-3.424670537039474494e-02
-3.446594296142499458e-02
-1.961636857861409275e-02
-5.068469026063053551e-02
-9.167002875324788830e-03
-8.508744916150667859e-03
-3.617571848749788488e-02
-5.762360163148991937e-03
-5.381818989262169423e-02
-5.849080424003036405e-02
2.388157996530780591e-02
-3.552397786335295682e-02
2.186095858616902976e-02
-5.008337828242070272e-03
1.427102326340457319e-02
4.665657513600429684e-02
-3.903360140863390559e-02
4.172211154294100388e-03
-6.302786125836644382e-03
-1.738572179237399956e-03
1.524472814685734826e-02
-1.359361405874178613e-02
-6.353181913968500988e-03
1.509011996923350155e-02
-5.568964311435747883e-03
2.713265344709269930e-02
6.093785920871999662e-02
1.673403131273419261e-02
5.187620899935430074e-02
5.229240783754154909e-02
4.290719631592422589e-02
1.195641212782473234e-01
7.684090161916168338e-02
4.781004194064399082e-02
8.308759714251892636e-02
9.093628689183912150e-02
9.241440745554194147e-02
1.123967573263836561e-01
1.030373557508188348e-01
7.096578821527305125e-02
1.218782680223650383e-01
1.569636764272432372e-01
1.501367158839745919e-01
4.376221111233655203e-02
9.625578801229808801e-02
1.227409751100786706e-01
8.983096395087607211e-02
1.165314888244764341e-01
1.724448809390677906e-01
1.686215401163072558e-01
1.080893275945536691e-01
7.538881117876691795e-02
9.939915511826620531e-02
1.328738433293595866e-01
1.610419536458957412e-01
1.590536789020187969e-01
1.250064899725549794e-01
1.059524500761754168e-01
1.062168945265780373e-01
1.829129439318957773e-01
5.874175266309641236e-02
1.294412966679022448e-01
9.075556733935086218e-02
8.494399012797199111e-02
1.423388102485331486e-01
1.555293811985497265e-01
1.543400907482482542e-01
1.566519984091720163e-01
2.004221732226423025e-01
1.886583567483740287e-01
2.645129284509832868e-01
2.655487970151652055e-01
3.346558837763832783e-01
3.932986923644353205e-01
4.622455993055633594e-01
5.600943926095430792e-01
6.484847026633727696e-01
7.118304073508620045e-01
7.786309818711520947e-01
8.994202922378006226e-01
1.011306141799373171e+00
1.103429666648819474e+00
1.169006961564369229e+00
1.260140306579996317e+00
1.355005086227713429e+00
1.403822545726956861e+00
1.355371075043993789e+00
1.399738759700869917e+00
1.404776440551030348e+00
1.335454718086775072e+00
1.387593908775014873e+00
1.287229500528862314e+00
1.198139995091019872e+00
1.170610081897489607e+00
1.063245741212783591e+00
9.811051110761555005e-01
8.347856638803341500e-01
7.855040650890269260e-01
6.358781164356825943e-01
5.849916099364245170e-01
5.182817255095693021e-01
4.440056489228543235e-01
3.413916230994288870e-01
2.438441945967722013e-01
2.282731856390065039e-01
2.427509463352551244e-01
1.472083471770858354e-01
1.480060358740818149e-01
1.028385777357017916e-01
1.152144729578241100e-01
9.782583132636171741e-02
8.895528240635863781e-02
3.722388243474253344e-02
3.449442448015099111e-02
4.673315045930971634e-02
6.686884771385356863e-02
7.010097013720553716e-02
3.609749181934331086e-02
1.501601254448898248e-01
4.067262346627426028e-02
1.088775676270709036e-01
1.314677352706883906e-01
8.853299826959371011e-02
7.923451824090040063e-02
9.383508320622406529e-02
1.737589383611506111e-01
1.239123609162947337e-01
1.204772192739893555e-01
1.273271159247298667e-01
9.636127144543968348e-02
1.854857327836949565e-01
1.379594256740122593e-01
1.457006179205042329e-01
1.541821917322806212e-01
1.434481923898016653e-01
1.394829341771978148e-01
1.217908012968038911e-01
1.871008623149962302e-01
1.715894945772369895e-01
1.579327416725925526e-01
2.200531672889234625e-01
2.236826787464540056e-01
1.193499783666447794e-01
1.859273578207811251e-01
1.739144161470496386e-01
2.149469232267941787e-01
1.951063285897663424e-01
2.435514988793357483e-01
1.541010371166691151e-01
1.895467425554065444e-01
1.499589587416611802e-01
1.872043476501880077e-01
1.696069808743133345e-01
2.209452179253476589e-01
2.122637158542648728e-01
1.831206148474883444e-01
1.557425568950210060e-01
2.167102294812428553e-01
1.952705228533863080e-01
1.772927011968989386e-01
2.448985184497805556e-01
2.340353559059534239e-01
1.854223287176227086e-01
1.090605333654819098e-01
1.564605105328093215e-01
1.159890667579564771e-01
2.023231359331119084e-01
1.965894828784084947e-01
1.466081885419966979e-01
1.669858256241109618e-01
1.656422462796744433e-01
1.422735274432584685e-01
1.466250647791509376e-01
1.909039027861963445e-01
1.125042055555361131e-01
7.964845168853160184e-02
9.939502668973948518e-02
9.036555120136455233e-02
1.101307833412387555e-01
1.483854416704759871e-01
8.845734305596200664e-02
1.199756828731202152e-01
9.618206741773188684e-03
8.854265245745088220e-02
4.967119823434646558e-02
6.522318261998741318e-02
8.672687022486447184e-02
8.116346791400767813e-02
2.377927440211956983e-02
6.502671020276880320e-02
3.692513248589580216e-02
1.793632187372870557e-02
3.528259005658931913e-02
-2.173537604593735184e-02
-7.332167215997423271e-02
3.131434662480275799e-02
-1.376892581949519523e-02
5.284493789752270354e-02
-9.004068442132563688e-03
-5.833653773479481608e-02
-1.690720760220525837e-02
1.541567562017508858e-02
-3.828364062960901149e-02
-7.617039593939903264e-04
-3.941304703511067098e-02
1.175167038399052566e-03
-8.268020895570513118e-02
2.689904346669186319e-02
-3.079436031702099605e-02
-5.057836190386227893e-02
-8.510749325741508164e-03
-3.287013743278523192e-02
-4.636313422489526936e-02
-4.684179599485774337e-02
-5.572165796513778302e-02
-1.922369452261033645e-02
-1.248957662013344683e-02
-3.047533794238986224e-02
-4.817001885429726682e-02
2.171372161600106793e-02
-6.444068977398426101e-02
-3.538890117852190598e-02
-8.117555851884833418e-02
-6.164933875998620388e-02
-1.054612009213309609e-01
-1.645216446962306789e-02
-1.021722199694838629e-01
-9.980982913215116770e-02
-3.773275695904165089e-02
-2.986920995071348783e-03
-1.335684946761510339e-02
-2.506399663087037488e-02
-8.865439604288245790e-02
-2.766866532434217665e-02
-6.251962727717837176e-02
-1.140079182419684312e-01
-5.498389576565734099e-02
-2.835719415924725303e-02
-7.102775591565503588e-02
-1.862582384798964347e-02
-3.766770672573864498e-02
-7.512998377036997355e-02
-6.113075749936487668e-02
-8.711116037297228498e-02
-3.908608558976887914e-02
-1.799780332953730688e-02
-6.691981528057645845e-02
-2.331705163140642550e-02
-3.220706958015437382e-02
-5.439202041897558959e-02
-1.007448440879879226e-01
-1.241792926587126644e-01
-3.638094574553772664e-02
-1.547247294785721039e-02
-3.252667663870063841e-02
-7.661623617692175925e-02
-3.348085826851656538e-02
-4.073944532215812570e-02
-3.133805308738940587e-03
-6.228486313057101514e-02
-9.535283716932010933e-02
1.162642722553998420e-02
-6.914933549998378282e-03
-2.988958353185404079e-02
-3.735201301757971881e-02
-7.410862683555309582e-02
-2.745037282815437213e-02
3.360712473562466746e-02
-2.283647456027451672e-02
-7.795238780566191017e-03
2.103476852428265431e-02
-5.495050811234353239e-02
2.354644654289975853e-02
1.592198540347960350e-02
5.548097172995351128e-02
4.976058967941357492e-03
5.601946408974069896e-02
-9.636480824892774966e-03
1.758741627070520980e-02
7.165155227084848977e-02
5.211374762559051188e-02
5.888056997876178755e-02
5.975111636135192056e-02
7.686799017208531537e-02
1.058932997445634905e-01
8.761282149654342488e-02
8.802948422705142439e-02
4.284707690930061874e-02
4.734441774754669791e-02
8.057711789043126016e-02
6.743389169149338613e-02
8.054705649161336689e-02
1.055061970527128579e-01
9.386493547505767032e-02
9.851089427064847748e-02
1.336260228561197694e-01
5.832236687482744708e-02
1.318635692020956873e-01
9.028238205666652694e-02
1.188951300487555984e-01
1.414800620293827915e-01
1.030515524741841271e-01
1.106525456460854956e-01
1.208920422564685043e-01
1.232617598478922827e-01
1.633102075957318933e-01
7.942601531572168749e-02
9.467660614518169648e-02
1.246983859714237419e-01
8.051179305203448600e-02
9.188343567130258238e-02
1.099464536078683802e-01
1.067220170893824066e-01
9.231873473713843314e-02
1.481975787416529855e-01
2.430096206794337965e-01
2.060845359484163308e-01
2.548344432374912150e-01
2.582048046494916371e-01
2.943700114891437125e-01
3.778706114228468915e-01
4.142836940140009472e-01
5.565110255279357432e-01
6.541572746533846905e-01
8.127006206333867722e-01
7.502073326973226486e-01
8.904144587330421468e-01
1.011659118607986185e+00
1.028588277677253249e+00
1.153938589223158173e+00
1.174609066985538908e+00
1.250506431884517156e+00
1.318926073778290409e+00
1.377938807273687116e+00
1.434342737147888514e+00
1.441597166390100160e+00
1.332302269467378508e+00
1.340254378345160369e+00
1.266234666941346898e+00
1.201363788131360799e+00
1.188435574227162839e+00
1.074345297255063114e+00
1.012516430585701732e+00
9.072569611240177689e-01
7.639404175815616149e-01
6.726933377911596956e-01
6.648647177373393502e-01
5.417251593695505685e-01
4.055285638195870734e-01
3.924338845038744528e-01
2.998094030157393841e-01
3.094131544358998953e-01
1.939463196003946566e-01
1.695175227107828253e-01
1.904480965356702971e-01
1.050323793428601521e-01
5.011549729974979633e-02
1.691697751388066551e-01
1.519833601687977098e-01
6.150740337221189541e-02
8.796663546000454970e-02
1.235995726611499590e-01
8.678079766216892366e-02
3.161566648729119411e-02
4.459134723983325388e-02
1.217426684352666544e-01
6.688180942204814683e-02
9.775467119278347106e-02
9.606717967736384811e-02
1.064965812548826496e-01
1.709120344642960088e-01
1.266747943246095964e-01
1.234829073090789320e-01
1.281659771149317728e-01
1.292353858151184531e-01
1.609403007144700470e-01
7.812687671878207341e-02
1.602257612834907252e-01
1.442581270403974769e-01
1.855116686233193035e-01
1.766520517362421550e-01
1.544889095019668090e-01
1.638214899301948524e-01
1.833873933778882304e-01
1.665759984549829986e-01
2.018786042371678302e-01
2.000284772635204100e-01
2.114401082247996666e-01
1.666433482019027412e-01
2.263266342511514040e-01
1.632117883043696094e-01
2.443863286528635825e-01
1.969036776830716817e-01
2.349669073285261534e-01
2.063579272802168463e-01
2.293587648423930647e-01
2.335365051876382991e-01
2.089994695248123535e-01
2.917766948636357771e-01
1.960976181436284993e-01
2.045482071653181577e-01
2.351997329333078146e-01
1.863725368792535364e-01
1.947547250093112081e-01
2.209854149670762991e-01
2.572309665444794669e-01
1.791325648219099231e-01
2.050199175665375351e-01
2.312200948847144555e-01
1.844412969827020077e-01
1.396717477334342428e-01
1.823945743539608366e-01
1.918941145161708606e-01
1.818423376900053512e-01
1.427779131178921745e-01
2.382721296277738043e-01
1.685531715286607002e-01
1.507428183048839798e-01
1.465259238064156033e-01
1.361265183609048912e-01
1.420283243198463274e-01
8.632287714093991871e-02
1.260610440519965292e-01
1.212132391478651511e-01
8.992004394974087433e-02
1.287843585236978228e-01
1.474021251609603789e-01
1.143759299561320220e-01
5.207620500161271732e-02
7.116081869944676508e-02
1.042963594524774912e-01
8.125223393729524846e-02
4.534330602573842517e-02
5.227209044366210033e-02
8.072047798448504785e-02
8.541374542304197570e-02
3.870497727336884991e-02
2.746239185208912414e-02
6.878031995220657002e-02
6.850528737833593007e-02
6.394967483900788896e-03
-4.948578308973140827e-02
9.687793239457436617e-03
2.720720913946782227e-02
-1.978284063112722285e-02
2.267492998753166053e-02
3.839059173901231831e-02
7.160480877417300938e-02
-1.174014145343688434e-02
-1.091956690621308929e-02
2.837965083367500682e-02
1.086218615984816532e-02
-1.050515278995266255e-03
-3.978782959799476160e-03
-7.108409726033484977e-02
-6.125619188029692019e-02
2.060512565930801288e-02
-1.860650870314214944e-02
-4.274108680133276161e-02
-5.896741857693860167e-02
-3.436143017520751353e-02
2.884787526372601524e-03
8.687077944383871098e-03
-6.981118670533666137e-02
-3.578597887849280929e-02
7.714053440339586204e-03
1.009852177589383448e-02
-2.485399334791154810e-02
-4.579096794338334553e-02
-1.443398733391629274e-02
-5.090494009923417218e-02
-1.500669553821021816e-02
1.910773859436265196e-02
1.360672547792052614e-02
-5.101891476716449714e-02
-2.559026076092030255e-02
2.851588497056104302e-02
1.101584583576781240e-02
-5.818850666188109255e-02
-2.460909530804876455e-03
-2.883374655088796409e-02
-3.910881858542078482e-02
2.833809854992803967e-02
3.470134398583719915e-02
-6.283825936485537555e-02
1.097341843722754104e-02
5.236775042714175710e-02
1.021984208260926300e-02
-6.710308470221071353e-02
-4.935835679912599708e-03
-2.260301424245316979e-02
-6.297516176043110869e-02
-1.489891457944344556e-02
-4.451135856284088588e-02
-4.651327642604891413e-03
1.620562119839108126e-03
-4.480286421003905339e-02
4.006048660545612899e-03
-3.015113818667219947e-02
-2.170739980386175716e-02
3.140377589445202122e-02
-6.855298652544419835e-02
-5.546656460518207404e-04
-3.894004452432962837e-02
-2.638299681977681471e-02
1.294418595627212440e-02
8.139879071200960964e-03
-2.514304273667141570e-02
-3.616910889611404251e-02
3.294230087476285318e-03
5.537516854730337168e-02
-1.061780937777289865e-02
3.640582976785560615e-02
1.142973981955614816e-02
9.649908627649779816e-03
2.933240064891751153e-02
1.886413013795636834e-02
4.067846595522679742e-02
-5.406467538686692345e-03
8.846694725112994387e-03
5.949333042881518874e-02
6.334720644044362914e-02
3.950842168274418253e-02
7.434998537810297292e-02
9.725283444466380212e-02
2.279245791678018163e-02
8.682653963581662970e-02
6.938291000570352696e-02
7.479239156138124678e-02
1.569024209264838210e-01
9.447008154855029982e-02
1.329142395118973197e-01
1.103168963933875840e-01
9.743082863487016743e-02
9.074575455259009660e-02
1.365026957382361184e-01
1.222520230347618614e-01
1.832455727877741747e-01
1.308043967956647735e-01
1.104349610545748567e-01
1.639703507039680652e-01
1.409888913183453829e-01
1.468812197719799317e-01
1.541594528451555313e-01
9.061922599866793770e-02
2.006869707888898902e-01
1.743594285000534816e-01
1.455570179614026349e-01
1.684330973066641979e-01
1.246133103571184508e-01
1.658331839494494309e-01
1.421306322268122702e-01
1.017272692113410648e-01
1.201178784863207866e-01
1.243696744612078631e-01
1.064691739362315509e-01
1.854254537393403290e-01
1.797324977054388373e-01
1.179013673768606468e-01
1.268544612130113047e-01
1.500798664600286603e-01
1.729068620271075329e-01
1.374163833704072357e-01
2.233185999691584545e-01
3.042975427631250396e-01
3.104654104419699023e-01
3.141756115386585280e-01
3.669659167554807366e-01
5.330720254095625554e-01
5.792238824133214559e-01
6.466164856942964168e-01
7.748139672453949744e-01
8.182782187722030809e-01
9.510674649739629949e-01
1.051876094063600053e+00
1.108928813195539043e+00
1.205259154694847457e+00
1.263650557009541320e+00
1.322276472085818000e+00
1.370011179107897270e+00
1.416363173146601095e+00
1.435874997936027020e+00
1.442610152603591045e+00
1.426211491510367857e+00
1.397484427222390080e+00
1.388767546617949655e+00
1.234404275079586277e+00
1.198265777500435059e+00
1.156012192938904226e+00
1.074414731824107072e+00
9.390556085333453540e-01
8.270547405377958183e-01
6.907396158309543344e-01
6.076264189694102757e-01
5.779550122864426376e-01
5.386326713927890308e-01
4.012688344658525974e-01
3.745126314329716988e-01
3.174682112434394909e-01
2.723215412045440487e-01
2.569653040650994869e-01
2.140090964293078213e-01
2.556985389230503891e-01
1.108139336607696923e-01
1.433134000603347724e-01
1.119479014384602428e-01
1.506101478154631690e-01
1.198589578069644696e-01
1.086860268796986523e-01
1.395151939312792855e-01
1.465977692574298719e-01
1.390344086520146072e-01
1.454087910202342404e-01
1.016027608617975503e-01
1.359120115342502544e-01
7.836088360602903868e-02
1.607867927055876278e-01
1.354932199357999079e-01
1.230629337480638741e-01
1.644300662980023586e-01
1.466265189458297313e-01
1.793249562721050405e-01
2.072755650303296227e-01
2.111335300952092708e-01
2.217875898914310195e-01
2.299671281770589992e-01
2.123291578253581890e-01
2.204119958771776910e-01
2.382296300395887190e-01
2.506549033004595306e-01
2.276125119649630435e-01
2.765561996211864937e-01
2.573713833344186130e-01
2.095289026722175207e-01
2.104774529840137132e-01
2.342616234971572897e-01
2.459456685459230352e-01
2.686583118287958483e-01
3.145097429553691537e-01
1.978622917026832406e-01
2.534774965218435927e-01
3.199786067152469160e-01
2.101150143175700147e-01
3.032375409936350907e-01
2.786193459417899421e-01
2.503333347132642994e-01
3.168332741321832069e-01
2.638380397835581870e-01
2.924787951303891576e-01
2.636302573189777121e-01
2.542138874808018700e-01
2.319809976550317177e-01
2.369508227420706326e-01
2.804887600256930624e-01
2.634433408815642363e-01
2.492205902193001532e-01
2.354952917171125870e-01
2.468236524904298124e-01
2.517700536581082837e-01
2.220319773043197553e-01
2.439260931298200263e-01
2.453418092102863657e-01
2.153831345520611229e-01
2.159390853317877945e-01
2.367106052628629720e-01
1.809717333844311216e-01
2.280395731309594054e-01
2.328008042841303304e-01
1.562877467350963778e-01
2.313252044068304092e-01
1.957636294084101614e-01
1.618832826225842791e-01
1.711955511701018784e-01
2.093648401260168879e-01
1.942369552089429907e-01
1.243046949687924840e-01
1.230060790397824455e-01
1.143787311982933652e-01
2.108920918212077444e-01
2.116339782303416350e-01
1.085052454699114155e-01
1.553081664437342135e-01
1.325056810384850903e-01
1.341018800012555856e-01
1.516241982172714942e-01
1.103334604148495657e-01
5.485170868168216807e-02
8.999283541598843139e-02
1.135421390755238791e-01
9.013029404983385895e-02
1.114641673584013948e-01
9.003085322810906732e-02
3.726007339592439516e-02
8.642049718267766356e-02
8.403884420627827367e-02
7.574837482121021814e-02
5.258894072154975813e-02
2.948265301167277141e-02
1.008962488095348498e-01
9.051717093571640116e-02
5.465961867212369013e-02
1.657812255189863512e-02
8.266022050918953035e-02
3.569996621925045077e-02
1.292082119487232908e-02
7.874236123154895739e-02
3.774000119513497287e-02
9.626149661148183934e-02
6.606250975700198036e-02
1.630684566527717400e-02
3.012779256025257049e-02
3.971208994764813954e-02
9.120455737013397068e-02
3.193285483846859674e-02
8.412718148073575208e-02
4.379629256173418056e-02
3.431031729265222874e-02
-5.241699157954726046e-02
3.728845945675733631e-02
1.600976651194723974e-02
7.848717471194394113e-02
1.238973226151370288e-01
7.504212751913141854e-02
6.740555563343550438e-02
5.326218797104459446e-02
3.872443686286953374e-02
5.870937961140175465e-02
1.049775937499916253e-02
3.272980508259468874e-02
2.844182369646757955e-02
8.347722211856416219e-03
5.970129383577350152e-02
5.997696959050707183e-02
2.087664397689813905e-02
2.566721036271473605e-02
6.006306947808146696e-02
2.797042796639983425e-02
2.649161068916754819e-02
5.592306303164625014e-02
7.262948955560967479e-02
7.493463245487089197e-02
3.228424938624130380e-02
4.904906820335389744e-02
3.117297441032231692e-02
3.631139132405464959e-02
8.998765068702513359e-02
4.899186080026586565e-02
2.888366863153722652e-02
2.304297440975989347e-02
5.176319001825214344e-02
5.952306179091094301e-02
3.051391400205210810e-02
4.036598651655514541e-02
7.263401484843018396e-02
3.106533171062077214e-02
2.643916520373080017e-02
8.314824688063365832e-02
3.457249941096091073e-02
4.059190226199935192e-02
8.776192161585533169e-02
1.220186978584533455e-01
-3.213539456398739613e-03
1.106400856104187286e-01
9.172307345807464984e-02
6.985679229794153344e-02
4.864432411278761526e-02
7.540254713998646718e-02
9.608127484065337454e-02
1.323653046832972968e-01
7.939669848245733963e-02
1.056035068061339788e-01
1.170001854685136233e-01
1.502337978691298259e-01
7.397395014806527891e-02
1.376810131700173523e-01
1.458561516383255763e-01
1.896271602563419090e-01
1.524415567732043675e-01
1.229117896605850108e-01
1.363064585672571216e-01
1.309712574406294849e-01
1.304316269380575433e-01
1.435785725570473126e-01
6.795497389733777538e-02
2.016253626395257403e-01
1.667045395095601568e-01
2.077960645010936136e-01
2.078737063823432318e-01
1.838211582471508398e-01
1.693051787195438418e-01
2.229820086467906304e-01
1.519823513585847052e-01
1.812566866626549589e-01
1.828613792380985315e-01
1.855793116031516088e-01
1.628118484445356673e-01
1.741247747145091562e-01
2.043888221747589273e-01
2.184271163147633310e-01
1.788192857647956657e-01
1.802316574282884498e-01
2.055795245509160485e-01
1.951593182725484266e-01
2.246063421092647505e-01
2.020669318050366814e-01
2.046677239196258713e-01
2.064713879482747427e-01
2.149030609341104070e-01
2.515688823810746655e-01
2.528403705827775849e-01
2.967192823111136635e-01
3.578789608088880914e-01
3.276122175604309072e-01
3.778979118699211104e-01
4.422502491971604943e-01
5.197609921767832875e-01
6.229705492313007964e-01
7.036848301232950798e-01
7.399063704363604277e-01
8.303925813167586378e-01
9.635965512946882416e-01
9.662370440739128652e-01
1.104835939857557792e+00
1.194022088308839935e+00
1.230055101093213477e+00
1.402461137105928124e+00
1.397763197256534751e+00
1.493575742915344007e+00
1.480918883610859549e+00
1.493482453890964567e+00
1.460214369300702142e+00
1.422857581178458952e+00
1.401690401002502639e+00
1.350728094293257353e+00
1.300406077749080236e+00
1.176802027606330681e+00
1.119992006766571624e+00
9.851729316049894214e-01
8.768766760681701022e-01
8.237800835873175798e-01
7.778401862555258672e-01
6.600551418653869407e-01
5.329073930989778329e-01
4.853415838868019860e-01
4.361505584987022122e-01
3.445886089619715764e-01
3.250228853118598549e-01
2.261306600719644178e-01
1.688550987192513619e-01
1.971833201086656551e-01
2.071709147451446520e-01
2.289835003861129814e-01
1.175428213041894432e-01
1.844445136506084326e-01
1.516984820987239968e-01
1.610815277932019507e-01
1.480256994242800384e-01
1.251499770685945145e-01
1.373910124715270187e-01
1.532649518156827539e-01
1.597749890199233747e-01
2.089080715725277482e-01
1.772072141531960132e-01
2.141244507916118256e-01
2.358463572976342015e-01
1.504574147081300106e-01
1.892934707941459349e-01
1.925738657078883698e-01
2.047585242175124498e-01
2.115513035028168953e-01
2.170818436838586329e-01
2.792792246166911352e-01
2.551248261329901457e-01
2.593036049833948864e-01
3.059199722212976313e-01
1.884966703882666461e-01
2.701836986481945257e-01
2.371212094919637747e-01
2.554689172949524134e-01
2.697514735506800765e-01
2.438999039992268136e-01
2.458859982504852937e-01
2.894685636612315260e-01
3.076771493254374379e-01
2.539074067816777802e-01
2.431203846645793587e-01
2.418288478679495868e-01
3.070715936462247719e-01
2.881135165858887959e-01
3.113168717099789595e-01
3.626228136866928575e-01
2.529124577807331242e-01
3.291680482878793779e-01
3.208146543943403706e-01
3.132966869247288400e-01
2.951803866837564572e-01
2.692978120450857382e-01
2.761879794725882742e-01
2.370008363687447495e-01
2.651333244473392803e-01
2.752507835063209285e-01
2.622468719896026146e-01
3.053681097202042283e-01
2.881634518939236167e-01
2.988749854282165552e-01
2.771625582170880175e-01
2.023497941494745711e-01
2.532816518055446275e-01
2.410224492953171038e-01
1.882612014645236587e-01
2.331564735131788357e-01
2.213025957460174054e-01
2.799812210194578821e-01
2.689922166729759034e-01
1.982150383253578341e-01
1.566696143037226152e-01
2.163270767370615300e-01
2.224120375480812262e-01
1.834540156810904599e-01
2.057992690101938527e-01
1.521999284098423666e-01
2.194304804933598640e-01
1.414625638094328119e-01
1.318259307207598485e-01
1.347575290465961029e-01
1.539566001186107314e-01
1.073856365814487290e-01
1.476755023467303252e-01
1.351672455363230330e-01
1.619865778849298721e-01
1.322403023513505915e-01
1.265071384980205882e-01
8.033485060865731830e-02
1.645055506732430728e-01
6.065088818064601206e-02
1.033194372553134233e-01
1.245851608198555727e-01
1.110657556227017395e-01
1.059499396972582164e-01
1.180345822844466874e-01
1.277679050270603689e-01
1.016095897486747890e-01
9.616232945275127175e-02
8.647653897797301370e-02
4.399266223532372067e-02
1.113120963869471125e-01
3.817986470567487356e-02
8.860010618608896160e-02
4.185472616682131553e-02
6.988972265572485076e-02
5.374787052358466488e-02
3.668333809164400772e-02
5.661392371293305636e-02
4.293090631738518542e-02
7.780509094259167868e-02
6.775187338128334236e-02
8.549379863517218847e-02
3.839360540459836602e-03
1.947614736867498558e-02
3.091231417863198744e-02
7.403958504082641667e-02
2.912760061397684161e-02
4.426124561963686033e-02
1.135596243173074560e-03
5.010883982063356334e-02
6.622283537752041149e-02
1.139836586833927745e-01
5.806205652790109167e-02
9.030219320112418957e-02
2.821138752932258326e-02
1.347319348215170534e-02
6.640986247883651217e-02
5.471868246485593612e-02
7.982203980940832944e-02
4.382375728440918855e-02
7.048295772036722306e-02
6.284216935204799126e-02
4.615285755830475511e-02
4.266485879562074285e-02
5.486823203258310577e-02
-6.335467589595467075e-03
7.312776610309756897e-02
8.166562682008116081e-02
2.758487317649652507e-02
6.371960578984316170e-02
-8.642081036950376161e-03
2.533660117527169325e-02
9.284279986946836205e-03
-7.445775879323240920e-03
2.358613577657766788e-02
7.096970414299196006e-02
5.975787435861482783e-02
5.581940307726852846e-02
4.469706923529750964e-02
1.848921582444472064e-02
6.036393695181066499e-02
1.009223178653972375e-01
2.609073466548777337e-02
9.998828060820141861e-02
3.633368114691579859e-02
4.864895212203122765e-02
4.436147241635386013e-02
5.131649617355851095e-02
7.090085977014612406e-02
1.662374189723049914e-02
4.628291545420148284e-02
9.464155311565106143e-02
3.912773574951013134e-02
1.047337571927378364e-01
4.708423563049539406e-02
6.490140867294838523e-02
7.178171978309230705e-02
9.773488750106182343e-02
1.177512755858743931e-01
1.032694322002689347e-01
1.077047423136587856e-01
7.089261684163715438e-02
1.173234812911733566e-01
2.004905902160261655e-01
1.285838680909550669e-01
1.566262024188007917e-01
1.327828909050251249e-01
1.436804474085449368e-01
1.009755011023846238e-01
1.410375038531286040e-01
1.090110435745088729e-01
1.085630506058155864e-01
1.450502359413918252e-01
1.629050547580974950e-01
2.008609991953575757e-01
1.755293149097682526e-01
1.654213451276604907e-01
2.280006431472461070e-01
1.959486995820615141e-01
1.286467069432376542e-01
1.727384105684948712e-01
1.804162381666572779e-01
1.579851488018884642e-01
1.750129332391460180e-01
1.656336628844510828e-01
1.649891627825569029e-01
2.087217827285999527e-01
1.560493136705428385e-01
1.923787699272108132e-01
2.134465610702565852e-01
1.806347089494808045e-01
1.540070622171772208e-01
1.281233098672945325e-01
2.349014800327617059e-01
1.950175069936785910e-01
1.611100514682138052e-01
1.700997340052619877e-01
1.240558583715487828e-01
1.372383194589488209e-01
1.769136470740425848e-01
1.948315335679741966e-01
2.535817980071779498e-01
2.223045044876384990e-01
2.727442852312487731e-01
2.795673978892578293e-01
3.602819487450468205e-01
4.249044987229601555e-01
4.900956571302320097e-01
5.822885520375623569e-01
5.659993264970091253e-01
6.776682315420111680e-01
7.943537732711595245e-01
9.046098744825576965e-01
1.014719922967485477e+00
1.104745031145824230e+00
1.128571417180665781e+00
1.253685270565119803e+00
1.268453649830036944e+00
1.375538650725340206e+00
1.453281989354080261e+00
1.466756548129792614e+00
1.486226359778424211e+00
1.502943858526995413e+00
1.493252410673948649e+00
1.359839781671937198e+00
1.374469370176874206e+00
1.302021457152882311e+00
1.177478386653251885e+00
1.111780638044380876e+00
1.019084196974665124e+00
8.880185150257623450e-01
8.093972075916193720e-01
7.295363484782827479e-01
6.268351641561452636e-01
5.683410788857109486e-01
4.966305879662251122e-01
4.216187106051595412e-01
3.366682036759995889e-01
2.984401197358124147e-01
2.387885144933818982e-01
2.485256004350661907e-01
2.160393456668908696e-01
1.831040610362952015e-01
1.086775000980595013e-01
1.220665633141538586e-01
1.368914312600573169e-01
1.312918552687103446e-01
7.373663677453959342e-02
1.211724737165648519e-01
1.023915912802779160e-01
1.726096034679559799e-01
1.468067273858120469e-01
1.255983632555065788e-01
1.575322026557771371e-01
1.624690077246313535e-01
1.672348881237134821e-01
1.879863601671856732e-01
1.852664733686880116e-01
2.047834118793845637e-01
1.479019773353267564e-01
1.756631526203647209e-01
2.046989615582026634e-01
1.729866037536573475e-01
2.289811853614683868e-01
2.090449141319546400e-01
2.158237350191075377e-01
2.245418184248003102e-01
1.492835130695971124e-01
1.639973286448014600e-01
2.356872236663459796e-01
2.160290990565804370e-01
2.013405596695382327e-01
2.421995300015259978e-01
2.062730459336933886e-01
3.005295016848998357e-01
2.582575880691910242e-01
1.958060864999372763e-01
2.660308646125853493e-01
2.297569010289679803e-01
2.578362494903612689e-01
2.803445845479607401e-01
3.013556391138456081e-01
1.879278815281444637e-01
2.593847449131390648e-01
3.052595527316597224e-01
2.404117928910304847e-01
2.345110700049250763e-01
2.797042935042902689e-01
2.001360361175747449e-01
2.424306595201752568e-01
2.063366879952977517e-01
2.540817786483779428e-01
2.257766316067250367e-01
2.562653154044734483e-01
2.185851657930086844e-01
2.603488975902165659e-01
2.369136484458013447e-01
2.720464530947541704e-01
2.575760484789276217e-01
2.309857833785839420e-01
2.594436499987931577e-01
1.519886449816602314e-01
2.222359056855149617e-01
2.241204063489720122e-01
2.307715114771816123e-01
1.893766889584972413e-01
1.760777502199736000e-01
1.592926326166435314e-01
1.931387300823880770e-01
1.712442279258928057e-01
1.153894432376521839e-01
1.405360143879768597e-01
1.599115462722262848e-01
1.461966867368735823e-01
1.621045818122280879e-01
1.319597393204243740e-01
1.294797885218178790e-01
9.842213878177448472e-02
1.390418782222385408e-01
1.033397343707655042e-01
1.081382089595342849e-01
1.250433551758159401e-01
5.641248578150127174e-02
1.189337685496681812e-01
6.423157987647273859e-02
3.217812201613622081e-02
1.169457770565688892e-01
3.272301635666173547e-02
9.759076773445601871e-02
7.385993282275424288e-02
1.234025954528553343e-03
4.872087395942973492e-02
2.382681933099824179e-02
5.162529878095205998e-02
3.761223317742207195e-02
5.214809213026164181e-02
7.764273740078093955e-02
1.014982653853947932e-02
2.981934237764754039e-02
-4.052479232271548326e-02
-7.237910511170648521e-03
1.631200355628091569e-02
-1.534630221104612419e-02
6.051890649912033265e-02
5.843696053007587515e-02
4.605557646101517480e-03
3.171364270200066615e-02
3.853274890940973363e-02
2.152335262732239449e-02
2.795609240895330708e-02
5.564547057646863394e-03
-1.659278282537936938e-02
1.327340206361633454e-02
9.032001802952932881e-04
-6.735505820938155266e-03
1.853863696167838693e-02
1.372982491900215027e-02
-2.820633257210066608e-02
-3.937829793381718291e-02
-3.764957076097284749e-02
3.040939083427793982e-02
-5.262466253937654256e-03
-3.058209010185707066e-02
1.463390271252596950e-02
9.933411440560044672e-03
-1.697805690729405764e-02
-2.443390543200334511e-02
-1.570536563351935394e-03
-4.323201873579472776e-02
-2.454220519462551112e-02
-1.740423112470681349e-02
-9.430242481959949519e-02
-2.137731579892523243e-04
-1.079049384086815458e-02
-3.533413351504265804e-02
-3.368940697073159740e-02
9.071231232022344826e-03
-4.418743313407325415e-03
-3.708327908164604086e-02
1.018510143997741063e-03
4.386082164171849207e-02
-1.578264170138901981e-02
-2.799890177561942944e-02
2.452540675484288918e-02
-1.123397144726004035e-02
-2.356401622701561477e-02
5.009652869968260480e-02
1.112735633777771349e-02
-2.110086809346533102e-02
5.583137519096240120e-03
-2.118995516417167962e-03
4.975477337142729384e-03
-3.328786693232596572e-03
4.322926616467234751e-02
-1.997048930934614691e-02
-4.736160548179628449e-02
-4.844662546662568958e-03
-4.934542639785566287e-02
3.164006062970782518e-02
2.111173135326698674e-02
-5.791862073990458604e-02
-2.338917243321810349e-02
4.736739723271883584e-02
1.303646711821361895e-02
3.169893144352558395e-02
1.559788928855847939e-02
2.804992847988842242e-02
6.361102971333955358e-02
6.526711092761136590e-02
3.309659710752245465e-02
1.847780136084211169e-02
2.422034593856115664e-02
5.595094073211889785e-02
7.032083886550585805e-02
1.034845878890990056e-01
8.154180600761533337e-02
8.601848997221421544e-02
8.809073366207684219e-02
7.613786656035345657e-02
6.768905178887145435e-02
9.699797888787350941e-02
1.141070120206475608e-01
1.054800526920205012e-01
8.033241252760492390e-02
8.533595117123332630e-02
8.161583015604728653e-02
1.722268531975034156e-01
1.276177578770761323e-01
1.236828918366121577e-01
1.246416224284108559e-01
1.562341267986007420e-01
1.923295024452779667e-01
1.074273995039878721e-01
1.518499102148567481e-01
1.163531469391201612e-01
1.256649855543683636e-01
1.126951312397690974e-01
1.224548904717109310e-01
1.394958531391586598e-01
6.782512886900798899e-02
1.326649404496055562e-01
1.340052251629813562e-01
4.263170664726015358e-02
1.043870560391528535e-01
1.106355185397391583e-01
1.116484614410596099e-01
1.227576316310657056e-01
1.529404593147411229e-01
1.260975996833184065e-01
2.001598135777354348e-01
2.151384016910105612e-01
2.505146256252889780e-01
2.874332656593985846e-01
3.734226401243354587e-01
4.215766688019064734e-01
4.728278269742158257e-01
5.481508833383279544e-01
6.457977307351787655e-01
6.985152130239379309e-01
7.642994343679617719e-01
9.223541183613310768e-01
9.635657808668995905e-01
1.082459995520004492e+00
1.199445105676013146e+00
1.177661052248861084e+00
1.302204422974959641e+00
1.325767501878918120e+00
1.386541065924475680e+00
1.430130124559726212e+00
1.413214084530842074e+00
1.353363329773906942e+00
1.299183385979930438e+00
1.302905414483824575e+00
1.180526333732440536e+00
1.173775664594575829e+00
1.095061448330512999e+00
1.005211333527384676e+00
8.530804414987737117e-01
7.368539720999700560e-01
7.232335718032183447e-01
6.138421523650954281e-01
5.351526981232910263e-01
4.587842830971509689e-01
3.660892848242809361e-01
2.738856346900233607e-01
2.695794962253754701e-01
2.157786014680849740e-01
1.833346478546089009e-01
2.196040997596434008e-01
9.383403338418649930e-02
9.669279086899627840e-02
4.726364463782282282e-02
1.185949559042450280e-01
4.016389777900673114e-02
5.183684857374310645e-02
7.185477751592087015e-02
