1.436896425786129194e+00
1.376948093888834102e+00
1.326623229847263330e+00
1.309273222062933506e+00
1.223827190230119433e+00
1.199469239515990049e+00
1.069649756211482172e+00
1.066679662208151358e+00
9.421126912353021687e-01
7.840482913745585591e-01
7.262076724337527267e-01
5.934917977276500389e-01
5.375491489859196559e-01
5.118596647250825971e-01
3.501550760016033936e-01
2.960506827586789624e-01
2.658911357923187113e-01
2.279440439507306460e-01
1.843219012574782989e-01
1.173588245357311544e-01
5.607616844180345061e-02
1.422035690185024792e-01
1.008392121864468416e-01
4.406517186260364843e-02
6.859161181308269517e-02
5.900570909884657322e-02
3.048580749111834409e-02
4.854234890344544945e-02
1.885976059780574560e-02
5.969865665159160284e-02
7.152167703049271130e-02
1.660698591810326474e-02
7.147827138737029851e-02
8.467095207989890071e-02
3.596375035976012713e-02
1.409921352916402304e-01
1.358470551961222239e-01
1.449854417291027431e-01
8.203336969327573724e-02
1.604933693893010327e-01
1.115050084998360225e-01
1.751959241128231981e-01
1.346885430631936664e-01
1.203607622553673207e-01
1.260893898874252406e-01
1.937145565045230722e-01
1.862271808563131237e-01
1.268295198936959522e-01
1.632597389160448387e-01
1.356585843798219226e-01
1.904112776557394804e-01
1.510546608737525220e-01
1.736550526758071644e-01
1.799786226807217060e-01
2.364411364105377944e-01
1.503644756645425573e-01
1.825069843390332291e-01
2.203659496760999037e-01
2.224066887380221347e-01
1.752128330620713326e-01
2.163331393625052279e-01
2.359720457075298872e-01
2.244854486209975908e-01
1.821444227695891704e-01
1.907788825741648098e-01
1.640976144932828618e-01
1.872752915582613364e-01
1.909124651041920195e-01
1.921000374367442531e-01
2.033249177435559329e-01
1.922527155221561701e-01
1.785053130844973801e-01
1.325750257763574635e-01
1.786218435705885788e-01
2.119258652920360253e-01
1.983512038034260239e-01
1.245038232653630506e-01
1.575701652253329033e-01
1.536155223356035493e-01
1.653726403900925013e-01
1.410277906189107977e-01
1.986574246601735261e-01
1.371612123114092086e-01
7.766272986909902865e-02
1.518576334176397480e-01
1.378546625062915809e-01
9.821021366143881104e-02
1.104550602788473418e-01
1.182617185969089268e-01
6.622241238302120636e-02
1.116719218402711378e-01
7.913173645991866678e-02
5.140561460757724771e-02
8.193796608127354442e-02
4.465015492943719133e-02
1.086838750049544944e-01
7.025291765751547068e-02
7.964791900823768589e-02
-3.365915972087948904e-02
4.575096014244796339e-02
7.970620014091520100e-02
-1.741217861645757981e-03
6.387274165065380538e-02
4.705377348804419546e-03
1.594233988219471293e-02
-8.986280284714168176e-03
2.945826213990852122e-02
1.778314998481735076e-02
2.415611836020314929e-02
-3.628501512857241346e-02
2.714730504593070026e-02
-3.645973205027649294e-02
1.179712557083532204e-02
2.353464707366569042e-02
-3.021149642936164434e-02
-1.095791306327950632e-02
-2.621847946920134731e-02
-9.624617843346260082e-02
1.770147271383720744e-03
-3.767297091129472725e-02
-3.240029506305923401e-02
2.902008006175849086e-03
-3.689826237633590800e-02
-2.857094337288953317e-02
2.786013354554502108e-02
-1.235762031284973195e-02
-1.960031338093322015e-02
-4.071947170265008409e-02
-1.952469339859311259e-02
-8.103349196234385654e-03
-4.103695210392488413e-02
-7.820174252643097290e-02
-2.915826780696947201e-02
-1.699641767403035214e-02
-5.580983451305866067e-02
-5.320188091512120104e-02
-6.848770563596152938e-02
-1.945818612463307007e-02
-5.607782901514158508e-02
-5.829511922646847533e-02
-5.579660142247699212e-02
-2.611053753634354560e-02
-2.207860139588141077e-02
-3.536876198449809272e-02
-4.919884446359164970e-02
-6.361651712760871269e-02
-4.177853437378606372e-02
-4.870253151246788786e-02
-1.960897425284661294e-02
-2.221666614447321761e-02
-2.472589166900016761e-02
1.038346235391953559e-02
2.734874906886743118e-02
-2.994795288643194858e-02
-2.998118230272993345e-02
-1.719021195165064408e-02
1.190010267886471018e-02
-5.324922585083013971e-02
-5.225403063296758799e-02
-4.723410563466872575e-02
5.309314349338283001e-03
1.651725607369149140e-02
-4.459460598300105799e-02
-2.094850056607127156e-02
3.296202980717910513e-02
-9.028074679481613851e-03
-1.505968504612564124e-02
2.125933033321601717e-02
-2.491591147858292915e-02
6.325248862825491591e-02
4.912856537752934710e-02
-5.070712685964035016e-02
-2.008447099490888454e-02
3.131298353434029680e-03
-6.293397390899908850e-03
-1.881602852387975755e-02
-9.382681535979660314e-03
1.942075409849253198e-02
2.075457328124646894e-02
7.698873009549692115e-02
7.703668127125998244e-02
5.455508669546692974e-02
5.833325765035849569e-02
3.962048286130218089e-02
9.349482872671942280e-02
3.295467558345419740e-02
6.906240432710836208e-02
5.938711398035839695e-02
1.628791129690081718e-01
9.581055474454322485e-02
1.413951414556580410e-01
1.036731971104898065e-01
1.276725633826716888e-01
1.005770274214064508e-01
8.343694034020407435e-02
6.693131279647193677e-02
5.743958957373349050e-02
1.153415914370787276e-01
1.704838746710971575e-01
6.256919603393612528e-02
8.906606965890823124e-02
1.258378029472896065e-01
9.406518776402747473e-02
1.437645821381673961e-01
1.157563908919727186e-01
1.848033471602240907e-02
9.322802121363929495e-02
1.158428157138133019e-01
9.325401355563670003e-02
1.096718864979585595e-01
8.138860617929080665e-02
1.345238389302721438e-01
9.652546380680550320e-02
4.976976841295867315e-02
1.166020843968963994e-01
1.587641911022545649e-01
2.007948903933419460e-01
1.964135788661648396e-01
2.774819409368040612e-01
3.476977667888423440e-01
4.345944742873636413e-01
3.941971698924981449e-01
5.100168354867039566e-01
6.706697087518938005e-01
7.127735189794874859e-01
7.747297712511067580e-01
9.157837694671117079e-01
1.006705150077667810e+00
1.000544429709157468e+00
1.168276800337151311e+00
1.213127860389119128e+00
1.295600094139792491e+00
1.346122401669361368e+00
1.399637980341314814e+00
1.412766563858509405e+00
1.419592214014605780e+00
1.373861737552012130e+00
1.348271697801763924e+00
1.219848251672274841e+00
1.228260356426956301e+00
1.130024911841317481e+00
1.082916601561179304e+00
9.605843600061424459e-01
8.111167209639894571e-01
7.618668534300677697e-01
6.686968938836187482e-01
5.763105392956890949e-01
5.376140897517232009e-01
4.305973212100286385e-01
3.366752202270139049e-01
2.815253778566220166e-01
2.426882272860826362e-01
2.038648327095926582e-01
1.405225523100779861e-01
1.418192173174207815e-01
9.236945055921610970e-02
5.776182400706335318e-02
8.839481133512411271e-02
3.965861075156937310e-02
8.036906767352190728e-02
4.118671250909964471e-02
6.294517698881335610e-02
4.501054878314442176e-02
7.041042577196748864e-02
1.082593477015394295e-01
5.503068981751802619e-02
9.892944418275304019e-02
1.109084256753858910e-01
6.333493585910759949e-02
1.341736005586552649e-01
1.270190549643988587e-01
1.367684419599051460e-01
1.344460598852628974e-01
1.268405983182972208e-01
1.568923191885510104e-01
1.450852478997208539e-01
1.350344734166263327e-01
1.294181875648849345e-01
1.265246872837637870e-01
1.190665682963734651e-01
1.855864954734154082e-01
2.157993287310286945e-01
1.769059445061028080e-01
2.079562881053836354e-01
1.574680103480398941e-01
2.484776542448058900e-01
2.480203512038715585e-01
1.553528463394515668e-01
1.855305886398281590e-01
1.852711169208360042e-01
2.157246411904660821e-01
2.361905254507658258e-01
2.263517037462804415e-01
1.771618019299495972e-01
2.022744485196844022e-01
2.229068647470620335e-01
2.656190263339767155e-01
1.686809401563346134e-01
2.086195504206148632e-01
1.780736948485161508e-01
2.196093874421923553e-01
1.937091976441393526e-01
1.980586862985448116e-01
1.509823236828765902e-01
2.165887471072923676e-01
2.154638735546078876e-01
2.086704766137904565e-01
2.070136990960957102e-01
2.057119294303294821e-01
1.164056177794230429e-01
1.767242928650850364e-01
1.700578464279701996e-01
1.729123150157962918e-01
1.676038383862691605e-01
1.325091926224277183e-01
1.734963293850979027e-01
1.281384554660191522e-01
1.476409492039792160e-01
9.979958043733942741e-02
9.219566210629781544e-02
1.627660123413070259e-01
1.094151347795349755e-01
1.616498973192679045e-01
6.132418677265578932e-02
9.591273338273606508e-02
8.142492832306272299e-02
7.180642124146083272e-02
1.917218682008712538e-01
7.815180271290170233e-02
1.549848988026737429e-01
1.577992625498696455e-01
8.501982748007419488e-02
1.272975185064840475e-01
4.414866381161081793e-02
4.384044630845558566e-02
5.457960150517950082e-02
8.325519187531454923e-02
6.853745219724732829e-02
2.857308369201235279e-02
7.385847786107588298e-02
2.387854806730147633e-02
6.342797948221673421e-02
8.344764452153469181e-02
6.143278187553485176e-03
1.303420546996014381e-02
1.505948002553889400e-02
-1.702283267655096965e-02
4.000726581066305076e-02
1.267229405438250953e-02
1.665775102517366713e-02
-2.617794800618383419e-02
-6.466553290094111811e-03
-2.309979626942052638e-02
3.062444115319691920e-02
2.453716695425885164e-03
2.131271432154775367e-02
-4.142623022054517379e-02
-8.540720800684376349e-03
-1.921944705606679765e-02
-2.305539464797949634e-02
4.557240033617437902e-02
-1.083656411344582383e-02
-6.200031555382130855e-02
-1.200476902201222662e-01
1.414750616900604940e-02
-1.078573835432069389e-02
6.927465632004005391e-03
4.299244474861932397e-02
9.129023918085090589e-03
-8.624923761014525320e-03
-2.274173268252671978e-02
2.293281875889337934e-03
-2.741752242823602623e-02
-2.790494252720903887e-02
-4.092085817755240773e-03
2.560542160883735874e-02
-2.221893103539200956e-02
-5.747503289715266694e-02
-3.529053337258086787e-02
-4.461736714767369424e-03
-3.264044049494398830e-02
-2.546365009710857205e-03
-3.403005240487847610e-02
-1.027658123803700842e-02
-7.097956733377389082e-04
-5.279016223664549645e-02
2.848437249935171361e-02
4.366369010505372072e-02
-2.271547930506335328e-02
1.853985059431315432e-02
1.600495203728011587e-02
9.928075211063324551e-03
-3.252452397179525501e-02
2.554027357247829963e-02
2.292649849164683784e-02
-2.583270120175387013e-02
-4.827265912295121419e-02
6.470657511821222008e-03
-1.723618821624790104e-02
3.396989461431671603e-02
-2.798260645108399322e-03
1.415564330859585968e-02
2.359253513935011259e-02
-2.720934159330591975e-02
3.163006364183805486e-02
-1.092478656649397036e-02
5.855274992690713554e-02
1.188163961071422026e-01
1.149542178568145057e-01
5.115017453966003852e-02
9.606219758817108323e-02
6.919998640314428684e-02
1.083848076735028088e-01
4.685472339567680472e-02
8.007324765864851090e-02
9.033692174063735758e-02
1.154995737850103565e-01
9.529912778447066635e-02
9.914557665162088140e-02
9.604018781574696906e-02
7.575195931190642495e-02
1.340807660447839722e-01
1.125259592462480446e-01
1.301680559448279428e-01
5.272240381922835978e-02
1.314175407423285591e-01
1.245477859487170019e-01
1.625561729499784835e-01
1.241478057435546345e-01
1.302190919640303646e-01
1.105461813723808279e-01
1.321719773231202766e-01
1.289563755350174312e-01
1.512073874742645985e-01
1.277258824209158150e-01
8.805827513249160632e-02
1.190352105004163913e-01
1.465977174972924457e-01
1.071986197861754531e-01
1.891935644170161801e-01
2.016579013799914832e-01
1.172100545064093530e-01
1.676509916317621141e-01
1.213450983974256187e-01
1.337934144977543094e-01
2.031964775620988539e-01
1.686101437396253233e-01
1.574035788426116078e-01
2.020533788861846036e-01
2.016356844406539672e-01
2.063481368873489596e-01
2.690181005547454540e-01
3.005818962625540491e-01
3.876446295202264358e-01
4.190744881141594269e-01
5.234329978146020634e-01
5.430530262271915376e-01
6.075089814931382559e-01
7.669573281972451584e-01
8.301191091538795419e-01
9.873184473576136488e-01
1.015916749043799028e+00
1.107740635483456249e+00
1.205426435264317364e+00
1.241408865182118682e+00
1.352990886651035396e+00
1.393797979877936521e+00
1.379655710525872436e+00
1.468165569503418366e+00
1.365330858943761383e+00
1.390182966451878332e+00
1.413947524842329440e+00
1.301790725881613708e+00
1.266390704998501926e+00
1.190610684285447807e+00
1.074045658847437856e+00
9.648938811477394406e-01
8.609055627992512338e-01
8.148850734871040391e-01
7.029988445326569302e-01
6.097903013402736772e-01
5.332881326504844699e-01
5.296805509097830544e-01
4.256474890790491461e-01
3.193341797791554026e-01
2.559382047554596418e-01
2.624324454813927177e-01
1.821854153089775830e-01
1.910381399366326283e-01
2.023396355159888249e-01
1.924262637625503980e-01
8.898985106026870151e-02
1.437842721797587264e-01
1.915820302346426390e-02
9.233812548839230583e-02
1.083043079952751980e-01
1.338332644889823619e-01
1.426314922946324837e-01
1.208518846161967669e-01
1.533441416405784685e-01
1.667577044122831864e-01
1.084057991617325828e-01
1.588685649727458182e-01
1.326724743624188296e-01
1.808067685599586416e-01
1.957180578491841683e-01
1.798909030153279798e-01
2.090054654716488602e-01
1.670991181755254740e-01
2.327230189857616705e-01
1.675054941157051169e-01
2.178523792823031102e-01
2.111190927780329518e-01
2.275432360155044964e-01
1.963092341220765980e-01
2.551138481735910069e-01
2.750788900999101561e-01
2.600187797453900052e-01
2.567431834083644393e-01
2.298726616519369270e-01
3.344228845878752798e-01
2.731010112624002728e-01
2.505920110362567232e-01
1.723240343577836231e-01
2.394360847339659648e-01
2.917135282818084097e-01
2.553708129359277823e-01
2.481052767220801036e-01
2.865378369272209569e-01
2.449062086967790930e-01
2.734513995149687737e-01
3.004008566654862156e-01
2.501953113458195155e-01
2.483567677219358227e-01
2.846717856969224747e-01
2.903431330057321680e-01
2.341922248666683526e-01
2.542144379237559759e-01
3.072580555551555070e-01
2.587164531796395939e-01
2.729345643095796303e-01
2.586356592566774193e-01
2.823216817174198368e-01
2.279522309623525089e-01
2.867349889407229124e-01
2.153320682546215337e-01
2.752830976512076200e-01
2.478801635944967718e-01
2.292249243127462421e-01
2.033563172983907097e-01
2.005919342556573837e-01
1.824850615487262906e-01
2.196733516078558102e-01
1.990204109309770819e-01
1.703184464624585559e-01
1.851150961657536120e-01
2.149746177274835801e-01
1.545368877319540923e-01
2.274348588195614640e-01
1.683130809360337266e-01
8.762197575215717460e-02
1.983813715362567898e-01
1.326702284783771724e-01
1.052211102860351327e-01
9.394687794465515773e-02
9.459735254646432778e-02
1.025158894582938185e-01
1.625754895910898334e-01
4.150476211030386386e-02
9.233387873597409534e-02
2.086810911013664560e-01
1.107467914785504465e-01
9.356397495743598580e-02
9.878385614270127069e-02
1.366491927024733322e-01
4.396579230618053585e-02
1.307520454285156508e-01
1.339366153605381082e-01
6.590909498617607276e-02
6.376059873915143617e-02
1.299907743902769530e-01
1.282422589098019816e-01
4.560244037827845126e-02
1.602349632684671454e-02
1.010896305717392807e-01
-1.514549694493693560e-02
7.506209878053926587e-02
1.264107792137346767e-02
4.338686413195116942e-02
3.580344553345414516e-02
7.672057370380197527e-02
5.221931418485588339e-02
4.022646260963430587e-02
5.253051374485367270e-02
1.045561105410958980e-01
2.321784816818568686e-02
7.321134710001971080e-02
1.695737660003457034e-02
3.231837353503255739e-02
1.371777679161077096e-02
4.442458386976073925e-02
6.018975645315745304e-02
9.363033067634689288e-03
4.667431268294322533e-02
4.851910944220987065e-02
4.779442237482169759e-02
-2.933251082598599402e-03
7.624796963357177715e-02
3.147700342380538308e-02
2.994693116889420373e-02
2.674289569084027651e-02
2.710087606608846400e-03
5.530875447909740228e-02
4.431176011371595891e-02
6.668552902516119985e-02
6.902463718260498649e-02
2.833890019754914738e-02
7.093471985494334553e-02
2.474747877081190719e-02
8.116455135962562240e-02
7.689341702516046262e-02
1.593717903079209727e-02
7.698348730495252479e-02
4.130691341026737629e-02
2.114545524344155214e-02
6.120364651147647272e-02
-8.256238991630748814e-03
3.897509042197101065e-02
7.411493677497632548e-02
4.160836729497703612e-02
3.878209142295023504e-02
5.200166839512161687e-02
9.250800179569543258e-02
5.254543311850749104e-02
7.391113974810144260e-02
9.045147855269713988e-02
8.606836892522368165e-02
4.926193860040449513e-02
1.229228637661956003e-01
6.954074096639191460e-02
6.074700515579868620e-02
1.150697003257888928e-01
1.280721128851475821e-01
1.371615340020218565e-01
1.175284792134394379e-01
1.076654962304741253e-01
1.327117706737951375e-01
1.006593736733050748e-01
1.682198280159515891e-01
1.489233519762638291e-01
1.438463994572407312e-01
2.120809679104288803e-01
1.840030794609716358e-01
1.214974387065747563e-01
1.805129604325404757e-01
1.966157528605661509e-01
1.813449777779491956e-01
1.647697916152164876e-01
2.176916796198885840e-01
1.996543518907187009e-01
1.674073328805897320e-01
1.630089530879298976e-01
2.099591502600344772e-01
2.249102200670705654e-01
2.020446872690695728e-01
2.143061812969022650e-01
1.916381448546676247e-01
2.448951043030985486e-01
2.050950971676491208e-01
2.085623162533200015e-01
2.071810262338513453e-01
2.040719185048655848e-01
2.136823831358305170e-01
1.299719976232343865e-01
1.602883120991623334e-01
2.030804465341995435e-01
1.715750222825098426e-01
2.001103151630616306e-01
1.995455246516364967e-01
1.819010127837154545e-01
2.334186327810727490e-01
2.023918774891584893e-01
2.478483441007533761e-01
2.720971723584509894e-01
2.489627022035416637e-01
3.151553288680045695e-01
3.777822328248106043e-01
3.646841556402522500e-01
4.378178825902290794e-01
4.963924170278639636e-01
6.378409116552856695e-01
6.880049642644812113e-01
8.030344163234388599e-01
8.467850163515684425e-01
1.000897777810473510e+00
1.035259062880670378e+00
1.093386024029840531e+00
1.179030688739856059e+00
1.278839899899625987e+00
1.358825386913814270e+00
1.407358765993040439e+00
1.449211137230115742e+00
1.460278160542637815e+00
1.485347390603244611e+00
1.407376285561482643e+00
1.388174757611918331e+00
1.460149811942559772e+00
1.327413379776265057e+00
1.189878315349220950e+00
1.147312121700017062e+00
1.025254541314490231e+00
9.814299982911277587e-01
8.606213029854625773e-01
8.071775662758712278e-01
6.600084234497533009e-01
5.949870114233474228e-01
5.697199138887990566e-01
4.826075804580693407e-01
4.274132139488848736e-01
3.546953884867983797e-01
3.571134339279010694e-01
2.752035299185174311e-01
2.420669208713142617e-01
1.836464811679241471e-01
1.721357800978626784e-01
2.189139987638486495e-01
1.469314444919919971e-01
1.587789736482704828e-01
2.000367026023234240e-01
1.974130594457089993e-01
1.401440254015519637e-01
2.001485486302223005e-01
1.810524327433002678e-01
1.674325556495600553e-01
2.003954619465821985e-01
1.881792646696934523e-01
1.871486948917268356e-01
1.815728058823262991e-01
1.806100338069279720e-01
2.207362155189731001e-01
2.515156970495678879e-01
1.683752922563265253e-01
2.032610269880190668e-01
2.168432573698362287e-01
1.814064695443989017e-01
1.721967767039554453e-01
2.673044685679150656e-01
2.161817754209732489e-01
2.369573326866708241e-01
2.044403328158354016e-01
2.562240276417964147e-01
2.861152697057827154e-01
2.649269558134164093e-01
3.012067372307823954e-01
3.008456199741282311e-01
2.406935141048967830e-01
3.021476420711346478e-01
2.603548349845841714e-01
2.919465020342351114e-01
2.715840455066216297e-01
2.908482490724881853e-01
2.712808496325100904e-01
2.976640151266680689e-01
2.835905084244972341e-01
2.943568079487615674e-01
3.011289635481262383e-01
3.459899765798712945e-01
3.332611171100581804e-01
3.088240412145180080e-01
2.582149573416174237e-01
2.644484617414925021e-01
3.152931285239038428e-01
3.004839061475372830e-01
2.672358135049918149e-01
3.389550384118868998e-01
2.390775721066880355e-01
2.838467698696103270e-01
2.509735645648455971e-01
3.142889693564432929e-01
2.417229859998522024e-01
2.365764504230785936e-01
2.126205530081563544e-01
2.516594177586272130e-01
2.683664065316762604e-01
2.388080442631398681e-01
2.123882446834090554e-01
2.309753469781826718e-01
2.500177511778981509e-01
2.196293149859841198e-01
2.134405982474205099e-01
1.975593399676503492e-01
2.212388551339641296e-01
1.938466867064111976e-01
2.197667072038944069e-01
2.267778090921123424e-01
1.481941851992276682e-01
1.677104412746868445e-01
1.621095551630541420e-01
1.882879782920290068e-01
1.771663951445291985e-01
1.476210998610814895e-01
1.711988222037380269e-01
1.743999944393331003e-01
1.241619528116524596e-01
1.687889609678378533e-01
6.859358763839196182e-02
6.380967803782475190e-02
1.045780481751594770e-01
1.215102261719915033e-01
8.978921341520439137e-02
9.936535403324664451e-02
1.040626427938105697e-01
6.634306957676947003e-02
1.096818274581197045e-01
9.792972123030756204e-02
7.946457451177893483e-02
1.726956915772207279e-01
5.050556086195418654e-02
5.633928877838844523e-02
1.195128775610107275e-01
5.634752861227512732e-02
8.466967376120337896e-02
4.822993929391151263e-02
7.793513357003467590e-02
2.023049419160485515e-02
4.515808199835857906e-02
8.740314498579387914e-02
8.986359128138335373e-02
5.980755251213775575e-02
5.166626273999501417e-02
3.918869568629852057e-02
6.213424240919595415e-02
3.290796915155645708e-02
8.422907947476021562e-02
1.118983586174887024e-01
8.657090030854835971e-02
5.636998568441324575e-02
7.624315490097449688e-02
8.057163470401793037e-02
4.709119449224859200e-02
1.789323156725709796e-02
1.069543381801632831e-01
6.214651978598503823e-02
8.788888948066625462e-02
9.219301086533737699e-02
3.521802960223114481e-02
6.067412183517216506e-02
2.720437543231945740e-02
-2.102674884596705124e-02
3.057007798099201090e-02
1.241911164741758278e-01
3.964810011972454140e-02
7.605907084501090099e-02
4.132312402239447097e-02
1.163869930101990996e-01
-6.777679026868703438e-03
5.448427178310989716e-02
1.087152196155258405e-01
5.101386340634418010e-02
9.784413151891663274e-02
7.781033253447121323e-02
4.572591661984980876e-02
-1.121780237011572173e-02
2.383012061033138243e-02
6.139996094242763935e-02
2.606666563398653963e-02
7.556284924320663676e-02
6.379642998451615088e-02
1.033037518160876411e-01
7.138619842335977572e-02
6.792593088866974438e-02
6.669058122891433071e-02
7.669203903094728991e-02
1.306838713786035999e-01
1.358214902345942221e-01
1.018593402648940299e-01
7.803905335440286528e-02
1.772267267396737400e-01
1.355249343442013477e-01
1.017537600113644358e-01
1.011418380137012879e-01
1.337219679924320781e-01
1.551831354884631309e-01
1.726805547040204114e-01
1.968737049790864335e-01
1.275817980900160187e-01
1.045293800192026862e-01
1.349717978824827025e-01
1.469120026033026716e-01
2.035227049487919326e-01
1.499631167800935527e-01
2.105475569581445605e-01
1.891535908259931453e-01
1.305969996138427736e-01
1.960373151936620206e-01
2.424331462478737653e-01
2.070734726730877051e-01
1.735667006206935148e-01
1.819896064739947861e-01
1.845199839578697543e-01
2.067305501127804646e-01
2.014922689306949399e-01
1.561007625504138852e-01
1.720521959937711676e-01
2.116201295260911330e-01
1.964888411995753259e-01
1.525507467287214869e-01
1.633877665692734515e-01
2.013191775670709893e-01
1.979972218657950755e-01
2.009736841154548259e-01
1.830477317479546062e-01
1.862906183515853353e-01
1.671370707835780900e-01
1.712991422254511731e-01
1.419987976323025813e-01
2.104058464229802417e-01
2.382673051998220604e-01
2.420112762049783095e-01
3.120656843267839431e-01
3.849852601356207327e-01
3.874541090139357324e-01
4.642485992608472167e-01
4.737178867419286621e-01
5.940551183247949618e-01
6.486082317248909046e-01
7.452402939099294077e-01
8.297621995578152720e-01
9.064229485225052674e-01
9.675411624270573441e-01
1.090891796565551353e+00
1.177502782581994145e+00
1.238363283018970362e+00
1.323169182913731756e+00
1.375749551062292575e+00
1.451919639869189149e+00
1.472058140753389255e+00
1.509761877101420957e+00
1.529201398411343504e+00
1.439143833665606831e+00
1.310290211575300567e+00
1.296984355744964512e+00
1.201335388343613531e+00
1.213019461195831150e+00
1.063903990037786018e+00
9.652327774983975317e-01
9.124954815874918301e-01
7.694308062434770390e-01
6.910252916547060531e-01
5.882537337849342851e-01
5.244474996852791504e-01
4.930190485773448539e-01
3.610227377209624944e-01
3.906620623643063395e-01
3.004954072055686654e-01
2.409755689275017154e-01
1.974559259352522689e-01
2.236230893240671036e-01
1.894435313428540213e-01
1.399748824082943932e-01
1.969805108670190930e-01
1.516900647489189125e-01
1.770395108602749457e-01
1.858575718692991319e-01
1.478739178583160785e-01
1.408419311468351864e-01
1.145258961199423914e-01
1.699005812403878990e-01
1.591858017274804249e-01
1.506404046267668106e-01
1.406512793860158761e-01
1.795608055097958344e-01
2.124727726224530933e-01
2.183590109689735048e-01
1.615339482701707297e-01
1.949339426410673648e-01
1.570690633850767293e-01
1.788591690531990963e-01
2.159730201235164904e-01
1.973522820084135376e-01
1.721840765112110649e-01
1.888294860765534211e-01
2.854309707638269522e-01
1.938379739674397917e-01
2.278399358510103112e-01
2.555778871972542166e-01
2.452995849509529702e-01
2.466840488477556603e-01
2.741533931173606997e-01
2.935185109762083466e-01
2.642136112536125903e-01
2.148968815146725664e-01
2.645298177027305964e-01
2.903243146746321557e-01
2.692493603086435483e-01
2.643057569620344549e-01
3.055195695899736719e-01
3.124487994471937258e-01
3.408830075723092712e-01
2.663195583391777532e-01
2.876134096834642717e-01
3.110376064506040761e-01
2.707377903740501024e-01
3.008604329123292787e-01
2.513634501630340745e-01
2.630351682928351309e-01
2.411462787326390522e-01
2.329703444615565944e-01
2.421408970147408135e-01
2.452097020491141588e-01
2.887303990466510983e-01
2.342090918716971393e-01
2.538413347081683868e-01
1.997057770315744663e-01
2.337453369130387815e-01
1.778223650595285588e-01
1.873334196383611983e-01
2.208542724117830425e-01
2.283441437531745499e-01
2.274235173851676672e-01
1.821198986069389736e-01
2.024073964857191765e-01
1.953540934061593626e-01
1.900015699057013840e-01
2.274875064583381790e-01
1.552297750048665381e-01
1.753251925149764689e-01
1.651968500009055596e-01
1.814015292941470181e-01
1.309113008087849361e-01
1.533971893447351464e-01
1.566994073432789736e-01
1.637749389875125805e-01
1.308545376527285586e-01
1.095829294449934266e-01
1.154749323791522259e-01
9.026252860142260082e-02
1.367269086858467764e-01
1.358732728237864729e-01
7.954119596839700004e-03
8.616585041202087791e-02
7.990572687296032539e-02
7.326064838973628257e-02
1.322214697091888269e-01
1.068695464592874789e-01
3.175378776442862316e-02
3.722657333171350974e-02
8.598008970573264853e-02
7.351156871835967666e-02
7.554199076058844275e-02
5.552572844061255675e-02
6.565379530658078944e-02
1.958745187319306871e-02
4.955828957689295544e-02
3.904142465809959384e-02
8.673687401372144612e-02
1.665592910399311607e-02
6.260172369573742401e-02
-1.426143173138279263e-02
6.181318056135082228e-02
-1.800507485390104648e-02
-5.955729314516986991e-03
1.947994612825764554e-02
4.196119506900512774e-03
-2.553340106021515215e-03
-2.057277428531144661e-02
-4.379575627612825039e-02
2.445527970562510339e-02
3.107767088654659823e-02
5.381681932651539990e-02
1.917253369908577566e-04
1.595696513579124981e-02
4.384696967250786837e-02
1.271656311205953890e-02
7.940441615972537726e-02
2.218078429419263059e-02
-7.166897020591054233e-03
8.378311499970423834e-03
-1.929481990732290556e-02
-6.323928867973167833e-02
-2.998987499639946264e-02
-8.338424484960547944e-02
-8.567397499279800696e-03
-9.568997611353801877e-03
-9.097408301092282587e-03
-2.434785981795976537e-02
-2.062223262040753860e-02
-1.322880785189323172e-02
-1.010206317727255915e-02
-1.009053273557681575e-02
1.288216747910996517e-02
-7.604826091701894636e-03
5.799314143602960631e-02
1.909730029549031038e-02
4.659708596502128847e-02
1.655762070698738736e-02
-7.244380713033869712e-03
2.557082523244355587e-02
1.662163724878869264e-02
-3.639609156869559256e-03
-1.430174698669657400e-02
4.798816855204279114e-02
5.638745935725974351e-02
1.392366698643068140e-02
9.341853077073416015e-03
6.529545483170437481e-02
3.771259271604899405e-02
4.154154703788021791e-02
-4.023022370643252431e-03
4.342548137834674471e-02
6.070470714053508715e-02
3.669592335466585059e-02
5.044597397879793665e-02
6.163904076866344450e-02
4.735698093392104457e-02
9.828891218779658989e-02
1.175350593647262742e-01
7.234351834761777733e-02
1.932035483782992835e-02
7.773990014757498068e-02
1.052808803266375159e-01
9.413704591503309349e-02
1.631380960746697806e-01
1.163187294174945624e-01
8.602854052263718410e-02
1.284420418059497027e-01
1.771166320826338125e-01
1.000314113520971299e-01
1.344360771735442495e-01
1.717627565601685391e-01
1.336342914110489888e-01
1.337220754293598768e-01
1.351482902777689510e-01
1.649713436114426113e-01
1.734432581801175766e-01
2.006868983481713553e-01
1.750060169312367409e-01
1.388627298257182896e-01
1.078014574717267998e-01
1.365126757702001536e-01
1.577587162201976034e-01
1.500600962749457645e-01
1.160107820824325536e-01
6.365957338723760017e-02
1.472137148998451939e-01
1.469999267420417643e-01
1.321079806656894340e-01
1.722732126230720751e-01
1.182202587883873640e-01
1.378114428037496841e-01
1.379187921753660950e-01
1.491654368734242897e-01
1.922457072112395693e-01
2.532130759173307211e-01
2.696380639326699247e-01
2.609754916178018136e-01
3.366135825290172967e-01
3.928581764354985850e-01
5.432567125089574622e-01
5.615769748437640096e-01
6.748026897916334921e-01
7.391066482535055826e-01
8.081381164034507902e-01
8.791690442524932037e-01
1.057773884496508776e+00
1.136948771230096078e+00
1.249179566281611864e+00
1.263242940479070375e+00
1.361512183664055131e+00
1.339899681602412240e+00
1.347965024098400910e+00
1.364839297454068179e+00
1.455257513219677667e+00
1.361032211924841917e+00
1.273642045690346114e+00
1.287114573516294769e+00
1.190291058234179467e+00
1.102447464733682381e+00
1.047967226310400291e+00
8.849466564153648518e-01
8.746821184799689064e-01
7.609985064227339224e-01
6.852284961899850479e-01
6.104539796343717573e-01
4.483735781536135612e-01
4.225858419245960285e-01
3.783376512011586423e-01
2.676622725251346369e-01
2.664370782262953652e-01
2.039945386084459078e-01
1.206379446243751596e-01
2.237832514662404237e-01
1.518567328064618915e-01
1.232517004040238201e-01
9.543002737926162271e-02
9.709357894703872505e-02
6.559822050605280952e-02
7.058748853321814010e-02
8.154678123500341824e-02
7.109176125053476292e-02
9.050243048398055878e-02
5.246860755254921516e-02
8.616930708658121496e-02
8.714247638542255148e-02
9.483643670641803136e-02
1.149671568761904961e-01
1.382185629220009093e-01
1.411580783540106465e-01
6.619068104113809414e-02
1.429130526294231096e-01
1.764629727520578562e-01
1.856936808350108936e-01
1.519804801166044772e-01
1.464826112961791771e-01
1.805704096878129328e-01
1.137917438555507976e-01
1.444597186108979581e-01
1.895177995349267008e-01
1.638562466651279914e-01
2.016920209094501537e-01
1.786500470916814742e-01
1.735098360582354171e-01
2.330567419360885517e-01
1.836521035632691645e-01
2.028530195308544948e-01
1.901475772467822178e-01
2.420419236413664799e-01
1.917353889203145534e-01
1.824947160109396671e-01
2.134572137320520924e-01
1.702643909856448035e-01
2.080766087916399998e-01
2.131964629680860313e-01
2.206948152580551492e-01
1.754007906799514016e-01
2.057685008911331881e-01
1.839544354968260520e-01
1.835736621906186583e-01
1.931043249189270949e-01
1.663933699329639970e-01
1.990157907545881122e-01
1.464282739464781158e-01
1.744946260787925973e-01
2.213065499263371649e-01
2.004914121747705669e-01
2.142925338965854243e-01
1.583616653805396401e-01
1.925350682877664810e-01
2.179912391940955207e-01
1.995727469011326083e-01
1.419840574774019482e-01
1.602661981138931990e-01
1.673866318686841048e-01
1.593471009215229883e-01
2.006488223894938860e-01
1.564453449590577361e-01
9.515143204570070123e-02
1.389743808383298862e-01
1.441092000027084652e-01
1.380920623631243238e-01
1.202074368556123318e-01
1.159384497770944988e-01
4.426046147992745289e-02
8.415367459209514844e-02
8.795133005704433571e-02
5.447187422770589926e-02
6.292744724257447186e-02
9.661522143105555349e-02
5.927635790166900509e-02
4.800054061046327147e-02
4.762994031494321989e-02
8.222839797844369580e-02
5.256067520779618418e-02
1.934732378686979115e-02
8.017497874291769355e-03
1.475454468787416179e-02
5.132460759087969365e-02
1.010863398108070160e-02
6.899192053806160740e-02
2.954621359688890114e-02
6.920664487152344835e-02
1.189900840601699344e-02
6.520047179487453715e-03
8.912897516592639680e-03
-3.718054853435107804e-02
-2.234555145871525497e-02
-1.390202629091017578e-02
-3.818354178708709135e-02
-4.383967572437019733e-02
1.022706958754396322e-02
-7.514995470404843558e-03
8.554069275140963047e-04
-6.373179762809495774e-03
-8.000124197234141643e-02
-6.225530382821682640e-02
-5.320166865286103663e-02
-7.712741732822660234e-02
3.022395765489314934e-03
-3.333039359710411598e-02
-3.029588581931001723e-02
-4.340703959895136910e-03
-2.890902128666852575e-02
-4.662309580493433081e-02
-5.249747020375802181e-02
-2.092946026554944050e-03
-4.934267233040971756e-02
1.263413535834138207e-02
-9.433154621735281853e-02
-4.140411788976711832e-02
-5.325172048370571676e-02
-7.621974145732468564e-02
-6.709698650731903136e-02
-7.204967746339671630e-02
-3.374535961732259143e-02
-6.835296207527227774e-02
-6.232896493894325707e-02
-3.987920805641095856e-02
-2.139541222163074755e-02
-8.352261871103999757e-02
-1.005868880079625327e-01
-5.942849781938342596e-02
-2.994201674534915231e-02
-4.699922311783127221e-02
-6.932248105591279352e-02
-2.877980134633561365e-02
-6.072849572159808029e-02
-2.095321429633340699e-02
-4.798138808086237217e-02
-6.414565515940907903e-02
1.256157744827145206e-02
8.833741705257532051e-03
-2.721987797056594008e-02
-1.678524100894862592e-03
-3.116417005969991660e-02
-6.372168181470719284e-02
-4.363278296788161009e-02
-1.295023694252633861e-02
6.077748363962562350e-04
2.585944948033712387e-02
-3.222603093954118370e-02
1.104891381720920357e-02
-3.148760120662886380e-02
1.180959004605974805e-02
-2.563310597020027060e-02
3.672236969156975062e-02
2.385182300128795008e-02
-2.220250245932094829e-02
3.891187583168389391e-02
-4.016359184050530273e-02
1.861139360879519172e-02
5.482375717576874058e-02
4.114849059664241887e-02
3.023913431316729850e-02
1.783789570614267850e-02
3.013350549683914414e-03
4.199746756810660009e-02
3.194564889607502678e-02
8.451239039334687564e-02
3.606111567851755934e-02
5.437685601497497384e-02
1.069309367038777103e-01
1.403604161780417081e-01
5.915013498327126307e-02
1.120026654028111190e-01
1.283298181412654559e-01
7.493100158094288810e-02
8.672392646810056505e-02
1.037976766868829448e-01
1.065904994755086099e-01
1.083441075559828104e-01
1.120920465544725797e-01
1.544515703980881005e-01
9.310081222178823168e-02
1.248561298243649476e-01
1.499323329303550723e-02
7.316173314799612193e-02
2.784888514453411068e-02
1.737162366617773790e-01
1.331555657425576578e-01
5.460716416000703510e-02
6.624766842601856331e-02
5.172183752692651598e-02
9.997416520629187620e-02
1.122677572380208766e-01
9.049486099652136184e-02
1.498781907201374997e-01
1.328057638351120562e-01
1.790970059065138120e-01
2.447465143176800750e-01
2.441317609536444999e-01
2.675891844470449366e-01
3.882256340334467870e-01
4.487054925476553491e-01
6.094992005851268546e-01
6.556593538484530859e-01
7.202155740666725814e-01
7.622994900480183356e-01
8.796006228926462889e-01
9.399663017541161070e-01
1.076003499949288678e+00
1.116660364241989667e+00
1.269774801366394978e+00
1.292058625492511492e+00
1.339524126544964888e+00
1.354722630066501621e+00
1.335333307862317076e+00
1.385475091098950839e+00
1.264627218520399055e+00
1.302212163228209540e+00
1.293852841440719992e+00
1.205014468533146754e+00
1.130153042310650502e+00
1.039494895798144247e+00
9.223808432251023870e-01
8.250277087102507734e-01
7.404415279902566427e-01
6.234973107508974266e-01
5.007699028395278251e-01
4.551115939520383735e-01
4.308741601353912598e-01
3.175456073299774418e-01
2.487378705288550151e-01
2.288806117510948646e-01
1.929847918498438508e-01
1.619689975630980439e-01
1.001242385642201471e-01
1.914412230791463221e-01
8.971146042933123010e-02
1.413260328141951461e-01
1.382286607692623237e-01
5.289373782940773316e-02
1.151931349915017166e-01
5.032949717297095782e-02
2.339514290821984727e-02
6.031107231124378104e-02
5.371269672614032570e-02
6.927274240399450278e-02
1.014732395187365466e-01
8.071949982792789302e-02
9.990873807184194599e-02
1.259545559159299388e-01
1.253357141393228735e-01
1.011312000153777590e-01
1.571452327312976571e-01
1.236533737790794230e-01
1.473109949497464766e-01
1.169064937127941295e-01
1.207644883374971168e-01
1.479395027119904393e-01
1.046469728290047307e-01
1.354898902773258029e-01
1.474678995172462592e-01
1.274076258523044181e-01
1.711345014802971576e-01
1.499556539017451451e-01
2.134270766052194790e-01
1.922487686353374636e-01
1.433615779234244103e-01
2.264141464595109954e-01
2.115701390352563716e-01
1.651094908190981481e-01
2.279834270452024136e-01
2.110633587838177117e-01
2.456080181488431713e-01
1.631068898278363322e-01
2.450870860764729209e-01
1.677201193567996185e-01
1.891750588829634872e-01
1.811023682397806256e-01
2.085452891299976463e-01
1.987275965778571574e-01
2.158610987832745021e-01
2.273761256442128897e-01
1.907641759362918021e-01
2.100728971915169496e-01
1.518460010205783528e-01
1.762896743630985308e-01
1.712971366784875049e-01
1.442575093638414074e-01
1.789145387084843941e-01
2.273754176744181288e-01
1.683234486367409521e-01
1.249416457766544253e-01
1.252292250423003295e-01
1.899348930947782343e-01
1.923095224729594044e-01
1.770600768620175791e-01
1.571906850247880849e-01
1.253563972862218601e-01
1.086340274752639473e-01
1.143052159927775147e-01
1.065301113784932752e-01
1.266080082234964932e-01
1.833429672934671628e-01
5.327099032630987913e-02
1.347205135465623371e-01
1.294982370204768862e-01
7.078749322373469044e-02
9.336953932545458135e-02
9.029500400697908213e-03
8.957764218374146548e-02
7.419411981312619420e-02
9.463801869422933111e-02
1.955402497124853617e-02
4.397849325818055377e-02
5.049951857575287612e-02
1.342699223007074588e-02
1.186643190779303886e-02
5.281604988480500390e-02
7.843827528686422856e-02
4.884170590928881006e-02
4.213684548641141725e-03
3.782256994510459214e-02
4.242528903934132678e-02
7.332392066038337375e-02
-1.742672394329049246e-03
1.469844749517810328e-02
-2.895562054974450128e-02
-2.179541125221904144e-02
-3.127699775958694972e-02
-1.695404819565024881e-02
-1.134546233794428427e-03
-6.273380494386994466e-02
2.802439860921476789e-03
-3.868205030381426102e-02
2.755952940350695629e-02
-1.619422556163192806e-02
2.378657373861903929e-02
-3.017269031761266040e-02
9.673744581143214893e-03
-7.858297281166829601e-03
-5.239142991081367773e-02
6.422493669540954575e-02
-2.267866527925713888e-02
-7.117168071339534385e-02
-2.519434257845134389e-02
-5.497194314127441805e-02
-5.399669851415787175e-02
-8.701230290969275138e-02
-6.777799529372569021e-02
-7.010727296783633711e-02
-2.509947067861920816e-02
-2.240422829126045845e-02
-6.925272816140275178e-02
-9.335854396771282870e-02
-2.605884209489649217e-02
-4.549696034907498715e-02
-4.381936286574622530e-02
-2.650488540650572378e-03
-4.886047093527363938e-03
-6.537865622087912776e-03
-3.615393061034557348e-03
1.311607705014308095e-02
-2.532752620858773340e-02
9.117871013060920016e-03
-2.910001628164930396e-02
-5.311448203093789566e-02
3.290684252670178500e-04
-5.384680478214080163e-02
2.319578267549884248e-02
3.643746653777787947e-02
3.663498758622603380e-03
5.963568938659728758e-03
-6.121823541238649580e-04
-4.288697203774220756e-03
2.737090546698566634e-02
2.652549126446798744e-02
-4.987308408326705800e-02
-5.688345898622061692e-02
-6.126162534812566729e-02
2.657835330195819357e-02
-9.532085037489885365e-03
-4.393029587532286395e-03
4.915167226378055337e-02
3.292438936017144657e-02
5.945457428906960468e-02
-5.075954209386081967e-03
2.307359922685049691e-02
5.493379897941406270e-02
7.085532443210063036e-02
6.957220195852030498e-02
1.113927436187215486e-01
5.330075284204606467e-02
4.422998929014228253e-02
4.861914283694809824e-02
7.424625879143686991e-02
2.656954743686439774e-02
1.068967444153277324e-01
1.177845428114426968e-01
1.068990819394134706e-01
7.140255296042850863e-02
1.167512499484287952e-01
9.951740233656838908e-02
1.487678298137821986e-01
8.763028750684545565e-02
1.480325011458933360e-01
1.032401040260323699e-01
8.931206370553239349e-02
1.031925523389421451e-01
1.314768326402667997e-01
1.138461086554011514e-01
1.481110130681849713e-01
1.002423491321673688e-01
9.013222423780509196e-02
1.306409420034299607e-01
1.355846611911948052e-01
8.931035281217762634e-02
9.512195836233980351e-02
1.712055830750298380e-01
1.233392511162369892e-01
4.507548372759762056e-02
1.568260795295690624e-01
1.543583725500013992e-01
1.299088641578434178e-01
6.529038389576703738e-02
1.377541287461143682e-01
1.501006918342763508e-01
1.224073955344910092e-01
1.528288765788395898e-01
1.248167144421888919e-01
1.952952392620300182e-01
2.022669400852034616e-01
2.311665345327013066e-01
3.247825087252319554e-01
3.225507647633600872e-01
3.656603490462949635e-01
4.527015856048930975e-01
5.323439693500632286e-01
6.060875014361808422e-01
7.130801792202110523e-01
7.936171134058556120e-01
9.291393656204234297e-01
1.011910700063441082e+00
1.054915896028734590e+00
1.136697161161531522e+00
1.240080536176078052e+00
1.310098753558792017e+00
1.357238074077175449e+00
1.337149909981183660e+00
1.414592219785575811e+00
1.426149541678375376e+00
1.348477110831776571e+00
1.405243976220734048e+00
1.339838404437815544e+00
1.253670710875651073e+00
1.140607536943761824e+00
1.054451304568293946e+00
9.688525582881112319e-01
9.095213758694775663e-01
7.833628917018792270e-01
6.846621660552589805e-01
6.387070195921354943e-01
5.743152818865172593e-01
3.918837921081787523e-01
3.610575919246944987e-01
2.657174745662205795e-01
2.591952006070507020e-01
2.468355749465604432e-01
2.035066793183979428e-01
1.962110578966915209e-01
1.594295451472570457e-01
1.329243736206037196e-01
1.054167327139722415e-01
1.373780904394479585e-01
1.177641855715883257e-01
1.284112419841453856e-01
1.333807723438115433e-01
7.532136752419038572e-02
1.180412544746668735e-01
9.796262597639437963e-02
1.691523540495566136e-01
1.313566736226920995e-01
1.702361920536538953e-01
8.499128731201811837e-02
1.378149196186942982e-01
1.123929876852725745e-01
1.655100768037292003e-01
1.458780601265121935e-01
1.381619674360327343e-01
2.172085634150043576e-01
1.299597855840055050e-01
1.886300524401209600e-01
2.108172114938567654e-01
1.518643854249320246e-01
2.128791639384124412e-01
1.659454326453895234e-01
2.109822610170642987e-01
2.142243071624876649e-01
2.165656085589830471e-01
2.046071865549789204e-01
2.533636899702895739e-01
2.141496620856059296e-01
2.326647266710647477e-01
1.903590702632780851e-01
2.418656233622377971e-01
2.653960301367428443e-01
2.376292806547806724e-01
2.795963992996465808e-01
1.946338663873085073e-01
2.889766158215453795e-01
2.515675745554891152e-01
2.054107397017680692e-01
2.851060437931036695e-01
3.011233606102275973e-01
2.493259015280255564e-01
2.424244487895080014e-01
1.893166648237906702e-01
2.626220733660001305e-01
3.000020557312892966e-01
2.203155599796959019e-01
1.809458433322139181e-01
2.735550409753615964e-01
2.230189301182061434e-01
1.880996732317721520e-01
2.524554858654901590e-01
2.356386850695721680e-01
2.343446812091229126e-01
2.263556111766273360e-01
1.860745022140633809e-01
2.099718467283298307e-01
1.807061080155021870e-01
1.972623009642149594e-01
2.638525200335177789e-01
1.593794863658034022e-01
1.525443300386435663e-01
1.850796243348508119e-01
1.480841683668015218e-01
1.626468206265991867e-01
1.785814840206707554e-01
1.980974470879050264e-01
1.362899589226192198e-01
1.760926665915055755e-01
1.843647408845021651e-01
1.334845474225044848e-01
9.706388842995063160e-02
1.042894930127132719e-01
1.148269501070962040e-01
1.440385493097303682e-01
1.165404172346093947e-01
5.782316620280978509e-02
1.557721117905202790e-01
8.213778738151827907e-02
8.897789820150375784e-02
9.691366069293265439e-02
7.656154832383051112e-02
7.997261255453554096e-02
7.656916055938986498e-02
8.737456815471050797e-02
6.147568053653250375e-02
5.882728913140672367e-02
4.756556079996465680e-02
7.092435755412473952e-02
8.013031256067479347e-02
5.877334050811187927e-02
6.912027177093932329e-02
2.733222418887885918e-02
7.737442822379629603e-02
7.955145310332700781e-04
4.479315411377459560e-02
3.749094777936302220e-02
6.894375210347514216e-02
3.915133431472515163e-02
3.163599261118057310e-02
3.396055152043356978e-02
4.465140457688691888e-02
3.444697383971200705e-02
-1.021738927154499689e-02
1.032003424326318961e-02
5.590243066467920352e-02
4.265257752043939699e-02
2.104018506180120596e-02
3.027405761257845676e-02
-3.798917285936245780e-02
4.066383271689356926e-02
4.983143717403189232e-02
4.974886661229172002e-02
6.749020332931955635e-02
7.990023659839073922e-02
-4.752954067003579974e-03
7.671461459347282685e-02
3.276657835372838445e-02
1.393931751767006275e-02
7.698718285965051866e-02
9.641844516258975262e-02
6.615744569575335299e-02
2.759293342047300715e-02
1.832452710628794390e-02
1.652055451805670497e-02
5.957698107321465764e-02
1.649382122885894447e-02
6.091961748752036665e-02
4.090903167289398901e-02
2.652944561635117715e-02
3.971392238300801292e-02
4.811901097620334411e-02
3.841178853583041702e-02
6.061020796794445997e-02
6.147971744612244771e-02
7.032928850745596983e-02
4.204545229310323318e-02
2.209462095560129832e-02
1.052362202391968066e-01
1.624310294372986047e-02
7.038553551403370356e-02
5.966954027308656733e-02
5.417682971713195378e-02
9.538271346705524956e-02
7.330706280246558626e-02
5.454434191742207894e-02
3.768624542326577675e-02
1.010652325805579121e-01
6.153638908027644905e-02
1.034427440574366142e-01
7.913871842275183033e-02
8.035359319712756521e-02
1.189502691959651304e-01
9.351603996810349539e-02
1.278098703708723527e-01
1.236188778200166816e-01
1.435434358978044667e-01
9.208791039342453799e-02
1.108224534054566279e-01
1.566913937895486886e-01
1.235888023994631268e-01
1.612915972599216208e-01
1.622983355991577392e-01
1.679235268436030104e-01
1.571592835162995416e-01
1.553800952415753389e-01
2.100685355085344930e-01
1.239578246940490763e-01
1.439073427799187899e-01
2.062470183457687789e-01
1.706754265766850798e-01
1.900817179580245875e-01
1.589927728505280136e-01
1.077787247029307061e-01
1.522583329023420584e-01
2.020173502878841454e-01
1.540462965613764168e-01
1.931549356084108493e-01
1.759553758000125534e-01
1.610684534278655766e-01
1.966311610739721050e-01
1.403258743785107676e-01
1.662404928330723786e-01
2.158396939790536428e-01
1.736481004985112042e-01
1.922545767362562052e-01
1.757472045566441654e-01
1.764618979462811710e-01
2.165009437235264345e-01
1.223642301487208872e-01
1.968446785120120390e-01
2.412462660010202542e-01
2.841780298256109116e-01
2.654512056982794022e-01
3.707710543505742806e-01
3.839803813489968132e-01
4.462411544477276060e-01
5.718527921041941520e-01
6.070807632317457569e-01
6.681264741301893295e-01
7.693836217651490728e-01
8.267291526027492621e-01
9.428240268790569756e-01
1.085826809780942703e+00
1.182903533572644550e+00
1.156785137990427703e+00
1.296542926496222936e+00
1.315545794921796352e+00
1.371147379630662133e+00
1.473190618613143155e+00
1.478666810267673437e+00
1.429781818538191640e+00
1.468601373875576765e+00
1.434204898737715617e+00
1.347744804505745631e+00
1.355283143577772353e+00
1.232852217811496676e+00
1.137639092555114528e+00
1.137891935643207786e+00
9.809279124464043154e-01
8.549893668026341542e-01
7.705939252434672593e-01
6.664612799924189979e-01
5.749230331134994598e-01
5.400453597580909815e-01
4.691254143797993770e-01
4.442387233013306846e-01
3.217513627032639878e-01
3.302414006585125961e-01
2.248712674600373829e-01
2.308310339024378932e-01
2.193741615670963541e-01
1.950774405153586633e-01
1.739882987874827036e-01
1.414759494674390772e-01
1.296171839659522040e-01
1.304239022784098312e-01
1.455907727759472858e-01
1.626179169381996026e-01
1.410321607957472634e-01
1.612542856975240635e-01
1.387428341159842038e-01
1.900289373079018518e-01
1.889257102672249333e-01
1.970628956933946629e-01
1.889365331154018446e-01
2.359185090788131767e-01
1.728505296829100091e-01
2.131974478285958152e-01
2.032368260008644012e-01
2.062175209708348722e-01
2.623054702982791087e-01
2.351933163243544733e-01
2.001698795567366240e-01
1.936869231164477234e-01
2.357302506523682450e-01
2.360111159344273624e-01
2.410546536536090911e-01
2.433382386834462563e-01
2.299895810556800146e-01
2.664731063360506469e-01
3.174858767222492606e-01
2.743088747588761644e-01
2.620204772284348560e-01
2.739411940452347594e-01
2.914944153454405718e-01
3.271874425180869572e-01
2.568629931329535210e-01
2.553184010938512327e-01
3.268903790975332679e-01
3.238396182967776538e-01
2.756491685624142263e-01
3.177874582409109805e-01
3.057685392763160315e-01
2.912815647891360271e-01
2.975958739132060771e-01
3.108509463245689441e-01
3.672723005109423955e-01
3.212916714241328409e-01
3.104782960999029617e-01
3.106545416735217446e-01
2.510529885914976611e-01
2.968649534294542924e-01
2.593624399611685338e-01
2.189087131916996332e-01
3.103290643636852919e-01
2.454352271337620350e-01
2.139594227820695582e-01
2.460285125607231393e-01
2.081274360080782870e-01
3.114778061849853841e-01
2.953346229202541418e-01
2.334973050227167890e-01
2.393736062992503355e-01
2.261155491959916108e-01
2.274765969339855032e-01
2.023789249180590888e-01
2.104343659870652750e-01
1.641029621675419159e-01
1.798742741452264982e-01
2.399259689644477334e-01
2.454150457217840198e-01
1.840434282436045343e-01
1.906174403134246464e-01
1.762299977097387393e-01
1.180387816921120436e-01
1.521608624962867418e-01
1.323981047768948982e-01
1.534462929170173906e-01
1.387281950162189970e-01
9.151511455022035002e-02
1.252122080871522214e-01
7.120207059888326862e-02
1.230408512458068537e-01
1.112804681671078766e-01
9.149933402222595880e-02
1.179062866629346784e-01
8.421454940852599047e-02
8.972690955051712547e-02
4.131141842342539450e-02
1.396758053003674949e-01
1.142107782498851254e-01
8.869078182363032692e-02
1.025909287653870017e-01
1.408387951697506191e-01
8.820913704321456383e-02
2.587942167166195490e-02
1.370202665828594846e-01
5.595777740945588608e-02
6.105285731595271742e-02
8.543682630797366784e-02
3.619565822515352638e-02
1.013688888148259748e-01
6.789984957078205874e-02
6.652763800456829024e-02
6.385062545060138373e-02
7.598801885087871910e-02
1.031847189609737120e-01
2.849152481342641721e-02
5.745506921093684882e-02
3.120444195517866129e-02
4.995661192681130625e-02
6.173965029331189569e-02
4.570370852459665345e-02
9.325461272427339188e-02
8.855217832828174429e-02
1.048809734834474372e-02
5.434364091027121119e-02
3.932998635786036368e-02
4.002046636981548833e-02
7.833782885393619777e-02
2.517045871458622672e-02
6.351734949339758740e-02
5.207230363570478082e-02
7.032317959799802565e-02
9.337561307202105199e-02
9.877406873210714533e-02
7.292157715609823287e-02
9.064254571356944457e-02
1.460609504679917514e-02
3.531849100088733928e-02
5.904841868157534313e-02
1.357637593715307900e-02
3.356531689741401592e-02
6.749304825325488921e-02
9.493521631087870061e-02
7.638679002597142942e-02
4.735171191111184341e-02
7.964720940311431630e-02
3.344901901813553818e-02
7.930041128802456374e-02
7.470224123460661447e-02
-5.988799529214605677e-04
7.242514047856515869e-03
6.082148732946050101e-02
7.467188868847822458e-02
3.880226431952930877e-02
8.985178345025127133e-02
1.114418120586276317e-01
8.401624583716141292e-02
1.036545954001906050e-01
9.326800665079701402e-02
6.723678670557174664e-02
1.235527492426425622e-01
9.726891492644743065e-02
1.430541245813022333e-01
1.332411090179748125e-01
9.314673710068790968e-02
8.750003082260793263e-02
1.496210840186615321e-01
1.270447861114939181e-01
1.339774832349179823e-01
1.564107696264115943e-01
1.301566133254198621e-01
1.131479280844223390e-01
2.131257803742523937e-01
1.796181531705731971e-01
1.620432941797723680e-01
1.141773473126067029e-01
1.130301014650893221e-01
1.588146061154090405e-01
1.890162608139854816e-01
2.111267114240188980e-01
1.989276316761112995e-01
2.076179930299157927e-01
1.635767397252319011e-01
1.866829640576214144e-01
1.613921898578092318e-01
1.897537771528395034e-01
2.012218492856800434e-01
2.349655606022263143e-01
1.703880312930544094e-01
1.968857278505966035e-01
1.890393170680351176e-01
1.784224300016158948e-01
2.372304976948501343e-01
1.768091309043676729e-01
1.968689032846309694e-01
1.758718896092066053e-01
1.703852965104954154e-01
2.243105510569569083e-01
2.212863587483649419e-01
1.851499820152477938e-01
1.713626911299963584e-01
2.787285457622065143e-01
2.295409866010205413e-01
2.484419418551542802e-01
3.100266741398357562e-01
3.041240921756266369e-01
4.056204085854614450e-01
4.431173799089624943e-01
5.136429737362570025e-01
5.299743005631768478e-01
6.450321506755228862e-01
7.169656962484237672e-01
8.000961348245705373e-01
8.860649607250438153e-01
1.017203908735804907e+00
1.116560108463044543e+00
1.222820847629349394e+00
1.258556223350153047e+00
1.378939865662531794e+00
1.398471268187850169e+00
1.486646988192120045e+00
1.457923079643610675e+00
1.459841665752857010e+00
1.499382149032848499e+00
1.392486828043963065e+00
1.398019386649347329e+00
1.330494884393775168e+00
1.252402943180743522e+00
1.144822122040557222e+00
1.059901715201571726e+00
9.798903406757921708e-01
9.103532556208556725e-01
8.067482187526178183e-01
6.222154201618083080e-01
6.365465774473226812e-01
5.440981163797660169e-01
5.089489956804639226e-01
3.836550129561955846e-01
3.472570020138853741e-01
2.824017831095609887e-01
2.982404337801197736e-01
2.491734124860706667e-01
1.811283766317796085e-01
2.382901338625689758e-01
1.454301524043656313e-01
1.599672979550360030e-01
2.166043852683405269e-01
1.483250954223147011e-01
1.443164907303449707e-01
1.494761806163141249e-01
1.303836920445305692e-01
1.771331112108560091e-01
1.439758959277493144e-01
1.412090093240250810e-01
1.819102572913157412e-01
1.629857776248038181e-01
1.624183247262557250e-01
1.610451219065927586e-01
2.006062176178853573e-01
2.039480051256056803e-01
1.590932451162107575e-01
1.659583888807362184e-01
2.224723816478326455e-01
2.153734171891679150e-01
1.989757673625842938e-01
2.781122165590085848e-01
2.202205468964891222e-01
3.092690831132606788e-01
2.498777076853374857e-01
2.722044929173834671e-01
2.720944806010167083e-01
2.821200764829795427e-01
2.387762438378924768e-01
2.756183429082874614e-01
3.169748399328611854e-01
2.650479461659745462e-01
2.961397195541063954e-01
2.970307001817454884e-01
3.192830238193325454e-01
2.492878950895780210e-01
2.647344892608278211e-01
2.803529116912921726e-01
2.723800286266403470e-01
2.973880510738516891e-01
2.417430429492739563e-01
3.147360049677281890e-01
2.785108911714008761e-01
3.027438643357821535e-01
2.837097027693649132e-01
2.829328444265014064e-01
2.837258939018995063e-01
2.766702267025690221e-01
2.513022138859750676e-01
2.806726888582651847e-01
2.109798750827107383e-01
2.792208884211732078e-01
2.601297762722695195e-01
2.516987801633412403e-01
2.215606326276404747e-01
2.099954734816872060e-01
2.916426510774259850e-01
1.809291885488139573e-01
1.640331957520574369e-01
2.419625796306182630e-01
2.044749614414597683e-01
1.945638100927062908e-01
1.361553838549423023e-01
2.385528717486549710e-01
2.326411562173648639e-01
1.765671599839847561e-01
1.416384667297871103e-01
2.028060196410916005e-01
1.632152358939372161e-01
2.193622187056930850e-01
1.791317703444845755e-01
1.768478842841918752e-01
1.403373927033129687e-01
1.420571346513103128e-01
1.116907752842281887e-01
1.229710442544760807e-01
1.057144817549942190e-01
1.355294317144961347e-01
1.226800794393372862e-01
8.066777088104612470e-02
9.332425918359062156e-02
7.607973088820885188e-02
8.845553345736141548e-02
7.639092023265967035e-02
5.323184627986360384e-02
1.114869139810999304e-01
3.016693749977878564e-02
9.458676142823399524e-02
1.117145664196659283e-01
8.885849313111349179e-02
9.987375782597059104e-02
4.533273064849315664e-02
8.491937818876204441e-03
1.069235728582690892e-01
5.044809851980762427e-02
3.668867357104994842e-02
5.141904413009323188e-02
2.814692889749031632e-02
4.542724691693399153e-02
5.565594803083150077e-02
2.649967115020782776e-02
6.678694317357201926e-02
-2.693819066948387880e-03
7.372450177764761081e-02
-1.068187543007397683e-02
7.250685298518140531e-04
3.529301002052422781e-02
-6.195380563801387852e-03
3.562459412950402804e-02
-5.203441739458872228e-02
3.947497498589097598e-02
1.014971356168708691e-02
3.698510504417837352e-02
1.100806971612524193e-01
1.907638620015535136e-02
3.615205545454933805e-02
7.929521504789582842e-02
4.970952556765034086e-03
4.717910524067622791e-02
5.218013017291620731e-02
3.685544882028909952e-02
-2.362306954323917241e-02
6.114574752807619418e-02
3.652358864588630544e-02
1.625274495865699012e-02
2.455469335959147015e-02
2.785125159775929046e-02
-3.455926867584008244e-02
2.802461782761831582e-02
4.730775253216375903e-02
1.857473696874335431e-02
-4.729257556013062580e-04
-1.594263857309898696e-02
6.013601636296352082e-02
4.412612660907155177e-02
5.284939997909026549e-02
4.324315084102765133e-03
3.898817926566527231e-02
3.752482470361724609e-02
2.603857131528887828e-02
6.814685879647733313e-02
5.421060465514423998e-02
-9.714158095151387284e-03
1.764426333031946653e-02
2.397308907996444777e-02
3.205692913743889150e-02
7.545934399380099800e-02
8.879558996562207651e-02
7.001971401184593768e-02
9.762107588393653668e-02
2.549165430287210835e-02
5.706260036724819518e-02
2.218942271447332110e-02
1.019310630510329996e-01
8.613884536123758706e-02
9.198655816688003362e-02
8.164348932712071905e-02
1.080801596596061009e-01
1.147005698243164645e-01
1.176651230717185581e-01
1.220003261077211298e-01
1.711564716317728885e-01
1.560892830211894622e-01
1.367360465304292838e-01
1.518440206411167115e-01
1.503611263587361357e-01
1.710102959561110858e-01
1.636122289965452892e-01
1.492673641657466521e-01
1.484992712998384479e-01
1.565291180333183430e-01
1.244209788472069866e-01
1.573031357726436819e-01
1.198979171170699159e-01
1.225757124319800800e-01
1.569324825828228298e-01
1.259428338734989161e-01
2.156722177264920604e-01
1.657715566963806342e-01
1.985136337317430777e-01
1.879996330838757390e-01
5.347301603254542984e-02
1.451139191731848910e-01
1.884058120358207411e-01
1.492331413598471379e-01
1.230283815893389726e-01
9.977639206659824622e-02
1.212485342341118599e-01
1.135410477816728714e-01
7.316500186585531140e-02
1.535842284300126537e-01
1.824760178886871698e-01
2.183803186246619232e-01
2.327135544661580180e-01
2.695314226552299464e-01
2.430784929737558608e-01
3.149420776404137645e-01
3.377014533754594261e-01
5.019142425661961004e-01
5.259061221674266040e-01
6.027265603526654747e-01
7.090215908165482528e-01
7.684062911064615253e-01
9.032473874567499283e-01
9.431418731453065085e-01
1.041023977390252764e+00
1.148879186474753178e+00
1.222862367775477521e+00
1.289976527348055457e+00
1.319853856140378090e+00
1.374022791347704331e+00
1.442886602594959600e+00
1.409355118900470272e+00
1.435095898440970963e+00
1.362480718622323339e+00
1.361082137855164298e+00
1.310359554967356566e+00
1.233066038814687682e+00
1.133249090924651981e+00
1.041594783070208807e+00
1.013926508736658016e+00
8.935407733897730020e-01
7.663694095699653541e-01
6.445916328738287016e-01
6.183656112158215645e-01
4.834602774480213916e-01
4.282579722198131544e-01
3.415581862465064122e-01
2.867661321966213372e-01
2.610778805244772793e-01
2.439785116533314535e-01
1.890288911887695600e-01
2.305374273189213230e-01
1.368723162360222234e-01
1.488821772314573300e-01
6.795012294913649331e-02
9.686545454524289611e-02
6.835509674457346252e-02
1.150336016087079860e-01
1.123072761365958572e-01
1.385486440518855777e-01
1.411050931348916959e-01
1.295576972931975213e-01
1.058839092885454497e-01
1.446237215054027303e-01
1.335820491640167806e-01
8.231132344720686056e-02
1.494894910881900685e-01
1.471254482561848709e-01
1.443507240381112777e-01
1.704480032848461613e-01
1.247924048706609002e-01
1.693181623825656679e-01
1.768662855331223083e-01
2.211483698312539381e-01
1.571429927558568584e-01
1.129953611373299971e-01
1.822427316111853990e-01
1.336046482432408922e-01
1.486029495079529417e-01
2.008265723497467126e-01
2.253862635374313805e-01
2.487464154291274820e-01
2.322246375587078693e-01
1.841621289889334712e-01
2.184383401067114816e-01
1.897647956170210592e-01
2.145402528516709151e-01
2.158930980397392452e-01
2.441526111330361293e-01
2.086715178003431537e-01
2.724611351212052890e-01
2.335928295994366966e-01
2.131691059941826505e-01
2.107878387752816773e-01
1.937315446511257699e-01
2.146806224036865163e-01
2.771910327951246922e-01
2.214525743406867697e-01
2.140877525612416565e-01
2.691028359260871361e-01
1.816923797615280778e-01
2.569141311223732682e-01
2.307213724666795085e-01
2.135869879012790018e-01
2.675573925064870240e-01
2.304839980714546710e-01
2.003844817607800255e-01
1.702645550832769528e-01
1.712460565154692305e-01
2.052367669366183811e-01
1.686611496472179006e-01
1.606650975344040555e-01
1.411988696241298358e-01
1.891564503234482997e-01
1.837603222822026261e-01
1.561472972333537435e-01
1.345668741473746155e-01
1.458627802955238528e-01
1.328214593632839613e-01
1.187566648628271826e-01
9.616403164988544805e-02
1.120995904302821977e-01
1.254587796336354144e-01
2.745196760537709640e-02
1.695086368035743640e-01
1.130023537157017061e-01
7.513985094865349712e-02
2.197170695431727508e-02
4.594774198728765469e-02
4.651000238555977329e-02
8.990798312370490430e-02
5.072235923260957208e-02
7.735401821629228625e-02
3.737271515220482593e-02
2.648789441126057215e-02
8.298662206762602578e-02
3.804213353198762637e-02
-1.172646892987429940e-02
7.904120083506999128e-02
4.414560521135187099e-02
2.305906319012185693e-02
1.609330222081604631e-02
9.414350024234720282e-03
-2.094351926169642913e-02
7.177825005678824255e-04
2.297392425857851944e-02
-7.119025221234272227e-02
-4.458242096217870237e-02
-4.529723376441446153e-02
-1.622051405332574497e-02
-2.698670632325519958e-02
4.561404037295279518e-03
-4.630363936803737201e-02
-1.447976474417568202e-02
-3.072046905394792277e-02
-2.955249570041090096e-02
1.172399937495077066e-02
5.683773592644970896e-03
1.203488628566334179e-02
-3.544539346250710765e-02
2.765242739879411604e-02
2.335868357524527317e-02
-6.242034540878218379e-02
-7.166551006454266459e-02
1.757730464432274986e-02
-4.424221806286501163e-02
-3.943742303107491964e-02
-3.907514695737972221e-02
-2.331829478608946071e-02
1.689736345314429150e-02
-4.872701228830227105e-02
-4.402022635700681558e-02
-3.791118791845299318e-02
-1.173724376707168532e-02
-3.308646276855942148e-02
-3.161045701511461248e-02
-5.151747608535179462e-02
-3.277412101211567980e-02
-5.744774169827714799e-02
-1.056184681670142497e-02
-7.930615238398122657e-02
8.596793430938665104e-03
-3.389325096912765289e-02
-4.754491812092203479e-02
1.391233634559472382e-02
-5.677431170445360054e-02
-1.845852416020832970e-02
-9.052003374235925715e-02
-5.115086278452224411e-02
