1.395668945491334245e+00
1.334787069865615239e+00
1.373538991157667200e+00
1.323251075272871002e+00
1.241047232577621173e+00
1.175803381234655998e+00
1.061924283600474750e+00
9.578618808211134539e-01
8.773423450120639844e-01
8.527547054372967006e-01
6.863550561580701315e-01
6.560803505907187860e-01
5.897639924640176723e-01
4.823831424674802637e-01
3.471906491617066659e-01
3.924720840095540786e-01
2.731924946907834939e-01
2.207815250424762232e-01
1.621467891426594810e-01
1.681176035375759048e-01
1.633027235066132621e-01
1.259125632432467334e-01
9.573156182361375333e-02
9.519912505655614421e-02
5.577899561250906912e-02
7.997708738629139003e-02
1.075211111088288513e-01
8.449401366165235072e-02
9.678393057352158158e-02
2.670772385555972295e-02
9.810033732874318124e-02
6.399622381930904214e-02
8.580185301632524408e-02
8.328175203792027859e-02
1.016902927504706178e-01
1.047642036318337938e-01
8.881631681454794924e-02
1.283286558718727821e-01
1.445282189701461439e-01
1.330860872092298475e-01
1.422206072675354371e-01
1.013868693229818124e-01
1.091024366678253338e-01
2.119881954113267963e-01
1.146288614432288688e-01
1.534791072477663110e-01
1.669969741893693738e-01
1.337892324806534416e-01
1.406019499718025867e-01
1.845597445533151137e-01
2.304424825118901177e-01
1.378819478906815887e-01
1.344253916044705899e-01
1.379992189295497496e-01
1.979780534784220947e-01
1.918303083817722854e-01
1.525765443980863501e-01
1.901269822157447553e-01
2.512488503522882777e-01
2.054247693573775235e-01
1.512257880432190671e-01
2.264880731312178819e-01
2.613840800530057851e-01
1.939797922736359315e-01
2.949060830662175725e-01
1.794590902687375200e-01
1.976184420702607469e-01
2.078838746241990498e-01
1.418287508629473281e-01
1.836547757357070709e-01
2.070699566777139955e-01
1.733714024686008881e-01
2.275680799015786515e-01
2.081043400241942565e-01
1.334774423625419704e-01
2.057548243386719822e-01
1.958749282423913884e-01
1.645822175158702660e-01
1.599094461626394681e-01
2.004878275298428436e-01
9.189176807410995296e-02
1.795002420053988801e-01
1.705643970587332192e-01
1.773776716540118870e-01
1.447891313183613249e-01
1.714830792827861383e-01
1.135422722783819838e-01
1.458769774810125819e-01
1.145042967926480082e-01
8.264637810376335159e-02
9.959275196786157580e-02
8.312607196009030863e-02
1.299602296278783986e-01
1.068478198713233573e-01
3.873518865229116925e-02
6.766829242971370006e-02
3.730450763018079707e-02
2.558244492819526650e-02
5.831774197580932850e-02
6.006445844933602785e-02
8.492412228827431186e-02
2.631913721751565072e-02
6.261093680860106703e-02
5.295569103813960871e-02
3.450749945865014962e-02
1.633137157696430697e-02
-1.841674385197397679e-02
7.451338108684973927e-02
2.246190675911370616e-02
3.861285975845622775e-02
4.877006627102165037e-03
9.870745417099917318e-03
-7.921579767585312792e-03
-3.318576079126168282e-02
-6.206990005468836225e-03
-1.018318283201238156e-02
-5.251734622583768136e-02
2.467210504416389449e-02
-7.491421710888880592e-02
-1.255676464259394137e-02
-4.072259975501965612e-03
-3.585806026494553489e-02
-3.240466025124588006e-02
-2.176828033663624068e-02
4.755562373788879693e-02
-3.890210517634799803e-02
-5.495326444950814071e-02
-3.941176819612422777e-02
-5.886971786456033501e-02
-1.155528190456265314e-01
-7.266102306761847152e-02
-3.338972720048312415e-02
6.802459969362448233e-03
-4.349616077683490789e-02
-5.258651116198398423e-02
-5.643376809237863473e-02
3.965809851423987564e-04
-2.268096210938271018e-03
-9.198134668002985737e-02
-7.256706679727957521e-02
-7.491309513497329542e-02
-4.643810197896167113e-02
-7.743288305736434340e-02
-5.624925781448951445e-02
-7.309015459902616640e-02
-7.568803241920692149e-02
9.902975680388351187e-03
-1.232726736730586636e-01
-2.119415861928461084e-02
-5.248774744680922977e-02
-4.211069804186216847e-02
-5.488147449145084483e-02
3.792927588756545010e-03
-2.360742515981389608e-02
-3.320772189565245752e-02
1.716262879175374512e-02
-5.769686408969290636e-02
-4.213103134620133777e-02
-4.277047732174572847e-02
-8.444947775080774433e-02
-2.694809877153499234e-02
-2.723803538757138196e-02
-1.670132097803854465e-02
-2.080699084464134388e-02
-5.558975230776082993e-02
-4.833903143484523379e-02
-5.966849225434179421e-02
1.364199215962975942e-02
-5.984741785011255671e-02
-3.414968764590512601e-02
-3.542620278532599559e-02
-1.105094345883476104e-01
-1.071923272583574782e-01
1.121186133031577131e-02
-6.314460777623086274e-02
-1.827682264245100718e-02
-3.993079606379519586e-02
-6.430635438144195748e-02
-4.611321816945392754e-02
-2.402015253553636820e-03
-3.143272288008172599e-02
7.160179773347416510e-02
-5.066783695349043326e-02
-4.769624883351475386e-04
-4.868002583026526109e-03
-4.531649602419784983e-02
-3.795931416318060192e-02
-4.878244518511179462e-02
-4.705656373161184319e-02
-3.939829106311142082e-02
-4.335327740390866602e-03
-6.992189337533692706e-02
-2.216103502760959770e-02
9.905124033543349915e-03
1.116979855435738106e-02
1.025581327039953861e-02
2.605270585295370311e-02
-3.904609459491434342e-03
2.854880154714047741e-02
9.577220509227249434e-02
6.083388569229764009e-02
2.314107677037374744e-02
3.993197687450860539e-02
8.646162572669099933e-02
6.382316671163475175e-02
5.184153688280236649e-02
7.207968916673795912e-02
7.654331017349610966e-02
7.760078869142202074e-02
6.983322576343356514e-02
5.316082739246983518e-02
8.978269266741950583e-02
1.061695706405079015e-01
1.039453595739901481e-01
9.141777253078436916e-02
1.452542344979513567e-01
7.021922434700539339e-02
5.590863974969668970e-02
4.426752153833175829e-02
5.882379105784210638e-02
1.257415426006671944e-01
9.120274118747140335e-02
9.067483925518407539e-02
9.486135756812487385e-02
7.610011714774181368e-02
7.275357770256285495e-02
1.088605209148165720e-01
8.366967732294025573e-02
5.870819611025152734e-02
8.040446472609753814e-02
1.173793065523439372e-01
1.029376072605774628e-01
1.452152770464807396e-01
1.333443729743480910e-01
1.302297475458992770e-01
1.639221575442458279e-01
1.664083105101580862e-01
2.191460673275570092e-01
2.656040585985173230e-01
2.826705451383403900e-01
3.623501323560470722e-01
4.622329086851033053e-01
4.985351728884666045e-01
5.600916563788769231e-01
7.093151003189769321e-01
7.473160312906779179e-01
9.041289091486877094e-01
9.450749014256286662e-01
1.027598148687712820e+00
1.123325644243261978e+00
1.231882788427294928e+00
1.208229125195611209e+00
1.232651967369625901e+00
1.293901243097678622e+00
1.342934844981783282e+00
1.363555791266096273e+00
1.368384349321617677e+00
1.293973003623799078e+00
1.270851346387790404e+00
1.221286136690020729e+00
1.132779047897280122e+00
1.051944022921337929e+00
9.599569548880626524e-01
9.536743481137788248e-01
7.734747428663072411e-01
7.609095349864988256e-01
6.319948330363870381e-01
5.352888770306524213e-01
4.323929155557607595e-01
3.910346111637601485e-01
2.698440689312738283e-01
2.404935108960743195e-01
1.818278492099733579e-01
2.174949880217896814e-01
1.841768611832845515e-01
1.316894473045758518e-01
8.738671205807893583e-02
5.661659117369241545e-02
1.122435770410834255e-01
7.176656808359277440e-02
8.804874122583225549e-02
7.782576232038682096e-02
5.240858094796126826e-02
6.392557305575716220e-02
1.229965083162916639e-01
4.309529531337411012e-02
4.117427836675112418e-02
7.872267537581742469e-02
1.209422930895754089e-01
9.786451560815839779e-02
1.298074995092920458e-01
1.321060258754918060e-01
1.005570531435759918e-01
9.578322478302331300e-02
1.150914830936652505e-01
2.061676390297396133e-01
1.761432947221026613e-01
1.244558741913553146e-01
1.677421559706834819e-01
1.934455596965782287e-01
1.416698100476465327e-01
2.064701944931782718e-01
1.897658375236259964e-01
2.031508387112384850e-01
2.013998157236888409e-01
1.977809690012205524e-01
1.996669140913320539e-01
2.238084195354337891e-01
2.535001201970648599e-01
1.852411661292275302e-01
1.806726514564711561e-01
2.548344304774241564e-01
2.317966328907044848e-01
2.094839415119258974e-01
2.302662583398144003e-01
2.239035026262330974e-01
1.872486566913240114e-01
2.320279150499307275e-01
2.025730962847578920e-01
1.997333203079547093e-01
2.844537188839696418e-01
2.375834067492487434e-01
2.247928175240954951e-01
1.821454536096617782e-01
1.961762988020463727e-01
2.418690228234886275e-01
1.746923327771466583e-01
2.231912521062681398e-01
1.891552109680135207e-01
2.413066060626106180e-01
2.053855984858039274e-01
2.484861556758549417e-01
1.217364267203508987e-01
2.097880622895905989e-01
1.708107256166678523e-01
1.879057090545386555e-01
2.198780625272603872e-01
1.452677527513905054e-01
1.681364046306582372e-01
1.624350824344991118e-01
7.468845347053676420e-02
1.358620746606048757e-01
1.781661769936005446e-01
1.589867011615610504e-01
1.278080827156404808e-01
1.555866883591294769e-01
5.096162617511047765e-02
8.185424681926634083e-02
1.036157362151658295e-01
8.383338468590112447e-02
7.722400389314873492e-02
7.501340974163110686e-02
1.002238890907320157e-01
9.285403891140943389e-02
8.142638770017565641e-02
5.713902489701519483e-02
1.081536524163995983e-01
3.556630531025095632e-02
1.069018253500537696e-01
1.010122574863474010e-01
3.116461789858279707e-02
1.096469444063723209e-02
3.860668331808574105e-02
-9.013552983152761655e-03
4.271213064813255550e-02
2.953743473065627984e-02
2.921131951902091600e-02
3.641889724155927821e-02
-6.794210786285743292e-03
-1.008605626737413621e-02
-2.880351161338053079e-02
2.499301669320990599e-02
-5.442669015561225204e-02
-1.843373780986481969e-02
5.536430865876081076e-03
-1.250165688878636730e-02
5.621514762732923720e-02
-5.619657511010834466e-02
-4.735038049418890949e-02
-2.141326109663437352e-02
-1.968274226348903921e-02
1.281374209051779761e-02
1.427153823747830813e-02
4.924604300007465185e-02
3.699761011804292982e-03
-4.828975449917648211e-02
-5.433379596696821801e-02
3.275103954592259448e-02
2.343536270752828374e-02
-3.130203828404072575e-02
-4.224819903815019845e-02
-2.199855870969160201e-02
-8.342065385690290713e-02
2.078695980405011537e-02
9.007989675638483629e-03
-9.662417292205082581e-03
-6.189001554474004435e-02
-7.402146461065506160e-03
5.434734153472745716e-02
-7.718050391934078158e-02
-4.858925544383534828e-03
-6.161996072039529343e-02
-5.521788276819580149e-02
1.772110120537987235e-02
-3.206219414396936640e-02
-3.112800613730781069e-02
2.695801871618613496e-02
-8.801383180357946756e-03
-4.611588502085861574e-02
-2.409943174049495110e-02
-1.314821345120302867e-02
6.058709294950420654e-03
-3.168727146483212020e-02
1.722894874609020438e-02
-1.704832087030042423e-02
9.349882441678909056e-03
-3.717394969124843476e-03
-3.765905205465701344e-02
-2.821606147220251555e-03
8.875766579469942727e-03
8.251954551387022385e-02
1.183862238361220974e-02
-3.056129811472945573e-02
-4.566217418081579271e-02
-3.021040294265464436e-03
3.964563405189637513e-02
2.432450235032530134e-02
-8.568343462745195427e-03
-5.231463501898130086e-02
2.369547486073003695e-02
-7.849702410391009438e-03
2.199759484459936493e-02
1.665047019252982596e-02
-9.381720472635749625e-03
2.503343347966604029e-02
1.661718032976676473e-02
-4.607314340630370292e-02
4.520937322104000289e-02
-1.681001913245569988e-03
-1.768647965280650478e-02
3.137148661466227645e-02
1.866445221258024659e-02
5.058534876650921941e-02
1.680817877598159496e-02
4.536266645174552581e-02
4.548652486252689059e-02
3.096768316280902947e-02
6.584913543766782174e-02
7.556179261723050544e-02
7.244941193491842568e-02
1.208787267085253275e-01
1.006832628076869129e-01
1.289146167656656794e-01
7.259565401912367044e-02
6.751340331252286830e-02
1.101871582102751379e-01
4.522179895998233029e-02
4.507934313286583727e-02
1.337103102063352811e-01
1.111183677321912894e-01
9.516397680802674008e-02
1.196086364575291577e-01
1.968189610440011506e-01
1.372875448763646034e-01
1.173470557542884568e-01
9.003857327882099082e-02
1.146561201816908432e-01
1.682979115064093256e-01
1.290369098693998073e-01
1.487393708864173936e-01
1.547087281773444345e-01
1.392868131311435775e-01
1.372154888352094537e-01
1.149266571191986802e-01
1.708371600511628952e-01
1.619445291652981955e-01
1.558403888845042995e-01
1.530610441378341957e-01
1.297426688757405966e-01
1.631310583246236567e-01
2.002552128191582015e-01
1.142539059623388920e-01
1.600891180367196021e-01
1.828155640159204176e-01
1.001072852010663206e-01
1.315858089351230331e-01
1.643470400158253963e-01
1.411524121636591467e-01
1.787964015567675979e-01
1.265366943734080873e-01
1.820952131308422040e-01
2.551604760046851106e-01
2.844996476361384419e-01
3.177171641698416926e-01
3.998591336304711530e-01
4.340295927324950842e-01
5.130689773117068642e-01
5.732261451856647261e-01
7.049116803188062441e-01
7.586985222564102127e-01
8.099181500324538208e-01
9.277926492571043626e-01
1.016306798745419071e+00
1.140175791435074748e+00
1.155536737855668239e+00
1.260155649645574139e+00
1.289206414962336567e+00
1.337615883816429818e+00
1.409936796476114917e+00
1.454475408504425138e+00
1.402664916162130071e+00
1.379464765472356191e+00
1.411809885440394652e+00
1.358512594349363445e+00
1.241130810927270511e+00
1.196495603144745123e+00
1.094649739448725345e+00
1.011667253912989173e+00
8.832331266660008451e-01
8.447338683541227855e-01
7.383715902441916334e-01
6.767161248429396370e-01
5.424437187599708832e-01
4.911187297182157407e-01
4.236540442452220168e-01
3.344201579418183967e-01
3.256444009820210206e-01
2.341528584963108173e-01
2.254257657715396379e-01
2.549018332961882072e-01
1.621364486041149133e-01
1.466184837310132438e-01
1.685461487228307464e-01
1.671213805384534345e-01
1.353926753721194920e-01
1.676923704158759798e-01
1.688256683261483981e-01
1.634994472074488836e-01
1.020078511120837833e-01
1.641801866757851558e-01
1.587125756379387242e-01
1.522107345462825889e-01
1.699794326356668106e-01
1.870069497573076389e-01
1.530776899447554851e-01
1.772302957766268006e-01
1.749561655557851925e-01
1.829075859369119761e-01
1.557710663047507382e-01
2.052242774476898401e-01
2.356664622884939164e-01
1.757003282022036039e-01
1.866473696801704552e-01
2.597363234404261312e-01
1.795428336795855118e-01
1.712944060916281042e-01
2.671878016700485192e-01
2.607737690763588523e-01
2.190082099643883840e-01
2.064096921856432010e-01
3.027131702600160401e-01
2.391860468349326641e-01
3.103503216108067786e-01
2.475644029751462305e-01
2.575758103279303657e-01
2.455468337540213930e-01
2.499754569052572706e-01
2.375661434631070323e-01
2.706272525763873116e-01
3.115675902362574079e-01
2.540683813262393231e-01
2.940504382203746325e-01
2.682534338042703581e-01
2.460972958754990003e-01
2.282521497526353582e-01
2.541973982046863423e-01
2.940816597664326904e-01
2.623231684602760350e-01
3.398260807805913997e-01
2.667049099221915909e-01
2.706974019130656273e-01
2.388315527396753235e-01
1.830401022731004412e-01
2.837183161078392080e-01
2.434093813191911537e-01
2.436588785757019260e-01
1.997743944475726674e-01
2.134698475366050285e-01
2.433957066327962770e-01
2.082953979187533722e-01
2.388572063508159204e-01
2.225586429674375477e-01
2.302251176269173027e-01
1.575298742848487976e-01
2.161563961055711358e-01
1.487093658841326382e-01
2.096928691586708027e-01
1.605366506574861241e-01
1.790415103744296410e-01
1.889421967022447690e-01
2.151150453385951566e-01
1.999237386051364307e-01
1.585590152375413175e-01
1.786642899067161505e-01
1.457718777603100868e-01
1.690357034798133651e-01
1.693149774588133816e-01
1.073739547748319423e-01
1.536106114771942643e-01
1.443812192598006305e-01
1.631440813217775176e-01
8.274994931320883707e-02
5.633914136225057212e-02
1.047182566582093299e-01
8.572508705632830850e-02
5.815946253155836881e-02
1.167251708148706324e-01
1.317393345035814678e-01
6.135477339423314747e-02
1.159635108523221353e-01
8.165248275240133413e-02
6.674252477812259166e-02
3.864156696834049332e-02
1.201326667399925663e-01
8.905348159212772563e-02
1.371598500113783703e-01
8.470031134331670875e-02
1.291391099074866156e-01
1.193044722015033365e-01
7.139890887608396630e-02
4.209180911086392307e-02
5.296659162224102990e-02
3.829317381055525465e-02
3.630165893469829153e-02
3.904897637377303943e-02
4.928420197210914289e-02
7.483711454792324469e-02
3.869292804636187411e-05
2.290003424671911009e-02
4.091333670752490131e-02
6.380526178174844576e-02
4.571248806065137532e-02
1.895172685861602757e-02
3.774957372412005019e-02
4.561660235946031483e-02
7.081363038302222745e-03
5.473564668115744880e-02
-2.391115623290029912e-03
3.315049350531313471e-02
3.990001527913646096e-02
7.247223561311387507e-02
3.358059536792253053e-02
7.412234066322341552e-02
7.619425988726359622e-02
5.962224160948642604e-02
3.731320652327844989e-02
6.081601801111372052e-02
7.916219894531005552e-02
3.078043310611786043e-02
8.470409599637802878e-03
3.341246845117620823e-02
7.100913622735098574e-02
1.114030967966147118e-01
5.095579377563925344e-02
2.845036497074318604e-02
3.061477079550788127e-02
-2.071120508608206845e-02
2.145060684235628942e-02
2.789089832345920117e-02
7.288180768441034074e-02
5.695528960601296820e-02
8.326170470152702285e-02
5.870272038746084109e-02
4.381347709939451690e-02
4.512943536628307578e-02
1.601138958771256005e-02
5.262770398319360776e-02
8.197456122287830049e-02
1.724647232518898565e-02
5.981441496999052865e-02
3.210199585308677606e-02
3.784396543893338294e-02
2.519703325172199804e-02
6.309860780157350302e-02
7.195892123279523656e-02
5.194578990000048302e-02
6.270389464628525755e-02
8.256217674664274864e-02
1.195657793712468220e-01
6.939460123024751570e-02
4.525938638131860731e-02
7.733269446783194723e-02
1.339893029630619820e-02
7.932862848538010936e-02
5.174433566394781581e-02
1.148428006438790144e-01
7.983968742621480597e-02
6.920676666943961775e-02
6.408154771791615967e-02
7.843187727546371835e-02
6.893718293140363440e-02
8.190699138990949202e-02
5.346044708399179390e-02
1.715029732719894340e-01
1.144918979884154697e-01
1.248457464458663652e-01
1.025057310552257156e-01
7.358963306852138453e-02
8.857713580302739587e-02
1.195966265807882623e-01
1.369931909621742439e-01
1.528030327232462460e-01
1.582349372628717998e-01
1.459261735954613393e-01
1.324346533158374251e-01
1.386513660655473712e-01
1.510798698906856974e-01
1.176467870394730664e-01
1.539397615114484474e-01
1.267979272372277144e-01
1.204306072514356174e-01
2.218311353477317449e-01
2.298259455547804753e-01
2.366741148522947813e-01
1.973679341849625402e-01
2.268122687619253675e-01
2.182599442918903843e-01
1.504933438281017277e-01
1.409920346775058175e-01
2.025104159911563784e-01
1.787154157881036265e-01
1.705519756584749358e-01
1.722622680983137977e-01
1.614674795533724283e-01
1.880325773696205904e-01
2.168513135677409276e-01
1.676525788052957711e-01
1.739060231704934456e-01
1.966939856047643098e-01
1.815038232076995051e-01
1.867516969162981988e-01
2.169851662227498257e-01
2.020599572535591859e-01
2.154157426958964450e-01
2.018726974269181018e-01
3.007677799718688760e-01
2.749897097994329354e-01
2.989465187098076515e-01
4.028733980315869490e-01
4.241787967579790930e-01
4.525427344507298999e-01
5.282326302967510490e-01
6.090650620981664654e-01
6.952820097499909924e-01
7.572795847011186687e-01
8.378624263352569823e-01
9.795774517135346082e-01
1.089921504065336277e+00
1.186580190445068572e+00
1.308541480772812404e+00
1.355969133609222554e+00
1.380372758063821204e+00
1.416077593815908031e+00
1.424607261711142936e+00
1.432542830883777984e+00
1.432044894604657115e+00
1.380840562889732892e+00
1.385690175366554922e+00
1.342387451867598003e+00
1.251166331221090555e+00
1.211493605821907238e+00
1.081348927435619167e+00
9.942859167816686661e-01
9.709522733723341403e-01
8.339987399358543829e-01
7.525035223916227700e-01
6.304765554144984296e-01
5.649132354009955836e-01
4.944050355918432338e-01
4.329131945370278123e-01
3.456251950967786368e-01
3.651932876301773878e-01
2.775227067148376414e-01
2.794402646108514743e-01
1.825032208993589977e-01
1.860152393121377312e-01
1.990491702988569367e-01
1.602409905540646551e-01
1.676951678832467318e-01
1.573264019328775298e-01
1.534070371771389107e-01
1.589875414540719567e-01
1.973992535322490749e-01
1.628681137468384887e-01
1.526485975869938116e-01
1.372971968571790602e-01
2.113761287968628222e-01
1.631787903138499085e-01
1.897631900994151410e-01
1.738536441945754407e-01
2.256870937957108358e-01
2.304130871102074429e-01
1.985545874161052937e-01
1.837405173277437964e-01
2.374409246467681367e-01
2.401240492666514847e-01
2.851492386943472179e-01
2.412065240766541885e-01
2.321487740169207448e-01
2.605106549534577653e-01
2.968594402614507244e-01
2.627358807293473930e-01
2.537555363115551743e-01
2.858170850105635208e-01
2.471133256190311545e-01
2.460078665121565034e-01
2.168737248907975923e-01
3.217271890443567095e-01
3.213167621944528762e-01
3.220657137028295480e-01
2.871281848820961269e-01
3.377811059805194138e-01
2.972473426851729439e-01
2.941211431869871218e-01
3.197249004826746566e-01
3.501349831750028008e-01
3.167021812156280980e-01
2.842864857824105029e-01
3.296258921054503466e-01
2.365409076679282352e-01
2.493932009649021397e-01
2.510676462676821874e-01
2.884515025895043605e-01
2.563473281122624625e-01
3.167129708236378072e-01
2.867640799592358070e-01
2.293295072777334909e-01
1.994830276937503144e-01
2.486736623491046794e-01
2.862661978535080420e-01
2.485436446350282602e-01
2.577408192054549962e-01
2.476457655566442484e-01
2.641408990221472131e-01
2.817111038846800142e-01
2.754142472913169715e-01
2.241298273947302244e-01
2.461648519149610970e-01
2.226819743480431268e-01
1.965908629102627314e-01
2.296341820345456641e-01
2.026639297271531914e-01
2.110856031209653039e-01
2.173184855683997496e-01
1.813837778645740473e-01
1.833145052012221943e-01
1.762644336249531152e-01
1.600016226780456019e-01
1.509274955786641392e-01
1.377199961571103359e-01
1.435108756532324503e-01
1.871995785943071922e-01
2.006684819618951288e-01
1.805302354111679719e-01
9.469705172310896590e-02
9.292597715717698659e-02
1.443389293284828290e-01
1.237824019979885115e-01
1.869320094428381096e-01
1.112778307766412039e-01
1.470587608658994183e-01
7.049272438542227015e-02
1.282366895958198805e-01
1.247440316628211782e-01
1.042894151191648966e-01
1.199471612191728431e-01
7.686548748158128497e-02
4.876619829339658152e-02
2.882254431278371415e-02
9.703257514948313012e-02
6.704430803919202153e-02
6.142266508882959775e-02
3.739239796795208737e-02
1.235095647388943785e-01
9.729978198426222913e-02
8.598712756379867095e-02
1.708479822841995482e-02
6.213550249465582542e-02
3.293676943389077516e-02
1.053059799230641191e-01
4.870727161827520524e-02
7.951086138390880964e-02
5.076912059132132615e-03
5.500983938267493822e-02
2.713555358373990339e-02
1.375876368184766191e-02
-3.650327258355963445e-03
5.755341344023390260e-04
-2.700178951998151444e-03
-6.822413645490625622e-03
6.466061426034985793e-02
-6.897290193278109161e-03
7.340059254111204468e-02
4.403882564617217499e-02
8.049378978870980195e-02
-8.156818765842184515e-03
2.543227977055368544e-02
3.010178410246103914e-02
5.649920579457001768e-02
7.566122100693420394e-02
1.174785531484477119e-01
-4.752580899562618144e-03
6.488553480801442785e-02
-6.665348478117318065e-03
7.159214460718565931e-02
9.961077826752717107e-03
6.591365475030165622e-02
5.471185196516031857e-02
3.758554614781144110e-02
2.499200551157812478e-02
2.504191863247892669e-02
3.089484101610226463e-02
3.961805576507558546e-02
4.626423909276462104e-02
1.167974422151298389e-02
4.867900811224686042e-02
5.257755331917721153e-02
5.140488168635072574e-02
7.071763557836632796e-02
4.862471340948535531e-02
3.811623841225421361e-02
2.607675412619751831e-02
7.460967748075600370e-02
5.356153247719665222e-02
8.035128740980702899e-03
1.140250706299418895e-02
-1.081989663706024729e-02
2.782159953813017478e-03
6.744130056808457507e-02
2.099551243186170701e-02
6.281250843586945465e-03
2.077796800287930526e-02
-4.111398777445346431e-03
9.288419377668943877e-02
1.014922090535131105e-01
1.090950199489644779e-01
3.453877192787031813e-02
5.434348167197344814e-02
1.219837672048021543e-01
4.965763248497709337e-02
5.956497999568488577e-02
4.733960128135242251e-02
4.527048296858002252e-02
7.477449684655509965e-02
3.079592651583329052e-02
7.402206231138831749e-02
1.188374458777803760e-01
1.069471976887580722e-01
1.442554834153161880e-01
1.783881457390382452e-01
1.389274009409703636e-01
1.137653162906303722e-01
1.298673377792176620e-01
1.469030240881245841e-01
8.942099973043458883e-02
1.285014957386472756e-01
1.272799835178307637e-01
1.517644253280722721e-01
1.527647051782879684e-01
1.676763200059606107e-01
1.782621678821007805e-01
1.534531004552702749e-01
1.203865070204808846e-01
1.426481071738104900e-01
1.958468840225343344e-01
1.381000716221214009e-01
1.351975825852766711e-01
1.956888918166056757e-01
1.722087168471464758e-01
1.795544397300157524e-01
1.657997320036411204e-01
1.010587150796472267e-01
1.842172643741440963e-01
1.268332617087925829e-01
1.054510839538498473e-01
2.055098690969218433e-01
1.906678821390266620e-01
1.326613425250112166e-01
1.704910832582846592e-01
1.525991497370418060e-01
1.690624299443447831e-01
1.725406922324293768e-01
1.736349517395086028e-01
1.837820165514238435e-01
1.959979129499013206e-01
2.053672992901797167e-01
2.257301686194613521e-01
2.646482495823903047e-01
1.953474634185835557e-01
2.530603335472190185e-01
2.341781010353923831e-01
2.856287735947333761e-01
3.302660593789991106e-01
3.746227381817806568e-01
3.801044613138638839e-01
4.819971099287624905e-01
4.920541859747499802e-01
5.736429734875816422e-01
6.722445672071157841e-01
7.983709560223259949e-01
8.816042310396710047e-01
9.585522794969476568e-01
1.101442604398726877e+00
1.191687620441139073e+00
1.194706383487253998e+00
1.304925847525097993e+00
1.334615885675874525e+00
1.425618243522945638e+00
1.385801501091842969e+00
1.371636918598380106e+00
1.400257990754247173e+00
1.406051061874352692e+00
1.300164830529092042e+00
1.303250880951026813e+00
1.219829932655958515e+00
1.119750904843400896e+00
1.049452469078830941e+00
9.810451036557101823e-01
8.338033690857771241e-01
7.173872829951263297e-01
6.504546338496314251e-01
5.381516939056897320e-01
5.900640287655203320e-01
4.628735852179919896e-01
3.959251040586627135e-01
3.104256572778602008e-01
2.409599721063055699e-01
1.928648199939428931e-01
2.267292038384134123e-01
1.824937632209474303e-01
1.268492570006017062e-01
9.984982177311348128e-02
1.251584919904522586e-01
9.337428299757513650e-02
1.180810911727477736e-01
1.579733900409984737e-01
5.165990128296456957e-02
1.141062949050010294e-01
1.597442088041252650e-01
1.372841629571542876e-01
1.957499462666222600e-01
1.369169377081488892e-01
1.923792986340115418e-01
1.603144787713569608e-01
1.384587924515924828e-01
1.548026804178810611e-01
1.840036403743075810e-01
1.706797933210439933e-01
1.931189701788283697e-01
1.401191314759266948e-01
1.995522137250934636e-01
1.685550170863789887e-01
1.685884087298187284e-01
2.088492340312420037e-01
1.801965322830866856e-01
2.592076918155097331e-01
2.066676472627590744e-01
1.769839795741990907e-01
1.595517653947299552e-01
2.177703004683795018e-01
2.258541787013051971e-01
1.948055571290908949e-01
2.428625913958361582e-01
2.321869495077602541e-01
2.241226097279172824e-01
1.969797868543145813e-01
1.567305792668888254e-01
2.405392829910304453e-01
2.641168419279499302e-01
2.476672905494860522e-01
2.524979510842556563e-01
2.267356256146381976e-01
2.425560047917630913e-01
1.823737658425975128e-01
2.815184093282439570e-01
2.060455289911692633e-01
2.665953317662007604e-01
2.464629000117513069e-01
2.149429992832459502e-01
2.538822714872143171e-01
2.544580048907658099e-01
2.304204919297636323e-01
2.045685640449694531e-01
1.919201203865160688e-01
1.737162942706549640e-01
1.960837043229595456e-01
2.069097181576048661e-01
2.224320401205905906e-01
2.203640812842078689e-01
1.820927709720743526e-01
1.839652383647011613e-01
1.972796371156634310e-01
1.535561906925124454e-01
1.806798935585680055e-01
1.841988369016875071e-01
1.555056383818297361e-01
1.421518255199378244e-01
1.930065397616056444e-01
1.195585037421960789e-01
1.270032101627361354e-01
1.467183686771634521e-01
9.333445061971415435e-02
8.567451975555313848e-02
1.167090367628566966e-01
8.739949329723162297e-02
1.460473882119736055e-01
1.352294526343612857e-01
8.178142031585131089e-02
9.645659632213240964e-02
7.072951703106716836e-02
7.535584262234583386e-02
1.033889976912209102e-01
6.587646233606066215e-02
4.566629276687502598e-02
-2.949407537781190136e-02
1.307016144757559839e-02
9.179130407909619205e-02
7.947251777116402793e-02
5.410329849584227802e-03
2.032070668821201603e-02
2.026654779805567644e-02
1.615133814844045557e-02
-9.253996802865538385e-03
-6.822566010953403509e-03
1.267434511635238785e-02
1.783830897381341249e-02
-3.526610604888315986e-02
5.583980762911151113e-02
1.427444994445152895e-02
7.667487962514268549e-03
2.579582779665216472e-02
-1.541568617718703377e-02
-4.056383120871293740e-02
-5.359780515943043944e-02
2.033901879279748429e-02
1.559668157214876352e-02
2.380967206017731153e-02
3.255968426926833525e-02
-1.384773857832776942e-02
6.086733829398360829e-02
-2.522209005595507647e-02
-4.703786391464202798e-02
-3.587316468650063317e-02
3.257618604101875093e-02
-1.445947102094007584e-02
2.054557824082724887e-02
2.795130000718043517e-02
-4.914383941003742928e-02
-3.230183529803731801e-02
-4.722367742305687288e-02
5.061271467145925240e-03
-1.107602449244664972e-03
-4.640266980536036576e-03
-4.778833543677095397e-02
1.522449090475091332e-03
-3.049664814017838746e-02
-9.708969105638717845e-03
-2.632207833783832204e-02
-3.772069733079556203e-02
-1.218876540193720472e-02
2.283700520260077693e-03
9.961729257979633212e-03
-6.375459333642363724e-02
-5.062118139341463541e-02
-5.496020292453100697e-02
-7.070139556983612295e-02
1.498239339642773796e-02
-6.748188826667714246e-02
-4.985042266768918706e-02
-1.905614218999572909e-02
-2.896406637857310007e-02
2.727922710292526864e-03
-8.928427725134482906e-03
1.609464592903676883e-02
7.097746822423287721e-03
-2.697795262579906136e-02
-3.403467051576011815e-02
-2.783782303862931962e-02
-5.416668387139018936e-02
-5.138178207009699849e-02
-3.081171640333808109e-02
-1.045893326272797352e-01
-2.377716725127864208e-02
-3.425887851874426931e-02
-1.920225082524890797e-02
-4.536372708879246596e-02
-1.157934342030491823e-02
-5.800808721478167840e-02
1.890117603440820415e-02
-6.066265270933211134e-03
-2.315863218265713785e-02
1.311778024634703207e-02
-4.120719721198155827e-02
2.654195233264276463e-02
3.624167813957851481e-02
1.880389915053342839e-02
-6.533772738580026496e-02
2.584246222014023597e-03
-2.640744755485063128e-02
1.022661272410353706e-02
7.126143525250716593e-02
5.763715159010023015e-03
-4.601523455700754633e-03
1.005749122357064984e-02
1.437803914629415952e-02
7.434783143884612922e-03
1.917764072121252300e-02
1.580290200895332481e-02
3.114009926143213730e-02
-4.769364479352763975e-03
9.421397864129470168e-02
8.194322830037792382e-02
1.216766785813894053e-01
7.461966254214147387e-02
7.814144222657633254e-02
8.980907240792995738e-02
7.161189483445967729e-02
4.955052264383770499e-02
1.272027024573062215e-01
1.089813665650293251e-01
9.715898406192019499e-02
1.012430637086389196e-01
1.047013304217651597e-01
1.351599329934379534e-01
9.374050728014546308e-02
8.379384810760742708e-02
1.095123358830522586e-01
1.178451366553431578e-01
1.119630160546838948e-01
8.106294782433809409e-02
7.181919325350405447e-02
1.266182846190441191e-01
1.116621821924687619e-01
1.069791846360047261e-01
1.433309334969661286e-01
8.521521758200911734e-02
1.131758449078230089e-01
1.241541409646718663e-01
1.089510966438120704e-01
1.014866436487870671e-01
9.997824249950212905e-02
1.159257680091854009e-01
1.004539140962539268e-01
1.519816235639422364e-01
2.024282166033791741e-01
1.475285534769145424e-01
2.787382353608048868e-01
1.919279681528854586e-01
3.089827692753599475e-01
3.801573909529077921e-01
3.883723788975868563e-01
4.862214420998354769e-01
5.433856350035541904e-01
6.583434143804820504e-01
7.824591435523148286e-01
8.956736806936711481e-01
9.318936664205675902e-01
1.094372552188097369e+00
1.079764210171573646e+00
1.230885145846767781e+00
1.255964806292718894e+00
1.296888425894357377e+00
1.367735752533055349e+00
1.396133728916651107e+00
1.412886303008781930e+00
1.380839925519344202e+00
1.315523875764161410e+00
1.292120402109234512e+00
1.193845585111347862e+00
1.140801993108184309e+00
1.011358688452787424e+00
8.757979886792754964e-01
9.067564232555439530e-01
7.921731159961314939e-01
6.750234759318515243e-01
6.457089491015292060e-01
5.473598999108504337e-01
4.269730062509513591e-01
3.069346604535849732e-01
2.744281004139170754e-01
2.621126558317115607e-01
1.599632061900858049e-01
1.263768301963048013e-01
1.389365962097896812e-01
1.074502891872197718e-01
1.140330200267321847e-01
1.222279196692526992e-01
1.019313269617104362e-01
4.286321868874191920e-02
1.141248716947415309e-01
7.210915328059533391e-02
6.880438464874183424e-02
1.039127631341375535e-01
2.822157226836941729e-02
1.164995430263774667e-01
5.901241924710618619e-02
1.100058457500262543e-01
9.586057264072392337e-02
9.835244646328175633e-02
1.147842828981464197e-01
6.828223313646299142e-02
1.083593184155480504e-01
1.153325204089558631e-01
7.509670102522170154e-02
1.246317846427866527e-01
1.306981990155857143e-01
1.802327797623739514e-01
1.534436521003527121e-01
1.632022404584299591e-01
1.968051183863198106e-01
1.602189784939712647e-01
1.497304849122010062e-01
1.724309447360099223e-01
1.661733850859629102e-01
1.620798366734746698e-01
1.890244396197805765e-01
1.893270270651608300e-01
1.669199055708198709e-01
2.578091564682026826e-01
2.016085775327863261e-01
2.017220607638205432e-01
2.140733837919246152e-01
2.747707947973548337e-01
1.708533655768723347e-01
1.420470600255622773e-01
2.246824502164788406e-01
2.390206929660964597e-01
1.785500040042406200e-01
1.793747194224938335e-01
1.737188599682884804e-01
2.462716005354900761e-01
2.167934956395425883e-01
2.533124949462175479e-01
1.786943187432341318e-01
2.074866199593528859e-01
2.147033078372251325e-01
1.912795609503330774e-01
1.520904770668085326e-01
2.380544041191182125e-01
2.064861043248808481e-01
1.897337250907852879e-01
1.783376864480208934e-01
2.147550807926437155e-01
1.498401045244029950e-01
1.800373488272536404e-01
1.447111320673113433e-01
6.327721473490147130e-02
1.037084316649981297e-01
1.224928885062905592e-01
1.177802338254834991e-01
7.958162933626911073e-02
9.971188559483373792e-02
1.096777455717783678e-01
1.458836140557043803e-01
7.090235039536407768e-02
6.511023908955868023e-02
4.899503351449891603e-02
9.491980485539375234e-02
1.034817622924711078e-01
1.087100034448321151e-01
6.956824588239220175e-02
7.031515875631691448e-02
3.264874415529903096e-02
-4.515288961848197558e-03
1.527974099168491473e-02
5.911769956523672820e-02
3.906224035307510889e-02
3.442821434422642379e-02
6.373951949566093733e-02
-1.531424450272432514e-02
3.254508475964014436e-03
-4.778102524574675408e-02
-5.745169994962517901e-02
-2.300368892390437098e-02
4.010329639561031889e-02
6.237408127612836806e-03
-1.142904449091819430e-02
-3.887143481502979003e-03
1.380799181607697546e-02
-5.424902515654424218e-03
-1.324234723874460895e-02
-4.107632682144850278e-02
-2.061541008189892582e-02
-2.481635335024795844e-02
-4.774454998614277579e-02
-3.565853159402193606e-02
-4.071606967808304167e-02
-6.180287194810230034e-04
-1.413851729243814637e-02
-6.220185868171190791e-02
-4.986517322676951858e-02
-4.820288837529183856e-02
-3.064059099388106305e-02
-2.159279163318536532e-02
-7.059237285217467850e-02
-9.614365537040819865e-02
-1.268495510066219856e-02
-3.495622113671046499e-02
-6.717584320694686140e-02
-5.496213319612282960e-02
-3.988662791627861637e-02
-6.645544249977788920e-02
-5.079385847156084322e-02
-6.953721668157801516e-02
-2.921889531842824031e-02
-2.217050009431286578e-02
-3.204333324589772602e-02
-2.245821912830554823e-02
-9.964466876010191765e-02
-4.613997410373518737e-02
-3.096087226260938602e-02
-4.711507672910285327e-02
-6.808151477483292968e-02
4.326866841406325215e-03
-2.156228079089091490e-02
-6.041603730741969269e-02
-1.962173901165642151e-02
-8.184179987258641265e-02
-4.477447184531484214e-02
-9.907734946066103221e-02
-3.456055180869801319e-02
-1.048980237985897568e-01
-4.441232138295638648e-02
-3.226892973357051164e-02
8.807245006691714895e-03
-7.891874209047383681e-02
-3.764206321100108110e-02
-1.244558557132877941e-01
-6.921691609007851742e-04
-5.063006687621184054e-03
-7.234647423352720541e-02
-8.750286238016169449e-02
-5.732343562069285026e-02
-2.020203759105335811e-02
-6.759513237953446163e-02
-8.465744437617594986e-02
-3.693362286947324269e-02
-6.807602404104995397e-03
6.756622214145371896e-03
-5.681637223328462466e-02
-7.253746210441761044e-02
-6.098835578743690838e-02
4.070812050388741832e-03
-3.915193572147269985e-02
-3.670509769738463518e-02
-4.530263974157167084e-02
-1.203700711002113066e-01
-3.228512915132118744e-02
-2.523775812126485135e-02
4.557430618098157193e-03
-2.184420074992930727e-02
-4.992596361576548403e-03
-1.980718784205400332e-02
2.290749836436742348e-02
1.488937669125034446e-02
2.536110541574979060e-02
-2.282723924651479733e-02
2.398081552264743482e-02
2.733144787116461444e-02
1.737704236981454931e-02
-7.233812969087496936e-04
6.423234090620021097e-02
3.030263866096963299e-02
6.137609577818808199e-02
5.575261427234738665e-02
7.546261275814322711e-02
7.545761354767259455e-02
4.348736091798915959e-02
4.016924010682051960e-02
7.552715875150980973e-02
7.740370280043859519e-02
6.991196638471407210e-02
1.135831347853783202e-01
9.058264379370445374e-02
1.495033574264095222e-01
1.417621352665734413e-01
1.608825565835621807e-01
9.958444373681568651e-02
8.964385737726979220e-02
7.945285826624473580e-02
9.475985409871603982e-02
1.397643675731065627e-01
1.083542345336772073e-01
8.804371805688698815e-02
1.828695900050716916e-01
1.215242642870494605e-01
7.624375476211765756e-02
8.984551300393738005e-02
7.840441089767599681e-02
6.115334451358455520e-02
9.019009865767878276e-02
5.775687365195382450e-02
7.543054228438109132e-02
4.781432874321123183e-02
1.167836093500392719e-01
1.350807290223743351e-01
1.321209048400527331e-01
1.463140288082712404e-01
1.300144452229391456e-01
1.549916630019035346e-01
1.755034059911427247e-01
2.926355596777282519e-01
2.540517248652764959e-01
3.023202282280096909e-01
3.443232591863586434e-01
4.822874869347614224e-01
5.521398473378253957e-01
5.753801022607685223e-01
6.670456681286551781e-01
7.903932641606392639e-01
8.839586142910027533e-01
9.282768191621552090e-01
1.090571346381925988e+00
1.179316027782415066e+00
1.185171421371604472e+00
1.317748760102334105e+00
1.323391047544232313e+00
1.349529468209678118e+00
1.373062038194615919e+00
1.358906356273077654e+00
1.371598053261450678e+00
1.371512512621072544e+00
1.214624117363634737e+00
1.188348678832174432e+00
1.076793250924771517e+00
9.926715426546025567e-01
9.101923459025282881e-01
8.318534519665197191e-01
7.474794022677704319e-01
6.465881248733003073e-01
5.607788786616506593e-01
4.480008968486053345e-01
4.257073839880139987e-01
3.582618765765356317e-01
3.028959294961224291e-01
2.265970537772103444e-01
1.537044063591758158e-01
1.583910685297755527e-01
1.314043762312990804e-01
6.903923644727463782e-02
7.353305481710629976e-02
1.407693272840305210e-01
9.214177529887254692e-02
8.075524773775735743e-02
6.727238840854180002e-02
3.555663411983018413e-02
8.198115669247756088e-02
2.268297549992916856e-02
1.117725939191009377e-01
1.164567850913160729e-01
1.152692268446788709e-01
8.724200910943852305e-02
1.035973081685670760e-01
1.173514910305814007e-01
1.797258798045840711e-01
1.215219717514271491e-01
1.131638654898886598e-01
1.251414569932595422e-01
1.497899013662785939e-01
1.499907551322800792e-01
1.426487690086221671e-01
2.145782203629809648e-01
1.442660061221512358e-01
1.773515461900402601e-01
1.918188141646436362e-01
1.850484856109008147e-01
1.873630945430873884e-01
1.891195601381734093e-01
2.097980366511758010e-01
2.130935447010611217e-01
1.923536482931138547e-01
1.603527582655984718e-01
1.798835643488168601e-01
2.467326525889724231e-01
2.619495535059943592e-01
1.811120834968767412e-01
1.760760451369084434e-01
2.454317728722846259e-01
2.060070560105138338e-01
2.142783450949516388e-01
1.700915771669277154e-01
1.600119246054991229e-01
2.491719181329187516e-01
2.118853248656547006e-01
2.440517634540746994e-01
2.518796824367163234e-01
2.007127859573233364e-01
1.981116378232073982e-01
2.068092429768417229e-01
2.360786845155156966e-01
1.849488495291422008e-01
1.673010132428799090e-01
2.041820384399072874e-01
2.416755180567564387e-01
2.556523912527514653e-01
2.028339835484878895e-01
1.336456481634938909e-01
1.766114526108299443e-01
1.893298809820420092e-01
1.437825001507966327e-01
1.985622672653375165e-01
1.330896982572799536e-01
1.629851199221483415e-01
1.807735164575708930e-01
1.399045748617049334e-01
1.111322689032299138e-01
1.602851412971149914e-01
1.287054860114040522e-01
1.365649252059089047e-01
1.040144765034968499e-01
6.106693127887055650e-02
1.101652485128456482e-01
1.001228367011706283e-01
5.228792989476796493e-02
1.426665042051503129e-01
1.082086379768598117e-01
5.665142917375273757e-02
1.094385186259624054e-01
-1.111262156577031909e-02
9.888385500754995339e-02
4.858664378287746999e-02
3.555255259161525794e-02
3.906959999210789236e-02
3.022637928913394015e-02
6.143411011670446564e-02
5.973664148209648084e-02
-1.338144136754506816e-02
4.071105350364988273e-02
2.589803054288170731e-02
5.390666181910798438e-02
5.849090457220002676e-03
6.572120164536690567e-04
3.324397022593079953e-02
-6.961346179686255659e-03
4.548420073590975221e-02
-1.303852422047196286e-02
1.110176751122838451e-03
5.534265981019383107e-02
-1.733158078881271574e-02
2.038924783549523820e-02
1.832417155527523572e-02
1.700427002343671973e-02
-1.085659779368478538e-02
5.615018300093276016e-02
1.476246885458964639e-02
-1.980430080887392308e-02
-2.552558931565780675e-02
-2.971012811474890367e-02
1.478139668894861911e-02
1.630830217009320710e-02
-6.327264921768735104e-03
-1.925260951101429030e-02
-7.041629426791261304e-02
-4.199866483138095519e-02
3.903293003928257066e-02
-2.240893061077098986e-02
-3.584413063969665858e-02
-3.494657260884945563e-03
6.917114568398866417e-03
-3.510931522063220206e-02
6.223523420811210433e-03
2.340842013120459850e-02
2.200036849675812006e-02
-1.216626711215827196e-02
-3.678793087200762750e-03
-4.151652968931580923e-02
-2.483831273229392123e-02
5.463076280641924326e-02
-3.915718361459577523e-02
-7.337799449688117703e-02
2.603329508609287385e-02
-2.812434094618565181e-02
-3.371120820057545327e-03
-5.829950816861399071e-02
-1.212198786720608025e-02
-2.754314262821989760e-03
1.965079529184786920e-03
2.639401099951640267e-02
-1.675679764221566989e-02
-2.324686572705369353e-02
-2.247692353614730732e-03
1.633149166971439685e-03
2.427386600636759640e-03
-4.215849535444298607e-02
4.450508526876895132e-02
5.569684438075157840e-02
7.436595964561305838e-02
2.327966937273400275e-02
-2.837560531676132022e-02
1.936256723251585446e-02
-1.443442293745553738e-02
3.557975297844460927e-02
1.833283703157828279e-02
-1.234637205072163998e-02
2.722808648288221542e-02
5.374454980466388671e-02
-2.640073269678815115e-02
-9.235792796756099945e-03
4.343176436514139399e-02
-3.877766922584105838e-04
-5.589624936265200766e-02
-2.276899657811364691e-02
6.445367154670822440e-02
5.615601985314878225e-02
6.100698730153203408e-03
4.974341810139121765e-03
6.154139349459927799e-02
-7.746688725911683032e-03
8.049383544891638986e-02
5.452014008306938636e-02
3.447353696795297379e-02
8.264423368296663908e-02
6.298772761103253737e-02
4.821653284225862340e-02
7.393229194988348851e-02
1.217016445511317768e-01
4.141636974243531610e-02
4.545867321447918941e-02
1.149594372490406330e-01
1.494170949043795715e-01
1.009676095206521740e-01
1.639344326659788464e-01
9.894705283770154070e-02
8.354043674143075970e-02
1.596903503547668079e-01
1.044020151877305541e-01
1.110226819175289814e-01
1.613717517406084156e-01
1.238580743500392739e-01
1.786680955673064508e-01
1.288670946035555820e-01
1.742491494452029499e-01
1.973331236442052439e-01
1.591889307439804946e-01
1.374930812203379871e-01
1.190470193455734765e-01
1.962156267163047141e-01
1.316091694348588692e-01
1.067529612155807273e-01
1.989594708665151368e-01
1.261460757339046002e-01
2.285426050439946233e-01
1.237122555048662254e-01
1.622920379626731080e-01
1.514310459229119277e-01
1.518947906508845147e-01
1.876383237636059798e-01
1.101198469015442216e-01
1.793826278021062592e-01
1.360192568201164798e-01
1.916610811971220241e-01
1.779012980534555033e-01
2.461652421724233042e-01
1.863696900382350308e-01
2.685908705512338734e-01
2.450291015413055551e-01
2.878991647385199526e-01
3.359883010237545431e-01
4.465913150373026497e-01
5.073461725305746794e-01
5.423312633998879084e-01
5.775875780799790693e-01
7.398535562240370345e-01
8.017485022876089662e-01
8.526095961596282802e-01
9.613882698394669024e-01
1.029833210468174221e+00
1.110929694717868177e+00
1.245533260793861396e+00
1.255770533958253221e+00
1.337323770590277627e+00
1.390820248376751334e+00
1.475394048793299051e+00
1.431915237048305700e+00
1.421671368738871122e+00
1.415228213380389732e+00
1.339416218888382692e+00
1.260627476004221315e+00
1.209422288295125325e+00
1.148845972720477171e+00
1.040517710848071431e+00
9.737092308405708163e-01
9.590788009073609732e-01
7.479763353309033524e-01
6.773813697858508398e-01
5.741507447235042472e-01
5.687979203439004205e-01
4.487621720525099556e-01
3.847924808948002262e-01
3.371033810898816374e-01
2.797006259038566922e-01
2.282434325525318219e-01
2.422930432182535676e-01
1.656762737191390944e-01
2.277051538705614775e-01
1.298962913099710459e-01
1.245966493479030435e-01
1.609992637970591722e-01
1.622974673027952064e-01
1.300471294937451117e-01
1.625668708886965907e-01
9.780450825436466655e-02
1.114155932950414984e-01
1.659809570342095919e-01
1.671919125265308725e-01
1.577536611048838688e-01
2.031780672873808868e-01
1.637998709198623670e-01
1.039476781173688524e-01
2.552767693528708026e-01
1.984047810120224686e-01
1.818683124438353893e-01
2.100411206315273283e-01
1.738540603405981377e-01
2.469910787720205891e-01
1.895463179526077624e-01
2.141620642020836129e-01
2.107591875175335305e-01
2.286538190737570642e-01
1.981728399492615478e-01
2.074290637200235654e-01
2.306574248475053990e-01
2.365140737805919990e-01
2.516065956265006731e-01
2.428518859966873333e-01
2.316561660381274701e-01
2.969986917553402161e-01
2.495970994285715561e-01
3.302220827938832093e-01
2.696010509047451764e-01
2.901812106189868290e-01
2.430867627613846615e-01
3.065600421215941007e-01
2.695452461497261365e-01
2.991924228042218692e-01
2.719083352520876851e-01
2.852200338205470032e-01
2.762607563963043189e-01
2.685694529145969955e-01
2.886130685704132448e-01
3.198624830328823943e-01
3.190006310804597844e-01
2.819286823718142321e-01
2.734468816937317692e-01
2.633295848032757847e-01
2.852889261349418337e-01
2.378861922923316552e-01
2.654051601682578254e-01
2.691392785173064572e-01
2.581081864749317223e-01
2.571593443116622080e-01
2.810117280425998842e-01
2.100633042065487011e-01
2.150422064219267848e-01
2.453791288499518330e-01
2.079605343779248328e-01
2.502192483289228941e-01
2.123237696302394673e-01
2.025638662889920616e-01
1.507253153989708550e-01
2.242119961652314641e-01
1.729269785711205210e-01
1.478324128112313007e-01
1.701475754000412455e-01
1.583976344339851627e-01
1.139192452627443425e-01
1.810935471341920122e-01
1.850631166757362445e-01
2.188417622995866285e-01
1.932159180905662077e-01
1.764760441217773090e-01
1.469261193816477351e-01
1.688385423077906344e-01
1.231742504421085016e-01
1.161461375555418174e-01
1.471263364516591787e-01
1.242139496287406747e-01
9.983369123447739801e-02
1.735465305037525441e-01
4.402696622754842526e-02
9.747995025114740419e-02
1.090029971004911197e-01
1.258295436986175964e-01
1.107838746933629825e-01
9.603086163911914164e-02
1.031600719840873037e-01
4.759845855861278424e-02
6.279830301675976001e-02
6.937365011391655178e-02
6.074154654969236844e-02
1.023857619633386506e-01
9.726450018554602672e-02
9.281399440754420360e-02
8.044011468178997870e-02
7.031374687831661030e-02
8.477738337885659670e-02
5.527088687334281297e-02
5.416416100547965379e-02
6.240196746666749200e-02
5.195903043474027483e-02
4.654424575727864055e-02
3.451080090219882379e-02
2.341701137253047321e-02
3.688492590887097050e-02
4.278838759045122675e-02
4.033645267747139329e-02
3.023735626643634863e-02
7.591048519864471156e-02
5.311888352652224810e-02
7.803784324531813643e-02
9.550706539017446428e-02
1.835847283628021590e-02
4.193075066496521758e-02
7.277923770468539000e-02
1.177013643137977961e-02
5.266953501737042798e-02
4.444745532241581309e-02
5.558083098134214417e-02
-2.295956690445804388e-02
1.141720617163535789e-01
4.439586942710019996e-02
2.951636307499234946e-03
6.058913036687962883e-02
3.680026840904532248e-02
-3.785453045799795635e-03
9.456856535543942122e-02
5.694021376284949532e-02
3.856951050739564069e-02
4.553512729295582789e-02
5.314181270469468810e-02
1.327828460024890744e-02
6.397361805267751111e-02
4.663045260949528342e-02
2.088513384131780032e-02
1.200503321389518180e-01
2.480188097317734611e-02
7.429874692201070274e-02
7.189443455779774561e-02
4.269635256491999958e-02
6.280167469843221661e-02
5.382109253261978948e-02
2.251518152981602308e-02
6.519463693611766975e-02
3.323856947191426020e-02
2.932551414936779288e-02
4.525580652322210712e-02
7.440770610179194000e-02
6.422403586230807093e-02
7.611472797500140608e-02
1.337985291771100760e-01
5.314812337813164256e-02
7.004799802329088332e-02
6.262613632958123622e-02
5.331854402113153646e-02
6.220990997200680911e-02
4.018779452715111333e-02
6.445268088800082396e-02
5.035672299140876718e-02
2.684786626513646288e-02
7.496603238620584697e-02
2.796970783809490935e-02
1.099346345770861183e-01
7.932378984222117346e-02
9.588931211442119906e-02
6.977323275883549891e-02
1.125824479414785501e-01
8.129293072960759592e-02
1.126879551930608236e-01
8.601127582264359028e-02
1.013929669811229478e-01
1.315959736708479655e-01
1.505746036573245572e-01
8.678440817924842898e-02
1.459637900554555667e-01
1.371009956975701438e-01
1.304245668799690616e-01
1.967574137767013898e-01
1.780404005198788775e-01
1.794026599191579641e-01
1.331299957710052606e-01
2.158076498533612331e-01
1.796722830810963956e-01
1.554311417230464509e-01
1.702116480960932099e-01
2.372667461636312480e-01
2.359812606280089764e-01
2.372090710251875678e-01
1.812394897803349392e-01
2.034789561027545157e-01
1.636165670475370204e-01
1.993550702744839587e-01
1.633529113423733969e-01
2.151225073775019370e-01
2.155134488655118530e-01
1.719979288946769935e-01
1.914244712049997243e-01
1.747672689914768762e-01
1.589590531598935874e-01
2.298805356389114762e-01
1.593628950148276435e-01
1.949007869001700421e-01
2.214456089309315145e-01
1.711408479899190205e-01
1.786293010295718631e-01
2.138475331854605976e-01
2.472485772588016717e-01
1.826713735248874926e-01
2.457787025023139837e-01
2.568105349608093557e-01
3.000587052252817744e-01
2.989236590181306719e-01
3.753516301741606220e-01
4.653385827366932070e-01
4.711377245195169650e-01
4.854639292617728419e-01
5.924357782700502284e-01
6.992332083274180876e-01
7.333161402631218628e-01
8.199634889564595408e-01
9.339395892572920355e-01
1.025643845615592520e+00
1.192812449063540337e+00
1.201650574329932830e+00
1.260909586399673099e+00
1.369148650294673919e+00
1.353618561914625928e+00
1.439747103953002094e+00
1.439725194150274667e+00
1.468365981850580093e+00
1.418357258724122216e+00
1.437373881231671646e+00
1.397332267581848475e+00
1.312555536553042357e+00
1.186703257927815613e+00
1.197850225027249360e+00
1.055743101330081091e+00
9.835525578234540767e-01
8.928717908257988167e-01
7.786642554435028174e-01
6.951908221917471042e-01
5.885831170936088874e-01
4.986573215323061303e-01
4.388850173015143019e-01
4.133998717711452331e-01
3.862269466082365321e-01
3.156256437500602474e-01
3.186258797768432016e-01
2.602351150085789877e-01
2.254758364821128624e-01
2.294127378125950800e-01
1.778898742556502544e-01
1.955896918357113157e-01
1.681739021788249688e-01
1.719356220135588309e-01
1.728462909190822128e-01
1.382110890277861159e-01
1.490775491857298518e-01
2.162723624252660126e-01
9.015259938035297127e-02
1.516978482778136572e-01
2.272788622680612936e-01
1.550827384567159684e-01
2.180338993327148311e-01
1.782823953345003265e-01
2.396188808607284948e-01
2.305084201156216706e-01
2.346527720193108957e-01
2.239479419252995984e-01
2.275032784760243065e-01
1.945040981216442366e-01
2.238867638100818236e-01
1.857520736948806428e-01
2.263708019235990410e-01
2.728945744492091707e-01
2.759684632280698380e-01
2.081923568481221787e-01
2.622272755290733226e-01
2.881257796660723347e-01
2.271644332182871096e-01
3.075503072472689503e-01
2.829304744853871068e-01
3.070551734244879594e-01
2.811644548418779088e-01
2.645904953211948851e-01
2.606570831590292459e-01
2.856978807974672185e-01
3.303067149801511837e-01
3.459843207682133936e-01
2.866446072699027070e-01
3.382980747480210382e-01
3.311257139990049780e-01
2.976412113728196251e-01
3.141551504832134079e-01
2.702697517016252604e-01
3.076731948581269971e-01
3.473814958829031241e-01
2.738299296243948411e-01
2.626823184617028684e-01
2.965681607193721980e-01
3.045320096573721491e-01
3.065394502905003371e-01
2.322426192890934549e-01
2.205669642563447552e-01
2.238132576202141732e-01
2.751560653368942400e-01
2.671865643160130088e-01
2.181716196777488403e-01
2.281392414242161548e-01
2.160869596207288523e-01
2.848940409102223570e-01
2.453034022676464088e-01
2.017140943391140528e-01
2.419370788343475631e-01
2.485548071939221726e-01
1.831280129926989853e-01
1.653491062963950153e-01
2.015811494289057038e-01
1.529417104768871494e-01
1.721883259136922084e-01
1.667991939482583175e-01
1.683570700724933977e-01
1.772106629495441565e-01
1.793100080551693620e-01
1.903083225470892370e-01
1.375833551717908776e-01
1.217310323267425942e-01
1.370860984870226895e-01
8.881123604469809418e-02
1.616272372095913790e-01
1.297856617546513935e-01
1.264666245002757095e-01
7.008020536925310684e-02
7.569521138312693131e-02
8.154320002493573027e-02
1.539408270653955801e-01
1.108717500570552683e-01
1.144098419849682580e-01
7.106695602270546308e-02
1.129075483591657353e-01
7.738481908441535717e-02
7.810892270608797705e-02
8.908843720799924926e-02
1.104623929102222374e-01
8.798725817560071327e-02
1.253094270672582000e-01
1.185014043426206032e-01
9.983471066256710547e-02
6.773680584585517472e-02
1.035815049277478139e-01
2.947188697794800652e-02
1.379799982958729299e-03
7.065133934840681085e-02
8.795625548133351179e-02
1.850968715398025599e-02
2.000019310440263876e-02
6.842938658156888510e-02
5.310494940209290610e-02
4.950983315960386794e-02
5.989995073094261935e-02
8.020577688609784039e-02
2.765827305635832484e-02
3.422005430605264825e-02
4.813405563061122494e-02
2.244425193912372510e-02
3.524112501952822440e-03
4.984450236568574444e-02
-2.133792719645470626e-02
2.811835678901334484e-02
2.757675875567026230e-02
3.171043841569471528e-02
-1.162539939138915873e-02
2.343112883428619120e-02
3.106046896915681810e-02
3.933001149001773278e-02
3.372583848481854052e-02
3.956273447138217159e-02
1.083793273814505007e-02
7.832369310898104620e-03
3.994406300608391303e-03
3.601634775156353774e-02
7.106927572617462163e-02
-3.359707545530353501e-02
6.972525529294805458e-02
7.758904381964641661e-02
-3.152225956864996431e-02
6.586678562585422669e-02
4.555212724300008315e-02
4.250229082997356023e-02
4.714195249986896652e-02
-1.562207202615419413e-02
2.395417934194122786e-02
-5.797567971227046701e-03
3.673351296278747763e-02
-5.579887732282377832e-02
4.631041886198463547e-02
4.762633165871264784e-02
4.437347016685044832e-02
-2.095120655512029695e-02
3.112942398007778264e-02
1.041771413174345101e-02
3.096069486205763402e-02
-1.086704786201947437e-02
4.380925209176554647e-02
-2.070093441476564960e-02
7.771964073388971939e-02
3.294971275938764210e-02
4.808232282010401620e-02
6.345546927341882970e-02
4.652076156829344777e-02
7.996935343517903860e-02
5.345654885177040377e-02
9.650280290819841789e-02
4.085561555777703774e-02
2.343577870005743649e-02
6.668494767037994042e-02
8.268716319886310062e-02
3.613235468079101231e-02
3.600379233303458576e-02
1.027866852346097370e-02
9.981217401083811169e-02
9.129696233969220032e-02
4.617222826537334401e-02
6.151071817670008407e-02
9.277512368693210942e-02
9.990341863171428582e-02
1.426883975989700071e-01
1.159583475049239948e-01
1.148425668344308093e-01
7.477590596049255023e-02
1.029558366978079453e-01
1.596664088219423849e-01
9.886592344992120585e-02
1.525315142975154636e-01
1.325028023682225942e-01
1.380835798425349426e-01
1.129225297889242391e-01
1.405661276567004569e-01
1.509307648482982600e-01
1.097235519796192771e-01
9.028558445866383120e-02
1.546577745890555522e-01
1.374206515413620988e-01
1.585619080774773038e-01
1.407521829842775796e-01
1.634868611477785783e-01
1.451253230625822177e-01
1.168573720521380033e-01
1.741739723878614476e-01
1.248617748455792265e-01
1.933697236534808184e-01
1.579846192196005250e-01
2.043376901587683203e-01
2.098565027591535737e-01
8.219861095634500847e-02
1.141656181624045308e-01
1.433481776163838539e-01
1.640341628864104284e-01
1.958265335276059282e-01
1.957566835319070053e-01
1.477562742190545175e-01
1.579587733354531343e-01
1.646987083446432021e-01
1.676208688568122107e-01
1.691711305863099757e-01
2.318948739779574664e-01
2.886896125562452009e-01
3.595526804978078639e-01
3.569591031267521086e-01
4.228797463358984210e-01
5.303380488791223923e-01
5.831303716524017799e-01
6.499217380975800262e-01
7.025579879068524214e-01
8.389303725851547933e-01
9.293959306005249443e-01
1.006648085088249767e+00
1.098791794252308662e+00
1.136254092641908020e+00
1.234338663793266511e+00
1.390781952164171553e+00
1.382773143082162814e+00
1.411666563846661226e+00
1.447789793819511228e+00
1.411697206648909519e+00
1.415918322080074399e+00
1.385197283508628585e+00
1.370713008790348297e+00
1.235632682423327910e+00
1.197778544981328963e+00
1.078899627041246978e+00
9.661988592855972335e-01
9.127676003799827242e-01
8.660301433885080336e-01
6.944538319032653728e-01
6.266910927060803660e-01
5.632768716665890185e-01
4.784793091029840850e-01
4.389627488032754044e-01
3.243660632950330358e-01
2.616733346861803700e-01
2.799177490333155660e-01
2.175190424896253916e-01
1.641336690342418692e-01
2.243183766988677275e-01
1.458580583681421128e-01
1.570807959085665229e-01
1.234634313843702286e-01
1.080802048997620141e-01
8.250152178111924695e-02
1.342327042997148168e-01
1.129012665364064333e-01
1.102445948051877928e-01
1.238526806793083662e-01
1.283020822105974124e-01
1.267575996908986702e-01
1.313162930206593637e-01
1.386858951877850410e-01
1.667085457765168643e-01
1.552305421141032538e-01
1.018977423459920123e-01
1.552902841923024246e-01
1.749274519195095912e-01
1.982634704756607857e-01
1.753284489825096826e-01
2.230049921564301874e-01
1.410584800567686314e-01
1.752924636398298652e-01
2.105712385069122838e-01
1.472914511851973751e-01
1.838140801139816205e-01
2.034622017541890260e-01
2.095326385478727960e-01
2.492020194098668040e-01
2.398112859024762178e-01
2.160675273792095896e-01
1.768902154630768164e-01
2.135349212213409897e-01
2.456948836296962979e-01
2.417173061161270176e-01
2.389236713197357975e-01
2.684314870186102486e-01
2.703534914275876888e-01
2.585214536784821160e-01
2.974505813228341400e-01
2.009876112310028662e-01
2.328089684232690915e-01
2.011026345548241057e-01
2.705969214986533866e-01
2.409578923713295295e-01
2.246370060323753526e-01
2.372453425647957082e-01
1.940000701590885168e-01
2.851016883602481844e-01
2.630137980554593247e-01
1.587614823806223208e-01
2.442766804341803544e-01
2.166321163366868863e-01
2.197717014658070178e-01
2.390588632732927321e-01
1.921756367697677603e-01
2.424014465630451587e-01
1.720339122036314561e-01
1.760653131860797915e-01
2.088964672413262946e-01
2.048328980412279510e-01
1.259249479012158890e-01
1.811139916820344864e-01
1.868493395327078810e-01
1.633559228384956208e-01
1.201326387139265012e-01
1.605104743783843102e-01
8.336497925283853361e-02
1.272455199784943425e-01
1.161546026644981189e-01
9.223418944329615787e-02
1.178931298432419617e-01
1.028588779423448146e-01
1.358624754737710605e-01
5.306849191178350522e-02
1.076581993640517432e-01
7.878566405245025772e-02
1.384097375962271559e-01
1.705822392214858402e-02
4.978993050429615652e-02
5.609875365849559953e-02
2.091698621737476949e-02
5.080929232552180985e-02
7.773230046727680476e-02
5.375932561893089628e-02
6.272345249348015850e-02
3.023786285313213168e-02
2.600317901891017677e-02
-2.499258583706497755e-02
1.079001825233548428e-02
3.982087085373289814e-02
1.900131900384277248e-02
7.103668521477680964e-02
2.112134681618833484e-02
6.636417456016534266e-02
4.264822923703392998e-03
8.460039140126385249e-03
5.984023686348153431e-03
3.066712298926476538e-03
-1.479543533599827349e-03
-8.493874036385254400e-04
-3.474653982610119429e-03
4.067594918615317912e-02
-5.288882719542210842e-02
-5.146671208942572850e-02
1.885384021535493546e-02
1.251345366905117981e-02
-3.763287154461832790e-02
-1.664183293251255552e-02
-3.580303601718975298e-02
-5.644779609540910570e-02
-5.694680766647440551e-03
-2.293392109390854708e-02
-6.491529591681952788e-03
-1.630043004576143401e-02
8.657382617151840321e-02
1.217430377961593868e-02
6.412440762530512844e-03
3.446580469073752540e-02
-2.083985598135926209e-02
2.553659050738014968e-02
-1.327869234772930188e-02
-1.923596229346527520e-02
1.007388566321871376e-02
-3.827488001057022249e-02
-1.208121403741486619e-02
-5.496778081502430580e-02
3.308583291318135250e-02
1.348487511979519493e-02
-5.781498493092702279e-02
-6.696526932416427269e-02
1.910627870865526379e-02
-1.099906523037655903e-01
3.436434831109518029e-02
-2.432496675552482668e-02
-2.646524660728577505e-02
-3.660639773577423900e-02
-3.027401631658049527e-02
-3.177209118364818230e-04
-4.749899661366201176e-02
-1.878825040262725038e-02
3.100924869593499333e-03
-5.395258943543716074e-02
-1.406907957973589987e-02
-4.429171153262018157e-02
1.495175326422190296e-02
-6.035376537841836975e-02
8.981075538986256490e-03
-4.173146863638333565e-02
-1.021533481645666222e-02
-7.779484175890367947e-02
-6.812550331997418995e-02
-5.626003411944313637e-02
-7.754290991732745719e-02
-9.109830075123839799e-02
-2.386631555838895913e-03
-1.020594012582715093e-02
-9.367277231600959486e-02
-7.504270514418703852e-02
2.677357125840412050e-02
-5.830448302808066696e-02
-2.541740136086145796e-02
-4.401871783166298735e-02
-7.105402198213926768e-02
-4.029988935289388619e-02
-1.012480768929444053e-03
-4.927217349734194785e-02
-4.618948092872095929e-02
1.502629127417244581e-02
-4.996016347022214088e-02
-3.295823029323333847e-02
-3.536410613301419620e-02
-3.536339493202086265e-02
-5.367876003509056138e-02
4.285901206480318554e-02
-1.288240389068592839e-02
2.062538199944306122e-02
-7.280962978063505731e-02
-2.671830621595747135e-02
-7.399200840510333083e-03
-6.026425155644170306e-02
-3.266022010340943055e-02
-2.764034124261558964e-02
-1.086720094474975806e-02
-2.602757649227756265e-02
1.108509317021277862e-04
