1.355760439501166648e+00
1.320410435090053625e+00
1.321792832268403828e+00
1.246136131040696871e+00
1.210460213874363200e+00
1.164971216182373315e+00
1.034574457928746360e+00
1.042836777358976841e+00
8.578657057347609527e-01
7.404281910177830106e-01
7.117184366382531824e-01
6.664240386335003041e-01
4.830162762470119886e-01
4.327421817660805359e-01
3.547799508506194743e-01
2.667198188504870671e-01
2.726188002369251406e-01
2.988681303295581126e-01
1.964665842517558381e-01
1.317062762182230062e-01
1.433633843258073359e-01
1.004213686431460473e-01
5.762271568001166994e-02
1.039660576021811944e-01
1.456162273469416013e-01
1.032024212662056156e-01
5.728938831138924437e-02
5.600570582671094561e-02
6.880492366244844726e-02
8.004457430716827027e-02
1.047246639331659290e-01
8.566042690948841298e-02
9.969276217437285370e-02
5.791797899923718795e-02
1.316095479408228852e-01
9.548691090275650273e-02
1.372791730287294398e-01
1.201883730073020629e-01
7.808411246362995106e-02
9.881302926960391919e-02
1.666157682997514156e-01
1.167694443854583181e-01
1.269806458194472354e-01
2.030384022370539943e-01
1.071324104325613313e-01
1.801853480405321839e-01
1.791903090774751850e-01
1.385916541116829492e-01
1.514042933999320273e-01
2.016611175203782969e-01
1.858977621979385764e-01
2.122950867055561353e-01
1.758825813028601082e-01
1.705414792213537922e-01
2.001101343480459482e-01
2.117788165309123505e-01
2.027708625848629043e-01
2.086378871503032917e-01
2.315582704292190319e-01
2.072191933202326419e-01
1.909492217743998799e-01
2.154473994874898102e-01
1.811061202802497494e-01
1.400731166352729706e-01
1.829750663896520246e-01
2.483340294591985520e-01
2.183805578494634192e-01
2.440647942206608523e-01
1.923392456049378418e-01
2.325339923095718908e-01
1.853018900375393019e-01
1.567370469244230013e-01
1.633786306880726791e-01
1.613174721683437451e-01
1.828441293435509041e-01
2.155305457688511672e-01
1.599864635511701882e-01
1.535029696471156835e-01
1.855432024082559472e-01
1.831950332999207620e-01
1.583163789107021879e-01
1.500829054055966838e-01
1.305049315904548424e-01
1.460155927362454253e-01
9.470324175115291121e-02
1.471516613682000985e-01
1.034929313574931564e-01
9.349583817606980929e-02
1.116925649700637457e-01
1.044441091719284231e-01
1.461470730505149418e-01
1.250001643257414863e-01
4.392930661878052118e-02
7.191618223524526288e-02
6.554236482321591784e-02
9.640447272361726827e-02
9.593819080298934820e-02
4.963331744860020878e-02
2.960988050820935469e-03
5.390315650583397955e-02
1.012123823077643731e-02
-3.707259289213747644e-03
3.014521241265008533e-02
1.408713800497036345e-02
9.842440856740346244e-03
2.853916695519276292e-02
-6.745332258194396136e-03
-6.449864679424349712e-03
-3.810188187140605559e-02
-2.324619735548838495e-02
2.377767710888864516e-02
-6.538828452177326833e-03
2.956335916764446514e-02
-3.899908196625529594e-02
-4.286681447106400339e-02
-8.485578681183192362e-02
8.910293089085932761e-03
-3.134665660236302109e-02
-2.317102816475152122e-02
-5.588171245336458204e-02
-7.254330401848685383e-02
-4.120190814513902816e-02
-4.307238228293800569e-02
4.345426452511888527e-04
-7.759136004964797828e-02
-4.092767960885073525e-02
-1.143167723065809105e-03
-7.257061365954541043e-02
-6.431292700698429399e-02
-4.323003102101496270e-02
-2.351323055953335669e-02
-3.288230473351277938e-02
-2.536518675852147617e-02
-6.683359869904287320e-02
-3.550459135434185648e-02
-2.572599255236176011e-02
-8.443869471649809166e-02
8.104606605852750223e-03
-5.559750286350016724e-02
-1.018114407914731678e-01
-1.734392499929805764e-02
-5.163298547746925787e-02
-2.768344465764025278e-02
-2.686661299217214111e-02
-3.775579759220419607e-02
-1.108276187719646477e-02
-7.238091312692114532e-02
-3.407715640319296246e-03
-9.510209716864700957e-02
-2.417612760836380589e-02
-3.816881021725886808e-02
-7.898179714752165403e-03
-7.659182914188772395e-02
-3.981455174598625552e-02
1.189282304395645334e-02
-6.847950415492923271e-02
-6.546068412777041046e-02
6.940036395498665189e-03
1.193440160130404548e-02
-3.740458770112523035e-02
-9.260841519203563688e-02
-6.036587686431985761e-02
-7.273546985421214250e-02
2.514240203716831129e-02
-3.497031771995970373e-02
-5.279058363375818685e-02
-2.181458009426923139e-02
-5.162318253969179482e-02
-3.124052914395331060e-02
-1.656957672665457237e-02
-4.212950969852250621e-02
-6.503640379196601318e-02
3.136344887893625921e-03
3.121994831389925118e-02
-3.015609481756078430e-02
4.137398150177353656e-02
-1.518116482109493903e-02
2.192396249528713592e-02
2.648325135610112013e-02
-1.769834239823671329e-02
4.793126694633158269e-03
1.619212550609187146e-02
3.114618807551485652e-02
6.892305790980449154e-02
8.111097262012388620e-02
3.034518828574677557e-02
1.158549580656752787e-01
2.800189056111958286e-02
5.706351929203206524e-02
6.682856134439130180e-02
1.321230805331580216e-01
7.269550994859302895e-02
3.017222639540557277e-02
7.922413212631221335e-02
1.218151368612916396e-01
1.227305333655513975e-01
7.579331591248741895e-02
8.682886513357185310e-02
1.263491614400915619e-01
1.169833211288361097e-01
1.056325271054956438e-01
4.286373699200216048e-02
8.951502849531678407e-02
9.909218877614558996e-02
1.129895501470799396e-01
8.369770057701723942e-02
5.469102120835208497e-02
1.049386197222435535e-01
1.165172730898949849e-01
7.313313672456156489e-02
5.303463401637483615e-02
6.117942876325480756e-02
4.480762721336746524e-02
8.037893750401042814e-02
1.031051796623320416e-01
1.073561692121512146e-01
1.861109966469229882e-01
1.556419781028214877e-01
1.673477055024960580e-01
1.982572676389850186e-01
2.693443882075168272e-01
3.221147729638235702e-01
3.600408540879997399e-01
4.637429774282808004e-01
4.796007928516230479e-01
5.574590232412832691e-01
6.628358419844715410e-01
7.091480291712304318e-01
7.801271355226484516e-01
8.897345424146653192e-01
1.003950695417294092e+00
1.102646669754893338e+00
1.162833761467974458e+00
1.240216026115031678e+00
1.290867459355292679e+00
1.333078177748908244e+00
1.354083081003444988e+00
1.305436701297919111e+00
1.332227308379218655e+00
1.324506320025792050e+00
1.239153262654354437e+00
1.199174933346877969e+00
1.082905216050564112e+00
1.046946316301961222e+00
9.929746027481385351e-01
9.547713085131536159e-01
7.648506645380575009e-01
6.798526114826015654e-01
6.730618641457809526e-01
5.856866843212600315e-01
5.032714133084804642e-01
3.439885648773877702e-01
3.518374667252664456e-01
2.801589991160768900e-01
2.646533893606682897e-01
1.777362034832249138e-01
1.826924114092848550e-01
1.309962764791415823e-01
1.331892789531063104e-01
7.672529414322029617e-02
1.314209455431742946e-01
8.561335403185532655e-02
3.881141126497220095e-02
7.806763969505897682e-02
-3.681304455351724902e-04
7.781329166969705446e-02
8.411327423912086376e-02
8.376524633637227879e-02
1.381649252976027975e-01
8.201905442815132785e-02
1.032431590164208796e-01
1.587868856835409626e-01
1.413623418804584864e-01
1.383690829243819642e-01
9.843138803472517573e-02
1.770961693139109505e-01
1.167568003290009870e-01
1.708169166243252157e-01
1.645823924550153805e-01
1.761439190949067313e-01
1.811444585109164562e-01
1.638180042753172583e-01
1.925669014324577766e-01
1.656246281962989453e-01
1.825811701351905958e-01
1.592779066734664184e-01
1.833712489142022561e-01
1.571750923692885604e-01
1.934770009122307455e-01
1.987716163272595093e-01
1.900659639118274791e-01
1.591171663743955744e-01
2.036523441486803865e-01
1.905187560619895915e-01
2.209910452045705798e-01
2.185778208215345131e-01
1.981895577165249112e-01
1.927939233076104708e-01
1.689939412076005287e-01
2.432703137360500700e-01
2.176949866901149722e-01
2.288589798815948706e-01
1.940744985317159332e-01
2.404736855704212861e-01
1.834534259309795745e-01
1.792230015365562368e-01
1.903092294263974693e-01
1.810545317019028877e-01
1.735089520552562659e-01
1.634938453669616265e-01
1.355790106908049686e-01
2.093625584474546053e-01
1.743637875222866229e-01
1.769706935461255459e-01
2.463824955340649381e-01
2.198206463540731681e-01
1.692899688206769837e-01
1.962200639845729233e-01
1.524926842070819522e-01
1.684004108530273713e-01
1.103421745144976679e-01
1.204292059343875926e-01
1.124723593008508521e-01
1.357758703101194508e-01
1.897069961418488826e-01
1.352655113315256452e-01
7.263798294166712299e-02
1.159241400619606122e-01
1.296996339093505757e-01
7.349560305823144013e-02
8.938893200399938843e-02
1.038070396828553871e-01
1.507353465839524342e-01
9.247734271291366270e-02
6.616433289664994111e-02
8.394270265505270057e-02
1.202434369808515896e-01
7.443092865537492830e-02
6.485713264401091194e-02
4.399432110913580052e-02
6.188214357553772221e-02
-1.216142647530477072e-03
4.969687560095700785e-02
-4.363122708598241029e-02
6.931160709503231265e-02
4.597236300829857236e-02
4.532310284938939615e-02
1.015095797758123058e-01
1.410088980455890054e-02
4.476716957722604029e-02
3.411613572615222745e-02
-1.030226296954628654e-02
-1.640016784127782193e-02
2.690811759916212145e-02
3.585221126527168151e-02
-1.135569095307473013e-02
-1.331380338971750038e-03
-9.467857882501373723e-04
5.456122145555498959e-02
5.929351914948925023e-03
-2.560858206966032044e-02
-2.086695769578466447e-03
-2.481852865826816856e-02
-4.836670261866921755e-03
-2.685145592288715535e-02
-6.945888728229183962e-02
1.070538190924917588e-02
-3.442325262949814252e-03
-9.601890700886155094e-02
1.437271967885822219e-02
-2.139168610424451583e-02
-8.811865353714960422e-03
3.042885110246006108e-02
-1.657189504145067244e-02
-4.108940720734661350e-03
-4.751141861462139862e-03
-4.188185246862399097e-03
-1.012912855741963242e-02
-2.457657025911185594e-02
-4.501909249093322130e-02
-4.274697713209375804e-02
-7.613996510382369659e-03
1.716769641634079135e-02
-3.869177323314302447e-02
-1.297799468625897464e-02
-3.734668153139499014e-02
-1.038110765350205161e-03
1.554869070144080864e-02
1.591427457562723594e-02
-1.180192531125786280e-02
3.491185880908896644e-02
-2.187058773210406523e-02
1.729597343092230052e-02
-3.497036318641345842e-02
-6.179861274509102984e-03
3.733758331088977978e-02
-2.479933287532580521e-02
-5.006014401322115767e-03
8.363145243598065978e-03
-2.375731517994590647e-03
1.931383847339340071e-02
-1.735590540081060132e-03
9.101102035940587115e-03
1.879991605887458908e-02
5.827270073331056177e-02
4.319591290658549715e-02
2.377181396241149006e-02
4.130508859851782233e-02
-2.835059997263088966e-03
9.662107369379796529e-02
5.296801622460860920e-02
6.711372379686589285e-02
5.414817663610408532e-02
8.914083659799781900e-02
2.772321111872188409e-02
6.271808209700029113e-02
6.296011598338813187e-02
1.145916652262908703e-01
7.643481145055175396e-02
7.015827457842152559e-02
5.498400894260382227e-02
9.474021740508693779e-02
7.863293009783654808e-02
7.690219406543685743e-02
1.091249091909859137e-01
8.104866577055447330e-02
6.986939101629911775e-02
1.029124529856021986e-01
1.809404224067976130e-01
1.572872959618028810e-01
1.213803855224598188e-01
1.504118549796167048e-01
1.648512410193536115e-01
1.759161610954602661e-01
1.086856157252737987e-01
1.570576460341628622e-01
1.400605539074313011e-01
1.679210797815365863e-01
1.210675562133942951e-01
1.382556487751112062e-01
1.355441898178697535e-01
1.011827014029002270e-01
1.387544377344075430e-01
1.315693960804710239e-01
1.218789965067308412e-01
1.155422580602691873e-01
9.326657693953918637e-02
1.459846877612468730e-01
1.449370736413385097e-01
1.171077637973204494e-01
1.245668763579371868e-01
1.471331720707922674e-01
1.791746455694918083e-01
1.883775228555283066e-01
1.897600004875469593e-01
2.071824965976977184e-01
2.673454422185265189e-01
3.051989490030806995e-01
3.058458382661853325e-01
4.170682640777703121e-01
4.052548880935706310e-01
5.407229115537672826e-01
6.008774423151367339e-01
6.759121837494102003e-01
7.870154359586181148e-01
8.597800123150447504e-01
9.386638021909541330e-01
1.080213371576780101e+00
1.186813395381284275e+00
1.139955751767656622e+00
1.273903055706307796e+00
1.326029931504720594e+00
1.335988947713905528e+00
1.489351684444806700e+00
1.392442046954196266e+00
1.348377202863206392e+00
1.351745314543162824e+00
1.363454863809503426e+00
1.306032588443657660e+00
1.269919663928111397e+00
1.132253376498913555e+00
9.639874661802955158e-01
9.036867323075724601e-01
8.225619435232698340e-01
7.419192643706472579e-01
6.199056043855283304e-01
5.338298562002921077e-01
4.809719528207491712e-01
4.359105961604426982e-01
4.198658787698364425e-01
3.507718628628805901e-01
2.813888909329325116e-01
2.198890527238865911e-01
2.022853800932473411e-01
1.873979131358047279e-01
1.274161533147877556e-01
1.026021353754085486e-01
1.201297772763282590e-01
1.205876920396141277e-01
9.697827311163925712e-02
1.302670050842673899e-01
1.206967452870941621e-01
9.623756177577547088e-02
1.049329975141439775e-01
1.821518249564391956e-01
1.673669801415471614e-01
1.284361956077539335e-01
1.334295208349755291e-01
1.777146139431229621e-01
1.834905855050223966e-01
1.261051005734759589e-01
1.411087121836371860e-01
1.658650528744974040e-01
1.881017983622708944e-01
1.745874776916061522e-01
2.293098790329617942e-01
2.248261368644839664e-01
1.543615399426468693e-01
2.483592887241790614e-01
2.450882916613217610e-01
2.554958149535135337e-01
2.381822727473604795e-01
2.468495929408922596e-01
2.415039319875274815e-01
2.912594814452716396e-01
2.579215911513383919e-01
2.343177540372082257e-01
2.787222796544389092e-01
2.487677062044251486e-01
2.276764543428668186e-01
2.480845263402445267e-01
2.069557779107940032e-01
2.894440117258699763e-01
2.973835736858769230e-01
2.260619681218069832e-01
2.641326923215861489e-01
2.266684949265589666e-01
2.578300104600368403e-01
2.360830459683858074e-01
2.805146495237078597e-01
2.723715962227921672e-01
2.568060339404539816e-01
2.196453702779924411e-01
2.304755593895938537e-01
2.468143287329717661e-01
2.666798445654116612e-01
2.677996738796232234e-01
2.814377667585216125e-01
2.605808711865765792e-01
2.621417565151509810e-01
2.659163182242320622e-01
1.891823235502731182e-01
2.790065382525323545e-01
2.346263318693569411e-01
2.187002055829791736e-01
2.562946960634089333e-01
2.565600750865587587e-01
2.860023151284301068e-01
1.357460969811141727e-01
2.323178556839568254e-01
1.972545225599896257e-01
2.519681133010285290e-01
1.441098931391719962e-01
1.232864694117817711e-01
1.672246203825384914e-01
1.163047290416779622e-01
1.775153696102346468e-01
6.895690945647008074e-02
1.550099398082104285e-01
1.386889548382017057e-01
1.606848690799301260e-01
1.388228475716189736e-01
1.249350481128841395e-01
8.888881440935966771e-02
1.367138477658603746e-01
1.019672699118013698e-01
1.708189852000868425e-01
1.023067869219031756e-01
1.377503622772002778e-01
9.355629174395968528e-02
1.311885254532062783e-01
9.819849152128376502e-02
7.860356013838359912e-02
6.808458014459270458e-02
7.871437873482378667e-02
7.984412067343339692e-02
6.696399467331903832e-02
8.084816786650235454e-02
4.476732209407986718e-02
8.975801528060711743e-03
6.628423423593926556e-02
6.700988757809758778e-02
1.184082217082615129e-01
4.697263093434717734e-02
1.229848156165227469e-01
1.462192701673058204e-02
1.050872478781715580e-01
1.136608141578735603e-02
9.109914923224679550e-02
4.708286268201794522e-02
-6.937887780312151920e-03
1.081980134099931601e-02
4.439313028336389771e-02
5.702967502705177938e-02
3.472298860247865354e-02
2.916881943176594799e-02
-3.411170203637681891e-02
4.402725391339740862e-02
6.399122648227154042e-02
4.171480304074957901e-02
7.293165220691799622e-02
8.858160828139412246e-02
-8.274254683855557235e-03
4.108593457545129529e-02
8.333913707116693409e-03
5.316195079259308093e-02
6.015159596345577564e-02
6.622615266168180304e-02
6.188800039895543670e-02
4.643288264057440079e-02
9.025500948636093479e-02
2.572466219523843189e-02
2.684218682430980149e-02
1.921006666422180736e-02
3.763318504291276317e-02
2.470497409199502725e-02
1.020223148806916613e-01
1.114991936491007835e-01
4.925984866747230850e-02
-1.011748199679469995e-02
5.467446872036969829e-02
6.288635399826400518e-02
6.173585759973369835e-02
5.022708622764965325e-03
7.136048942874695378e-02
8.115721630813438336e-02
6.117279498032066054e-02
1.156980028765742519e-01
-1.278789802607128989e-03
7.149159533515844767e-02
4.582601280362753188e-02
6.590679715209359080e-02
8.985396569030007496e-02
6.146224631116496001e-02
9.382407697050901274e-02
9.330047692808340898e-02
8.771120897888487478e-02
9.238706347736452829e-02
1.267740718498651109e-01
9.839522828321467518e-02
6.396644888243027682e-02
1.080236300179748810e-01
1.191455239762957141e-01
1.432121625852914026e-01
1.514008637467550711e-01
1.373641835101136743e-01
1.471993117189335787e-01
1.904978031874360878e-01
1.470954276090992718e-01
1.659696118549712773e-01
1.731267073221594843e-01
1.364778542860725641e-01
1.483252769430939422e-01
2.051878579471293484e-01
1.999646451204277475e-01
2.089032573140515436e-01
1.653046949846327940e-01
1.490672602896496168e-01
2.296745649832981628e-01
1.519323942947798933e-01
1.990527566265458959e-01
1.943530915983281426e-01
2.321229418218854756e-01
2.092941737663218671e-01
1.826481087659387881e-01
2.229476096733473689e-01
2.106507327532472218e-01
2.132946184505817300e-01
2.122024355896285075e-01
1.900384543991687214e-01
1.694606036536139837e-01
1.863848631674227263e-01
2.182076400667591898e-01
2.793494869898266453e-01
1.833201864378283807e-01
1.173745157697003300e-01
1.527258781544861554e-01
1.972232683409051446e-01
2.188431038777548798e-01
2.326536301948582408e-01
2.192252507508158088e-01
3.644074285574500083e-01
2.699384192139371308e-01
2.805650818010627656e-01
3.136357521451617059e-01
4.122766570761246530e-01
4.316218518700147833e-01
5.237933278164124129e-01
5.686872138022277534e-01
6.340450959307623036e-01
6.660288418669739752e-01
8.127893753652258857e-01
9.061802602620703251e-01
1.043775739225711430e+00
1.111728636275148396e+00
1.199712704113639505e+00
1.269553424980401246e+00
1.275142589465423804e+00
1.360960749878719511e+00
1.402828599263310050e+00
1.454863837229530166e+00
1.416697910723542675e+00
1.421170112712206945e+00
1.361642377945098570e+00
1.331728463700603049e+00
1.309411709621110420e+00
1.199294236171196681e+00
1.170150937888662313e+00
9.995244067317453629e-01
9.496721932492514506e-01
8.819017683527280438e-01
8.321461019981690743e-01
6.904951543653073953e-01
6.211100597819350089e-01
5.347712359839551510e-01
4.969011369080149065e-01
3.831307013487001423e-01
3.701153701140322827e-01
3.068711327934542377e-01
2.278335213288791017e-01
2.697092871098515920e-01
2.157361780932460227e-01
2.219383767170948762e-01
1.718543244409546089e-01
1.767179192703938473e-01
1.597177218688998757e-01
1.643416380768773222e-01
1.696260006782886742e-01
1.683770085175086417e-01
1.501859056688902849e-01
1.728179109902049926e-01
1.819764148201902798e-01
1.704342594627578922e-01
2.069599032804400329e-01
1.771764863485396913e-01
2.649262671352848875e-01
1.857721976401808528e-01
2.557182481125237494e-01
1.579955904596085925e-01
2.364059239798891876e-01
1.965439666916588557e-01
2.960839745213817431e-01
1.801454346670321449e-01
1.995852939751632249e-01
2.509002414832826044e-01
2.113803644506532520e-01
2.443122460760348280e-01
2.598615766385061199e-01
2.811621178958711997e-01
2.195068518460735474e-01
2.518836259779556608e-01
2.749038078754785230e-01
3.151928614349684965e-01
3.301424127197030711e-01
2.801212961189483153e-01
2.994058715562609718e-01
3.351080647768271970e-01
3.033083570760656822e-01
2.731316443125665350e-01
2.595105215378685770e-01
3.045936720072698334e-01
3.050259115877219096e-01
2.749723481766576660e-01
2.975325354785314791e-01
2.921955444853292505e-01
2.853615181621247388e-01
3.208151227808078154e-01
2.836142150611180579e-01
3.047270694534558455e-01
2.568775797497712121e-01
3.298806297375997953e-01
3.175669021618198196e-01
3.042288779208627281e-01
2.459148223151644830e-01
2.613307063104899908e-01
2.796576674535398155e-01
1.715139350830229004e-01
3.009163805558788818e-01
2.320825122592093948e-01
3.016985052244160470e-01
2.122838936781420438e-01
2.505361529243139707e-01
3.027161927876400593e-01
2.257538559814804002e-01
2.899292231831007705e-01
2.218093843149028244e-01
1.968673594670902194e-01
2.160483555469265016e-01
1.904704354878083150e-01
1.555010951391245788e-01
2.471985003788288726e-01
1.730793775444852689e-01
2.163215165077971014e-01
2.139084912466992783e-01
1.832615427921120421e-01
1.791431782987786270e-01
1.426612041756642191e-01
2.050858857461713425e-01
1.831552878538507123e-01
2.011510208380379583e-01
1.049311036166996614e-01
1.850692520822193876e-01
1.568303393509037913e-01
2.048886199779932915e-01
1.403581451539079317e-01
1.180097234629825798e-01
1.440893598708421486e-01
1.191826528463952733e-01
6.825954291360988857e-02
1.269776748865502902e-01
4.381986597837207731e-02
1.039844551146948126e-01
1.307343768229175529e-01
6.894885525150853955e-02
1.086653051744412291e-01
9.195038020090523512e-02
1.030725403143266522e-01
7.184145241199063614e-02
1.117803937561612226e-01
8.611006071697141495e-02
1.201488762264157906e-01
1.203586951958882378e-01
5.890088613802577783e-02
6.250563290273945805e-02
8.763669642136519278e-02
6.998253624842731835e-02
6.852138393961822171e-02
8.072010052326807072e-03
7.291342411239742916e-03
1.061387711921742000e-01
1.079882714160798618e-01
5.670353735605188072e-02
1.026930978709370279e-01
5.061777721157435794e-02
4.406603501695135344e-02
3.515311329704981502e-02
4.167152559251361549e-02
4.200154676965626305e-02
-3.499659653084435940e-03
2.928658784457624509e-03
1.434712766757764713e-02
7.752185105815989630e-02
5.984737213528837363e-02
9.410441014860010389e-02
2.168905717824071849e-02
7.317479363679474380e-02
5.125398336862598686e-02
3.414460692632875771e-02
4.489468539361818333e-02
3.420505087890794715e-02
2.323252808966519423e-02
7.790933987672582495e-02
1.339470278919310808e-02
1.919027905663204733e-02
4.389598634325826004e-02
5.084782031765444632e-02
2.743879835700722622e-02
5.364145775321196158e-02
4.903015674069557961e-02
1.653454502995392247e-02
5.837046348947158569e-02
1.284309066939648414e-01
3.256197130805582596e-02
7.559487869656436598e-02
7.062332964033837812e-02
4.786201438704856814e-02
4.335569440191549412e-02
6.185435394585228619e-02
7.826226226163529587e-02
7.125621780989101206e-02
7.875439042913229271e-02
5.428217754361410602e-02
3.945748966013789411e-02
9.099797701457640331e-02
1.003229282920293786e-01
1.237628087834351520e-01
1.490217102023594919e-01
1.463631501266591250e-01
8.201510079915072526e-02
1.324047707200314006e-01
1.030588286519254632e-01
1.285172223337152086e-01
1.510473288680881376e-01
1.350894894954793868e-01
1.602324028085765351e-01
1.660304013173437288e-01
2.020949929362718112e-01
1.183075529498014700e-01
1.333710770873171858e-01
1.897813142724461277e-01
1.303665819852889984e-01
1.804838811404145260e-01
1.724209794109568539e-01
2.049112590775276077e-01
1.770749457951346639e-01
1.661214438739594401e-01
2.122253885952835040e-01
1.875253176469605654e-01
1.809800222117511348e-01
1.655333282821601637e-01
2.137886511956412772e-01
1.565555888746675284e-01
2.063948643584445630e-01
2.013354797304027222e-01
1.873295723037431415e-01
1.227199919784280890e-01
1.944760975426422789e-01
1.961858956669489118e-01
2.161235412418757440e-01
2.098543080771537728e-01
1.481442595299111153e-01
1.399348318429199656e-01
1.433367592061347284e-01
1.930221784664181428e-01
2.059412275030546025e-01
1.769583163543550774e-01
1.782016778986479644e-01
1.954825844932112366e-01
1.992118982270613126e-01
2.395889336331367692e-01
2.914209082373623305e-01
2.902313392602394737e-01
3.732101513580106666e-01
4.383832008394076274e-01
4.663595257117967297e-01
5.602254107958463125e-01
6.342192785473047545e-01
7.277847497685040468e-01
7.868998367557032969e-01
9.218585728689023817e-01
9.480177058228788090e-01
1.117733461539223150e+00
1.216647277749919542e+00
1.245404382194143844e+00
1.321635129420554167e+00
1.329487441506451040e+00
1.431424559291279097e+00
1.387257507487393626e+00
1.411733652434031594e+00
1.457294729350686158e+00
1.382018763857036925e+00
1.350066039179289135e+00
1.264713226690851622e+00
1.205290892173494166e+00
1.142471679061201506e+00
1.053569708239837199e+00
9.345528301810639427e-01
8.275079013435838737e-01
7.295054847857314062e-01
6.670231721073366371e-01
6.009230403336441872e-01
5.734263926799220146e-01
4.705063867037856951e-01
3.994119575115995247e-01
3.131467880918619162e-01
3.062363150548018109e-01
2.260564436715741810e-01
2.340884867103776856e-01
1.844093201360973711e-01
1.547165268938269778e-01
1.841644135672342308e-01
1.396100802775778194e-01
1.802380773940966685e-01
1.311400810088642066e-01
1.754136821832266990e-01
1.241149375894410739e-01
9.859398590200535439e-02
1.285482821739874215e-01
1.360582408619727401e-01
1.467031048206794974e-01
2.092247759269286744e-01
1.377190678101903876e-01
1.934733256454676809e-01
1.506324024667181349e-01
1.483620868596914333e-01
1.814794101659993053e-01
2.294412800701993715e-01
1.524368332530267323e-01
2.065439660980840642e-01
2.186354581231124694e-01
2.121135256454729501e-01
2.096829327842458512e-01
1.466080271059763129e-01
2.306449276876690879e-01
2.470978849745261718e-01
2.683389509014826868e-01
1.887447835809559493e-01
2.980067219190670191e-01
2.800950634953349727e-01
2.321548587713365142e-01
2.825864739303153295e-01
2.776790864543961512e-01
2.466379611413493378e-01
2.876863904595291510e-01
2.409943575291273732e-01
2.673608507326252770e-01
1.773407745697059279e-01
2.993070546673010091e-01
2.501441428774680009e-01
2.438558735682509471e-01
2.746905779008709247e-01
2.628609019218761667e-01
2.469800500901692397e-01
2.395818357933848231e-01
2.577597521842174833e-01
2.590616683683197863e-01
2.661467277239566998e-01
2.386057930624068957e-01
2.513154032359182777e-01
2.523393790495185862e-01
2.937572687059373244e-01
1.930676255748174641e-01
1.860339122817250557e-01
2.713709137567691942e-01
2.679951070388663648e-01
2.674790145545507536e-01
2.350591012266435020e-01
2.399189212436462770e-01
2.167998450483148432e-01
2.116951772322645253e-01
2.007250925649844697e-01
1.850681298249111928e-01
2.014968184252223793e-01
2.411477439302849024e-01
1.260055104370290113e-01
1.711419732863332099e-01
1.792932980548820610e-01
1.668307099832240792e-01
1.392192135855157276e-01
1.336575250857016950e-01
1.551401861573611096e-01
1.304954742428262870e-01
1.694045436655475800e-01
1.458247132983270244e-01
8.395413457297112858e-02
8.652800609259199416e-02
8.624932929772884116e-02
1.121321139079791696e-01
1.192319168244754812e-01
1.014226951213629824e-01
1.123918823281751661e-01
1.320938702229398076e-01
5.741551413516943203e-02
7.944204241120213228e-02
5.595021267860326997e-02
5.415317321429485853e-02
2.114530016443954760e-02
5.764340253852497098e-02
7.807579679899179226e-02
7.052282197502908467e-02
4.230021167543912552e-02
9.378809668178862691e-02
2.046946252209685610e-02
2.609031552430715606e-02
-4.899300230621220567e-03
6.506398941797529589e-02
-2.892943501432796577e-04
4.919451313660799102e-02
-5.523297232777611698e-02
1.782637796815009917e-02
-3.002322162242036102e-02
2.891805417356222221e-02
6.424791655097050747e-02
-3.104133232525790528e-03
-5.595687381854189124e-03
-1.302934921769813813e-02
3.968467704508148869e-02
-1.605941390212712802e-02
1.939023911174272974e-02
-2.447512320700157007e-02
3.703814252131788082e-02
4.629730154024656874e-02
7.214236385133676425e-03
2.127230397697002159e-02
-1.129112905822806170e-02
7.723962583563447580e-03
9.760671594087813943e-03
3.311995769719153215e-02
-5.293809254055913474e-03
1.242513596444337967e-02
-4.182893453518766319e-02
-3.492812788599899965e-02
1.042506310515906032e-02
-8.445579509168588302e-04
-1.518234057015827639e-03
-9.249605787255175265e-03
-1.741387886099643369e-03
-7.660399347304541057e-03
3.770459092538343965e-02
-1.970915293046321404e-02
7.292758297174541798e-04
2.494948645789781677e-02
4.818923504325322085e-04
1.530617469349688023e-02
2.424958436557795444e-02
1.676504630260017975e-02
-4.682519176242333492e-02
-3.372030386623990628e-02
4.117680873361811988e-02
1.585422228692438817e-02
5.925575575300615766e-02
1.493176748944770489e-02
3.045311527214011535e-02
2.729377671862226809e-02
3.176239705198130592e-02
5.282036173857675848e-02
2.552021291091572525e-02
7.741427758273891971e-03
1.430038186206123406e-02
3.391073882803009171e-02
1.475367390422595293e-02
4.063252192274836166e-02
1.831498628283257518e-02
2.484257681096732617e-02
1.080724442675316394e-01
8.572521765203602873e-02
-3.209361390018254656e-03
8.307713883293624257e-02
5.349242013995297168e-02
8.213731464598880705e-02
4.956685480026515322e-02
4.107987346906318005e-02
1.000422315634001691e-01
1.002823332965439851e-01
1.192608611068231989e-01
7.184101861489278207e-02
1.087492758574473278e-01
6.967526693072992328e-02
9.559974506969889929e-02
7.693913748944405939e-02
1.008711852246048507e-01
1.686050100685124731e-01
1.019879567291820388e-01
1.307216400012244095e-01
8.767585929860356730e-02
9.870912280230746683e-02
1.219254141987778095e-01
1.069500962918172315e-01
8.651846433424228988e-02
1.637570186845166420e-01
1.160716529897930227e-01
6.883544177316278101e-02
8.970835847959345022e-02
1.366697212691485863e-01
1.634389116159557231e-01
1.611997567655005237e-01
1.130868646620542262e-01
1.358381211210336337e-01
1.291179751742843607e-01
1.035961182852047358e-01
1.220712395589989285e-01
7.264179145477600574e-02
1.000551847619774448e-01
1.535351342838509048e-01
1.864864266226826661e-01
1.907159305291112883e-01
2.193975081160406959e-01
2.169550944900207889e-01
2.896180314265549005e-01
2.919744113154554843e-01
4.041082866437371024e-01
4.306009652323371517e-01
4.743519316519125284e-01
6.254579718750611361e-01
6.706895434561898073e-01
7.159009965240656914e-01
8.557492535368850239e-01
9.603678906432422391e-01
1.041178033469009945e+00
1.094323438782800473e+00
1.161095489300734362e+00
1.233961751832664655e+00
1.357117304283800285e+00
1.324917048926340879e+00
1.330475437841452058e+00
1.363543148841834807e+00
1.332882550212471262e+00
1.285237142202376726e+00
1.248794998946317181e+00
1.192612422094005753e+00
1.070345589755722582e+00
1.114098358525205557e+00
1.023288538069495823e+00
8.950769996535257178e-01
7.593214625547415331e-01
7.010042848635319457e-01
6.465457615115779433e-01
5.114967436847489557e-01
5.159949517850860312e-01
4.351514196244120058e-01
2.986464416243075348e-01
2.597505068283099128e-01
2.513472415433435359e-01
1.941231191476949502e-01
1.588048689302889172e-01
1.709778914636226610e-01
1.178954821206541909e-01
8.863590917845963479e-02
9.215687683519932505e-02
1.039959630731546458e-01
6.567991670949611949e-02
5.979153896471698509e-02
1.140614780131677108e-01
2.063247280101062481e-02
8.813998991688620777e-02
8.280434800427091679e-02
1.188398951748928234e-01
1.046664605411871674e-01
1.328301855939120757e-01
7.094219399122961289e-02
1.078222966940995259e-01
1.038877210829034503e-01
1.830233115738651994e-01
7.226935089698766079e-02
1.274977459326053220e-01
1.276385416312456056e-01
1.515059204042679408e-01
1.950454209335680256e-01
1.684825106449677201e-01
1.604165072539996961e-01
1.143933981345826856e-01
2.137137533941214362e-01
1.786098847648662225e-01
1.682978732240444641e-01
1.530663774799460031e-01
2.204697575495683237e-01
2.191041705804054607e-01
2.105871097371848910e-01
1.906385815988902999e-01
2.169469783839062249e-01
2.096897870453005852e-01
2.253672466762511872e-01
1.745753857965267331e-01
2.371177943034095958e-01
2.435881644654091238e-01
2.287705857363860340e-01
2.011804281545863105e-01
2.172871309199736478e-01
2.641600867645846340e-01
2.792445359955146311e-01
1.731422677787236575e-01
2.018689743148630034e-01
2.244054049210907897e-01
1.995565238991489077e-01
1.959656897973865997e-01
2.190101755297914343e-01
2.175803595834221726e-01
2.200274622296274629e-01
2.139556529169704679e-01
1.767055094096589563e-01
1.568008686054943313e-01
1.922354163021800511e-01
1.608127304770183563e-01
1.910953194444030556e-01
1.732110545509120969e-01
1.894710811982348864e-01
1.440837786617367444e-01
1.333717224513053523e-01
1.666674061333181800e-01
1.533083134418788129e-01
1.398116546779755165e-01
1.679122276338604058e-01
1.158986579132915556e-01
1.028637289019440210e-01
9.176196511923076504e-02
9.109428253710502577e-02
1.324206292528539164e-01
6.926000559675647705e-02
1.042382576481738210e-01
1.037687153906547421e-01
4.718245456804971011e-02
9.205403943740259054e-02
2.276301360700779680e-02
6.846280063078910572e-02
1.739774768588162046e-02
4.819110159553796624e-02
6.737939292791446377e-02
9.388809960059432691e-03
5.686871188454197673e-02
8.338110313169147525e-02
-1.411399345853964205e-02
-2.353489970781856566e-02
-2.558566039601002651e-02
6.905464107153265474e-03
3.161603845401361745e-02
1.675352651349321792e-02
-5.736107374445797991e-02
-1.030539238296176302e-02
-2.754852821928710851e-02
-5.108719948719507575e-02
-3.296507090064969281e-02
-1.798476254234077434e-02
-3.376825063149029721e-02
-3.571980535802656009e-02
-4.668829270941304843e-02
-8.816225661411346282e-03
-4.376645937737104475e-02
-4.084124531821900494e-02
2.226226147107407405e-03
-1.586587389391967001e-02
-9.041995461717348970e-02
-3.594260387172414084e-02
-1.245602803205935610e-02
-1.243257034200445643e-02
-5.950697725031095509e-02
-4.791330300473879700e-02
-2.257318899407714796e-02
-5.393918394011997658e-02
-5.296931285590035510e-02
-3.235130942065758686e-02
-8.260344278277660657e-03
-2.712020401408535980e-02
-2.959005083722955967e-02
-4.011131401855221046e-02
-9.754430167186581291e-02
-5.904756858680978299e-02
-5.499868192762285418e-02
-8.903299791530025487e-02
-4.015772046216715963e-02
-6.006816051760235919e-02
-1.227744833616260522e-01
-4.478814374844011098e-02
-2.468545817520259936e-02
-2.062324315365020311e-02
-5.678647641198194401e-02
-4.434902341142200888e-02
-7.996361224604681128e-02
-8.504043689541015971e-02
-2.607896370480390635e-02
-5.414298532734795888e-02
-1.310514699275849848e-02
-6.566724850215562015e-02
-4.801016744714531326e-03
-7.825486514580667907e-02
-4.336445877574469920e-02
-3.870905421224697662e-02
-2.818318471276893417e-02
-1.885845036544327169e-02
-2.884006733496320349e-02
-7.686822143305721555e-02
9.375418404388206894e-03
-9.695503935862721800e-03
-3.795634372229406833e-02
-3.488798302327446310e-02
-1.022388063610896181e-02
5.984360198944523035e-02
-5.750574724573078583e-02
-1.116870057813793005e-02
2.753613556582747146e-03
-7.156005684527833033e-02
-1.425875966325155370e-02
2.827457457760475940e-02
3.276667789918201457e-02
2.713581916588875959e-02
2.700277595396646108e-02
7.123653716161720828e-02
6.845721826831344115e-02
-1.025572526949258823e-02
1.898681916400057207e-02
7.444398321227044257e-02
1.126152367760865636e-01
1.006972698039991371e-01
6.684852383651784802e-02
3.975866115415927632e-02
1.185034866841505746e-01
6.236799302229148467e-02
9.849628504073183743e-02
7.306977772994575904e-02
9.721129603911010664e-02
1.140789177618944938e-01
8.520712562693011360e-02
8.275506653967118487e-02
1.045028237450051634e-01
1.006188115169365793e-01
1.020092365124691119e-01
6.636187193532830375e-02
6.982066799571236271e-02
1.270779333100544028e-01
8.407142747504080249e-02
1.056836770505170942e-01
1.115711634262451929e-01
6.485203589883227482e-02
8.359741155166425242e-02
1.005240072844979793e-01
3.495668636122074846e-02
8.135888482155015367e-02
7.829059304248894846e-02
9.122019503338724133e-02
6.200992091493562341e-02
1.355669050399910536e-01
1.334703508380910841e-01
1.630029176296231286e-01
1.522799156224927675e-01
1.706226808239324766e-01
1.838627297638916747e-01
2.314612786528703059e-01
2.620651684654137226e-01
3.542022245524101831e-01
3.755305348845600633e-01
4.721607111271030055e-01
4.852227180088388714e-01
5.532605554385015001e-01
7.480924898891974095e-01
7.723043495317338802e-01
8.924032737962077633e-01
9.997504154602345761e-01
1.101933070381937885e+00
1.172621204352386926e+00
1.237186925166045226e+00
1.261043213376748406e+00
1.292174335252737727e+00
1.332194540125233084e+00
1.361514526738326181e+00
1.302046409549870942e+00
1.223073752039913975e+00
1.231328338917172749e+00
1.235823152051545026e+00
1.064751457809145707e+00
1.067277652165101953e+00
8.613563755890986107e-01
8.175086696514050066e-01
7.826256900709366304e-01
6.470930896405864274e-01
5.848092676801356360e-01
4.991970428818268690e-01
4.768516776863087614e-01
3.333137907410917977e-01
3.434752485065141747e-01
2.280909062057914771e-01
2.039907510122860035e-01
1.560866069661765720e-01
1.473217002712991219e-01
8.194609164201391294e-02
8.636565002641070909e-02
7.466123927459730747e-02
1.173491591713851090e-01
2.157960186456605450e-02
1.995910690158683720e-02
3.882433066009244316e-02
5.927541599974754660e-02
6.259462476625796135e-02
4.068463855373681548e-02
4.840209885823359981e-02
8.013875966215552871e-02
7.023022611847801189e-02
1.028490395253015000e-01
8.854280184602753012e-02
7.473381646027676961e-02
3.420310755770233913e-02
1.314089389008330222e-01
1.072753477792236648e-01
1.574975750134770536e-01
9.563737401469803168e-02
9.849180861472686677e-02
1.512523851497323268e-01
1.460672315613833760e-01
1.325004253310498592e-01
1.547910936342020427e-01
1.541730197244282063e-01
1.732728938031325994e-01
1.953028093723491176e-01
1.552129251818626099e-01
1.761673739239986436e-01
2.412588438549383429e-01
2.118941762480134883e-01
2.017189030925584659e-01
1.937224430914246953e-01
2.479917323481527491e-01
1.782116561402145583e-01
2.021399433306174664e-01
2.147218026785207845e-01
1.619413759038594580e-01
1.882027837465321818e-01
2.899285064775820597e-01
2.084698693018099402e-01
2.112728270110573181e-01
2.045744615538937494e-01
1.513261889338093080e-01
1.912240459179166407e-01
2.082646572600118096e-01
1.826985494773178398e-01
2.095916672017336391e-01
1.565391196239828975e-01
2.069397383844845950e-01
2.245354793057738885e-01
1.825108411105290374e-01
1.534328766823568335e-01
1.699950599990034394e-01
1.493379233426385955e-01
1.221057574215078656e-01
2.128234983635859945e-01
1.252024128396999614e-01
2.060553501976108981e-01
1.750283073498051789e-01
1.901166841096574855e-01
1.305978650157869625e-01
1.100604705512630566e-01
1.070704863114914640e-01
1.327702673027346125e-01
1.064605053985789862e-01
9.407212325368871642e-02
1.430063834412280410e-01
1.082003550343852982e-01
1.601887821366873577e-01
6.923708157906124927e-02
5.981689602664772010e-02
4.331843449168017168e-02
7.446757652328230004e-02
1.005129883186962059e-01
9.216278190878041121e-02
1.097705845677340031e-01
8.765834603817482251e-02
4.037049715489259699e-02
5.620443052895091052e-02
7.595393158768667941e-02
1.562027161931876795e-02
2.447411944832535158e-03
3.610329887652389408e-02
1.943096678844527525e-02
3.684949492605027466e-02
-1.021118390643851320e-02
1.709221396860088893e-02
-2.159196472608419792e-03
-3.695679344448907222e-03
4.685089112654111654e-03
-5.564137811789181959e-02
-1.742543009207402419e-02
-1.788939288417086548e-02
-6.305271874695178580e-04
-3.665334843992110875e-02
-8.009690032264767112e-03
-4.955656036625889771e-02
-2.214335001039625245e-02
-8.612125825481792285e-02
-4.883867295939203768e-04
-7.159377516931487995e-02
-3.937341122624461037e-02
-3.065914031441213661e-02
-7.019113888630128251e-03
-2.112385791683014935e-02
-2.497835925343478564e-02
7.775033816955559396e-04
-5.580955445495082434e-02
-2.321063210945409350e-02
-5.090175557273557416e-02
-1.200629211286338982e-01
1.606119536076423826e-02
-5.584735095545212413e-02
-5.830142913616487982e-02
-3.693125063248450801e-02
-7.244164923251900090e-02
-7.490640659407787894e-02
-7.146380833030263613e-02
-4.465401354406006718e-02
-7.447037062609941638e-02
-2.666373120148609471e-03
-6.048566598298134311e-02
-2.776470719992570751e-02
-2.021190592832639021e-02
-7.577212988550175582e-03
-3.132139118923984306e-02
-2.796426950735242389e-02
-6.801798461153674147e-02
4.053036222443864856e-03
-2.972543509361871145e-02
-4.917639043082287775e-02
4.820776533961319138e-02
-3.619095978192928692e-03
6.948132404173704146e-03
-4.870208229862686006e-02
5.954509994291722064e-04
-2.180131237994883259e-02
-7.259702258553210608e-02
-2.717664873868837899e-02
-3.320476469908967276e-02
-1.844217395586184721e-02
-1.573898996645313464e-02
-2.144892388578500605e-02
-5.282706161691085034e-02
1.282621550997380816e-02
4.606044257074146803e-03
3.060921974532586007e-02
-4.401483341938980387e-02
4.307420480332527224e-02
4.515681142067545784e-02
-1.179120463252677359e-02
3.583365940601775101e-02
4.986469665482327895e-02
3.331942040532005073e-02
6.857020831647259174e-02
1.025625241547522548e-01
6.315172210579719780e-02
4.322530951897628204e-02
6.017195119001940429e-02
9.914735092625087676e-02
7.103229963264677538e-02
7.731282034951235393e-02
6.694568735519426661e-02
9.360594726202083049e-02
1.480434285918095227e-01
1.040618096218818012e-01
1.308410447367200358e-01
8.232117151326236171e-02
1.699146977342189113e-01
1.078264777408079189e-01
1.316399075183917466e-01
1.444221432862816401e-01
1.103000982561191112e-01
2.057577013939143051e-01
1.170396022078907527e-01
1.315225062738244188e-01
9.043852684931583119e-02
1.450957429873315496e-01
1.246150978859653646e-01
1.118069683928761826e-01
1.431033989407128615e-01
1.620663882617918161e-01
9.141452880049555363e-02
1.081160427785230749e-01
9.386944040750742901e-02
7.828376622638968940e-02
1.859108522589153767e-01
1.415431120966748058e-01
6.597578465506258316e-02
1.367587895415912080e-01
7.666478843508810204e-02
1.048763201981406934e-01
1.513671754884066134e-01
1.850661310892338096e-01
2.080048542125969013e-01
2.237190885236467475e-01
2.590093336468852758e-01
2.975049032761701295e-01
3.577823343790758059e-01
3.769458431244085972e-01
4.261133836981950140e-01
5.328937955882424582e-01
6.488346582686225217e-01
6.701946952744650687e-01
7.717742722124663057e-01
8.863056160416417084e-01
9.829900377113653942e-01
1.075736659626912228e+00
1.116329114294141611e+00
1.233968380872187520e+00
1.299814070775181518e+00
1.295018275799938223e+00
1.332920073114423953e+00
1.431429265992236521e+00
1.412148931964086085e+00
1.338325236399779739e+00
1.317289656232297546e+00
1.250146969470360858e+00
1.170179402558769510e+00
1.124593395874884161e+00
1.073842839466876198e+00
1.017493894694469159e+00
8.094189203789607934e-01
7.859131997926361857e-01
7.107225745138961992e-01
6.253708800694961489e-01
5.614640134859572029e-01
4.868811801981469678e-01
3.604090577895869285e-01
3.804595769810800721e-01
3.261848290937490735e-01
2.474909516580421076e-01
1.851497240704927105e-01
1.140190992252757968e-01
1.618604921887895343e-01
1.092256680286854409e-01
1.092254114033617829e-01
1.047048273808931507e-01
8.824601385127425757e-02
8.527904342046115083e-02
5.786403808369448148e-02
1.269330084098441169e-01
9.801717533742293487e-02
1.085794205205132257e-01
1.670798739554344159e-01
8.606776906916248360e-02
1.126136367177860420e-01
1.446133625899262420e-01
1.556935984629868597e-01
1.314374767857811599e-01
1.523912912554561683e-01
8.182166241956220776e-02
1.279254938751702986e-01
1.838265306961306134e-01
1.592923516787428107e-01
1.736937491934861522e-01
1.948345002162977235e-01
2.070635360297951311e-01
1.729210602617493875e-01
1.916393338806837987e-01
1.784953013122476118e-01
2.166149388220995897e-01
1.707332238582256745e-01
2.369343516080742729e-01
2.086403372719326799e-01
2.293668320831044882e-01
2.321775359988285103e-01
2.681917188971680854e-01
2.572049459999725673e-01
2.303802605151215599e-01
2.509549451796492248e-01
2.169952232333969278e-01
2.096392666496393886e-01
2.961867400809798934e-01
2.349981652766674756e-01
2.519776445489537164e-01
2.562356907931741534e-01
2.955176560615032089e-01
3.041565506132159480e-01
2.486300614514743712e-01
2.368972405168315032e-01
2.132001479105407882e-01
2.254723922449464180e-01
2.491573631754326057e-01
2.077334990032191631e-01
2.642939812597689397e-01
2.535440939183668529e-01
2.048866528054217595e-01
2.300937403945921278e-01
2.251949242785326599e-01
2.029515677071451196e-01
2.458251678109958649e-01
2.589089635233188247e-01
2.119782880375925271e-01
2.207712356400998166e-01
1.822361583416580166e-01
2.471950902544955420e-01
1.915894177903575968e-01
2.558272084517396183e-01
1.645084707803832480e-01
1.883170691258279350e-01
1.584694468294929048e-01
1.563908683521661735e-01
1.809289546349563405e-01
1.492367655815610983e-01
1.817756529036009538e-01
1.569349814158428336e-01
1.319990232998546897e-01
1.620244249693829075e-01
1.156238239077373581e-01
1.294804956176289490e-01
9.438675459978845828e-02
1.483980036272128655e-01
1.266777549411188530e-01
1.040596132003005492e-01
8.543998320505880040e-02
1.173470391001753960e-01
6.490955240290910422e-02
7.877930254434224733e-02
6.898083273543868799e-02
5.375420312215671570e-02
8.680111511562020599e-02
7.404019339687409329e-02
1.061634080272317870e-01
7.160945975514788897e-02
4.993973233752405788e-02
5.693231905528944869e-02
5.589128661159289968e-02
4.710941047372572965e-02
9.168039379873547945e-02
1.782342353568537249e-02
8.900148059651918908e-02
6.923485140518801512e-03
7.319510679382434937e-02
5.694062508115479981e-03
5.265705588382551400e-02
4.829840336022357683e-02
2.609904909977963858e-02
5.317057471639318605e-02
2.102120525619750185e-02
5.790252695549371470e-02
2.221994062485572324e-02
2.308495825853314892e-02
4.379067674356913742e-02
2.394286808861464597e-02
-1.928378056759091908e-02
-3.361685023862012733e-02
3.757329080202568422e-02
6.796973879111060934e-02
5.470748908752184891e-02
5.767700534589661338e-03
1.203832329303829683e-02
1.500179543248840106e-02
3.577127160262878053e-02
8.053169239751814534e-02
3.328065243985342536e-02
-3.773034875458255999e-03
4.778588817719599258e-02
7.060777993387523654e-02
1.471483569868761374e-02
5.882118435541729140e-02
-3.543761263592906663e-02
5.448119423645927939e-02
-2.077313130097785746e-02
1.971576605227200185e-02
3.278384988802808542e-02
7.328088999951029581e-02
1.886049603956565027e-02
2.240253840870261651e-02
3.490131139325357290e-02
-2.118716847147527824e-02
6.481712092873122277e-02
6.033302583615453296e-02
3.809905096264871310e-02
5.473614609168592215e-02
4.639828241744586163e-02
6.916475839761063171e-02
3.957570321533501745e-02
5.473023913478651525e-02
6.116355944291111679e-02
7.334240609911431286e-02
1.360624344464909236e-03
4.536726470427854263e-02
8.520225642486257966e-02
6.676249620181007316e-02
7.423103142076944994e-02
7.204261978010002843e-02
9.444155722948734122e-02
5.997353962731609422e-02
1.150163797974741026e-01
7.680151567116642874e-02
1.032341292249621678e-01
7.021564450755153619e-02
9.830211663641978681e-02
1.539881513945533797e-01
1.294594016226782163e-01
1.224332470283155117e-01
1.869896369681799397e-01
1.258064985931317548e-01
1.514670458836196998e-01
1.737334460091219668e-01
1.231809151334037067e-01
1.301653858014917564e-01
1.704788056138156482e-01
1.774662520871692351e-01
1.974885101416937183e-01
1.640930791673413658e-01
1.420017641430949551e-01
1.502862243711290402e-01
1.945763904130652089e-01
2.320392404084050675e-01
1.976214403470077374e-01
2.018461856804816268e-01
1.808181335267437240e-01
1.607838272600032314e-01
1.851470120957538490e-01
1.874267448847682649e-01
1.692383936360233876e-01
1.944155832317148724e-01
2.141145640547061912e-01
1.850557888663563744e-01
2.151054854519688642e-01
1.563006286682611101e-01
1.559159593838443936e-01
2.262189887146341116e-01
2.147661629844911380e-01
2.304441095819976526e-01
1.275236785808456230e-01
1.904217080112179938e-01
2.165857857574808032e-01
1.929242520236639225e-01
1.928031767557913667e-01
3.165589705547214860e-01
2.709025133670709962e-01
3.340907307100968171e-01
3.397294115587476404e-01
4.193056190318820153e-01
4.270101398384696378e-01
6.232107635342637453e-01
6.800710169321790843e-01
7.802346311061472139e-01
8.553311318948492170e-01
9.502787965388910241e-01
1.017016589827904660e+00
1.057206589400481178e+00
1.260225009999103252e+00
1.241718065705434082e+00
1.273224443511738135e+00
1.408512806934589356e+00
1.462485701996637966e+00
1.420195514922840463e+00
1.428978217568470210e+00
1.453006147071222776e+00
1.364958780165206109e+00
1.296083662327210506e+00
1.302317375169371960e+00
1.198549081549577622e+00
1.158227753365634216e+00
1.045051017398736626e+00
9.241563780611882217e-01
8.416573711631134547e-01
7.318848065943086567e-01
6.426402975123884920e-01
6.041986515929012036e-01
5.259644024148826258e-01
4.658583178737738528e-01
3.589724567838814551e-01
3.496662328882944037e-01
2.969625260718692372e-01
2.114912867022576970e-01
2.551063432809667075e-01
2.071750547242251772e-01
2.255935501745151561e-01
1.607822820639888128e-01
1.470931741866960962e-01
1.380073670955545007e-01
1.560322427135449053e-01
1.873401709193460718e-01
2.076511738605679724e-01
1.354074583650854702e-01
1.264106285008821939e-01
1.919073254693729746e-01
1.920720750620214523e-01
1.673030589440856752e-01
1.821835573872781500e-01
2.212888049956489578e-01
2.067624785362276452e-01
1.835928091569654086e-01
1.922380319544429728e-01
1.911914343583462073e-01
2.186321243711200901e-01
1.716567366134538197e-01
2.151560524785476047e-01
2.396037169944341405e-01
2.426415761167917406e-01
2.464297822149534301e-01
2.695549177824400067e-01
2.843516010429609775e-01
1.870057887261444562e-01
2.220393404752704081e-01
2.608938573714058018e-01
2.996408641868374412e-01
2.755151951901139151e-01
2.256149691820703573e-01
2.852475925117371469e-01
2.874093331770675164e-01
2.891699151989393646e-01
3.002244355747890059e-01
2.683645165461509552e-01
2.893271918726488812e-01
3.264989871494664575e-01
2.811056674381292586e-01
3.022144875048776713e-01
3.243016014526513557e-01
3.091041346023861713e-01
2.858091572154407567e-01
3.088700305582573469e-01
2.786341675827812003e-01
3.103608615265692205e-01
3.427986468754256055e-01
3.234668154715268917e-01
2.966914370061653483e-01
2.530595852400596701e-01
3.161580364898771700e-01
3.190125391890300532e-01
2.718852442538094438e-01
2.800273642319752732e-01
2.790283558533867558e-01
2.773541486041632975e-01
2.714597122151815589e-01
2.739165977232920213e-01
2.386188526418610845e-01
1.751882155612183856e-01
2.246974928632766155e-01
2.332401421789466467e-01
2.373357012222123696e-01
2.321598416958524091e-01
2.068226982458760410e-01
1.667100870422232317e-01
1.813191237837639413e-01
1.764977941484650870e-01
1.762294731601584397e-01
1.590525237817330129e-01
1.704877328950475113e-01
1.329520640138352194e-01
1.689432755662326202e-01
1.394463247654743054e-01
1.326679894809554838e-01
1.825039323572677508e-01
1.622015655554188696e-01
1.160506817615986896e-01
1.579406101006052277e-01
1.042334801160298419e-01
1.373041631628370562e-01
1.083686606654442053e-01
8.514312076565944132e-02
9.682552314340975297e-02
1.221928399729115128e-01
1.404403556612039694e-01
1.027514630846990962e-01
1.168089260951468700e-01
7.388102311364612429e-02
1.214095254020960968e-01
1.329279248907958011e-01
1.083322869522632403e-01
3.259186617243762379e-02
6.844618055220230701e-02
6.329567244160323736e-02
1.163536322537846862e-01
8.355250160779728597e-02
1.100886866323308039e-01
2.197634624643589329e-02
9.308362750155055321e-02
9.837824096639838367e-02
1.378620134813927089e-01
5.856477646115139379e-02
5.181263286269719576e-02
7.898967247033503170e-02
8.602321716435631926e-02
3.619767971236188819e-02
7.674933516260401545e-02
4.310971644775865586e-02
3.782778412571731474e-02
6.243365816285167957e-02
3.310607012067003085e-02
2.038845135735453673e-02
5.804756215491624349e-02
3.786765809129153532e-02
-6.796687826982818204e-03
5.995730447604939034e-02
-1.177482230164186849e-04
4.639122964664502830e-02
5.698323891940221264e-02
1.091203113425762844e-02
1.171049609660086144e-01
4.674280188055031371e-02
5.657551389532433639e-02
1.832589154922331653e-02
2.301085336681239074e-02
7.362418114387828116e-02
1.102032685867374573e-01
9.117961543178702832e-02
5.192219985200342836e-02
3.829370323317439484e-02
4.993685781500045023e-02
6.414897082560712394e-02
6.507376614155854777e-02
3.398615497001853530e-02
7.095453358890041473e-02
6.806916660092790505e-02
1.412670229357931850e-02
4.314594590252318618e-02
-9.685834983257798902e-03
8.675158560580473188e-02
1.625509186767480629e-02
3.896900630368595880e-02
4.616486111415224469e-02
-1.560873529935263154e-02
1.065993990005332515e-01
7.102213341346486075e-02
4.464523988626546008e-02
7.408024266510003508e-02
1.408037268663436536e-01
1.004249809475678407e-01
5.950605012150168155e-02
1.235037850759878042e-01
1.476842048653717321e-01
1.629763709652381487e-01
8.143678930673697858e-02
8.014234328210334546e-02
8.081620587961049762e-02
1.731337790410203969e-01
1.440120633500735770e-01
1.397344581822755338e-01
2.147383481669491445e-01
8.879144871293118135e-02
1.025213472060851894e-01
8.606368435759179092e-02
1.801035191446787032e-01
1.539287959933934580e-01
2.232885948344657812e-01
1.618215918469580461e-01
1.864450779865862717e-01
2.141677588031667412e-01
1.805274539229730912e-01
2.148500179271822519e-01
1.905075744395615667e-01
1.515815334837646300e-01
1.833951030066877097e-01
1.825433118818550471e-01
2.376660455208283729e-01
1.730078315263534894e-01
2.220843294902217213e-01
2.407782696299236858e-01
1.670966644661466549e-01
2.622258971498254709e-01
1.560930244582849624e-01
2.196395915969575896e-01
2.197550271527942412e-01
1.473175722888629968e-01
1.464703908483944439e-01
1.782953268895667576e-01
1.287747676042724776e-01
2.042024864478695911e-01
1.914420084715722781e-01
1.919936442101165264e-01
2.787380042086091136e-01
1.941482416486746687e-01
2.608673148605610281e-01
2.851750410780310996e-01
3.092246616382954838e-01
3.299098416925146937e-01
3.251910571924708782e-01
4.236066629562250108e-01
5.127446219384564907e-01
6.063250144643886896e-01
6.377004800049614897e-01
7.778255118800080359e-01
8.221844224198393558e-01
9.220612915787833597e-01
1.013847762448544909e+00
1.093059314166635820e+00
1.157723889010181528e+00
1.307205853757571923e+00
1.362882146730129751e+00
1.374371077439321409e+00
1.446262991587499158e+00
1.410290981402172461e+00
1.411230300378691238e+00
1.420067140106988424e+00
1.382606355593947178e+00
1.339850495672590736e+00
1.237889263383995075e+00
1.175525818328101435e+00
1.064480151067120683e+00
1.076546464527333269e+00
9.247827702285786877e-01
8.409206653490579608e-01
7.697409218238394635e-01
6.442165707899393245e-01
5.500106452574646809e-01
4.379580005746497862e-01
4.610023302354601116e-01
3.672118139111833490e-01
3.414349924434881278e-01
2.320996023366893313e-01
2.444443732043939943e-01
1.754451952507974366e-01
1.433859230194794165e-01
1.592422349982489660e-01
1.476072980760486097e-01
1.965497228390428452e-01
1.739833873013778565e-01
1.663350034412583445e-01
1.361458690303372909e-01
1.431439852680633229e-01
1.416961216864269513e-01
1.489342252801203748e-01
1.538888872676860697e-01
2.205068929527554955e-01
1.740724074284509260e-01
1.632655732861655329e-01
1.699880900304130138e-01
1.817523165991005996e-01
2.091437574866850668e-01
1.531234182581134029e-01
1.800806975808254551e-01
1.996381641492575021e-01
2.364315187733211365e-01
1.984595890369720561e-01
2.005309466172481014e-01
2.168149419170011249e-01
2.565996153092426901e-01
2.968829867246686738e-01
1.947732371384987560e-01
2.544021837563260613e-01
2.611667669342689346e-01
2.320689475806161639e-01
2.178661365856671139e-01
2.202453258272026870e-01
2.496595072783711344e-01
2.699734263364538811e-01
2.557094234211825801e-01
2.742466702423780878e-01
2.926327963935803078e-01
2.635337565708203988e-01
2.500007010056420897e-01
3.315968238908423293e-01
2.798098566894368089e-01
2.673767374340488834e-01
3.019445246548980721e-01
3.213332013058637360e-01
2.793799862990913319e-01
2.807506453015768400e-01
2.613876806937721065e-01
2.454554781899055682e-01
2.852679868209284098e-01
2.606284522577239082e-01
2.431416245204467974e-01
2.906299020238655717e-01
2.726759958491895008e-01
2.009628234694414428e-01
2.828053156758658093e-01
2.826967352133158973e-01
2.142459756705290819e-01
2.563569110572430643e-01
2.490586192681787103e-01
2.217537716661906466e-01
2.220518139119612155e-01
1.832158074066720654e-01
1.996945188615276146e-01
1.634781536505143240e-01
1.954865962228463927e-01
1.870323418232839041e-01
1.859338494045976176e-01
1.798582158955435717e-01
1.533921029122482516e-01
1.708276136946944301e-01
2.267273929056888015e-01
9.478836111956903676e-02
1.501942242459428645e-01
1.478029847838512600e-01
1.473690934759168680e-01
1.041048190739410767e-01
1.820825543178221650e-01
4.839697466368560186e-02
1.497724350502820656e-01
1.225874504156674871e-01
1.434182245141811807e-01
8.103790506164815222e-02
9.607256495326643719e-02
1.115108228226876913e-01
7.470463063711105245e-02
1.056400654198887124e-01
8.234385995165888206e-02
4.559556669315229654e-02
3.397603769159998621e-02
7.464244726055382917e-02
8.024923107079491580e-02
2.854405819780236192e-02
6.819973504911307216e-03
1.193334333208783959e-01
7.641135486095310125e-02
3.987884461000236469e-02
8.290818287017183430e-02
1.218861592662138643e-01
6.242733331205480019e-02
4.056471765158386339e-02
5.244309343784067656e-02
6.652828055757491199e-02
4.630739053575920472e-02
2.902987869882403538e-02
-8.707060458009948517e-03
5.356978832309361449e-02
2.946607374340579413e-02
1.944692550457460464e-02
3.859370984065074728e-02
1.236362802748644345e-02
5.830238625648540701e-02
1.074299099440833086e-02
-2.797146291777220795e-03
2.906383839608495806e-02
2.631281611290518796e-02
5.663122129339203878e-03
4.148701804820305317e-02
5.822335607530628593e-02
4.383051040139038929e-02
5.239210719795932281e-02
-3.785187070086566685e-02
-3.222145440078756640e-02
2.907371969139938006e-02
1.169905042187681030e-03
3.109706875216624797e-02
6.704501343079091735e-02
1.053925929310737392e-02
4.047918911063314029e-02
-3.145263697654972213e-02
2.998766218055966271e-02
-9.809538429318068534e-03
4.292515620889841149e-02
4.968285389593082163e-02
4.289342896965901708e-02
2.848765913906238512e-02
5.316772785643581606e-02
1.345805634692572722e-02
4.372039568557635481e-02
2.411720263462584224e-02
6.056251884705247945e-02
-2.058842563728802144e-02
3.199476953013675323e-02
2.674390096247020870e-02
3.865766126703081007e-02
4.177181878146165456e-02
5.081565859847340591e-03
1.276662690398028439e-02
6.455487509212143316e-02
8.257391066188987661e-02
1.538117357127070928e-02
1.308513347360977692e-02
1.246863194479916892e-01
6.069879053125681878e-02
4.451712448617870660e-02
3.958869834575412527e-02
8.584393028030054551e-02
5.478969912644116730e-02
7.229732831575598484e-02
1.644298216148893099e-01
9.263900168636374222e-02
4.164241872281072843e-02
9.397893697999995521e-02
1.318747542547617779e-01
8.981778871598465608e-02
1.532194641920791023e-01
7.569272489852703345e-02
1.914765256174591757e-01
1.448686732736826910e-01
1.788507445623977732e-01
1.368715102000786776e-01
1.126891344554760560e-01
8.088741150056903695e-02
1.096003222893634776e-01
8.407429780632390270e-02
1.489031644966989365e-01
1.481412857914162495e-01
2.050069164300498126e-01
1.578591138138097649e-01
1.737415848653976191e-01
1.242143124732918019e-01
1.899884328362737573e-01
1.453773261920223159e-01
1.341414638531983061e-01
1.046609406322082658e-01
1.303661981388049007e-01
9.143031423436535909e-02
1.064319338383901276e-01
1.547153107792508531e-01
1.344184893737351005e-01
1.411258117854028993e-01
1.195682507521107218e-01
1.616843304517342761e-01
1.116451987426075321e-01
1.349862374467444559e-01
1.301634399065531300e-01
1.444037601790785219e-01
1.661043141563186554e-01
1.956553176377785475e-01
2.418896397895143324e-01
2.379662433876026661e-01
3.090995200661373898e-01
3.490609618900307742e-01
3.700393142610250985e-01
4.882598378663269290e-01
5.519006279589763198e-01
6.323986608905723950e-01
6.933487037948200538e-01
8.175342165647599968e-01
9.090587972831504215e-01
9.118506834813226991e-01
1.090215106784271804e+00
1.122553198212828063e+00
1.157069817297793346e+00
1.314250905022321669e+00
1.282145772933281691e+00
1.346762450867716510e+00
1.375384400152068975e+00
1.337257025580024683e+00
1.387090373990036207e+00
1.324678376493045429e+00
1.307878639235263263e+00
1.180593955770393499e+00
1.135643576067891125e+00
1.024354885803060222e+00
9.399063061760238869e-01
8.364696155679610667e-01
8.100649193637067258e-01
6.831269646858934008e-01
5.744656671145489391e-01
5.164956353193967953e-01
4.900718626805438682e-01
3.773497225811544009e-01
3.527933460322822401e-01
2.622434685924763254e-01
2.557154328207438820e-01
1.837045433125900906e-01
1.497949410229162392e-01
1.191056804389992729e-01
1.503120579093686626e-01
1.464693814423183582e-01
7.498113030997254069e-02
1.218370454481368659e-01
5.263402875081710230e-02
8.889867038712780112e-02
1.063502028688889656e-01
6.827956618005598388e-02
1.202794641203960013e-01
1.053044786572940872e-01
1.028519992932588889e-01
8.094977354344096154e-02
7.449218529384107890e-02
1.357179881128462995e-01
1.214079209827683831e-01
9.879353705510164618e-02
1.264328451954435106e-01
1.638380650991799192e-01
1.422400282474516331e-01
1.553287404649660308e-01
1.385466694745007832e-01
1.894317841785133905e-01
1.344670915098447883e-01
1.795728604007182094e-01
1.666700628955745667e-01
1.969460161330368608e-01
1.818728852704156185e-01
1.924514099326347927e-01
1.981814795031825172e-01
1.320299341935181336e-01
2.035668053936163513e-01
2.081845348690121722e-01
2.336512229057105261e-01
1.638926537488946122e-01
2.121001426563883241e-01
1.967527667176243167e-01
2.821577688802391903e-01
2.019114862381286846e-01
1.912688962326687669e-01
2.346546171223942989e-01
2.142758495020692378e-01
1.788070551121481999e-01
2.063300714110006540e-01
2.362094467205903270e-01
2.204331575846686930e-01
2.308246167623955736e-01
2.264267423458946327e-01
2.246205461321521824e-01
2.048143073958775262e-01
2.463995074556270815e-01
1.833839107022751380e-01
2.064396485660729974e-01
2.081815553014168541e-01
2.358354808572451500e-01
1.399198939725493640e-01
2.194759895611525236e-01
1.270459018456888411e-01
1.653881874236274030e-01
1.599779556065334951e-01
2.367712564891182314e-01
2.052011080835132728e-01
1.570648294426514047e-01
1.753146335480947893e-01
8.461827939742989912e-02
1.350414344719513826e-01
1.143258914867895798e-01
1.036294191814061127e-01
1.458645343779831072e-01
5.321144007933521769e-02
1.292519894750078779e-01
1.211362375394051671e-01
1.437012998360661653e-01
1.112713961522875106e-01
3.314826187650469352e-02
9.742785485714547389e-02
6.051960655950182344e-02
6.453972008417652173e-02
6.957547584969742127e-02
8.897471427210340567e-02
1.003001698103137274e-01
9.806789665083397167e-02
6.519122889138515009e-02
4.448158219556150317e-02
2.348965280701785507e-02
8.916979737553207275e-02
3.783956518260535307e-02
1.531730115072612447e-02
6.835177699571709509e-02
8.295576445823601985e-02
-3.311590654265187533e-02
7.925304619631300118e-02
4.122990733161777804e-02
-3.855446864305785148e-02
2.776522195745837612e-02
-2.061608077377785966e-02
-5.640524943316769374e-03
-4.110565581875308405e-02
4.959485310487957849e-02
-6.220680971660415975e-02
-6.710177502025539698e-02
-1.466099514191519099e-02
-9.276619739640674933e-03
6.841289133996675265e-03
-7.268932747217038415e-02
-6.232999900060344489e-02
-1.132903662554272939e-03
-7.329809613071966434e-02
-5.306321745118156019e-02
-2.114669482692234370e-02
