1.439911370922276612e+00
1.425910120348518273e+00
1.310748194066576611e+00
1.293598251395807308e+00
1.268271999333742350e+00
1.118300174976120998e+00
1.019737001707105462e+00
9.486786635175465943e-01
8.205775712842097169e-01
6.728415905137139497e-01
5.503384123010667262e-01
4.863905089569314222e-01
4.322987941031902759e-01
3.973408629237724088e-01
2.371314441902034054e-01
1.771412200473004572e-01
2.229319191682384571e-01
1.247595732434437499e-01
1.496126157681504643e-01
7.859428177817139038e-02
1.464073659905104352e-01
6.117569705690681370e-02
8.748918301924772656e-02
4.290383767887701733e-02
8.817870298445433519e-02
3.838060364999882484e-02
2.172811721425978865e-02
7.272526351732901129e-02
6.985447113521880969e-02
9.590542859480521987e-02
6.556040909224639113e-02
1.565044543793146503e-01
1.087973925770083505e-01
5.769106473003530328e-02
9.154831098100986442e-02
1.196336887893522938e-01
1.134118074883858074e-01
1.432089240504797190e-01
1.276441290061095524e-01
9.359980800375836130e-02
1.015966850292907980e-01
1.732043712601006868e-01
1.294843493101359433e-01
1.736634142148097970e-01
1.495156459394307302e-01
1.607455113495522281e-01
1.443630726740398884e-01
2.142380707004362950e-01
1.837167446005690263e-01
2.636842959050554880e-01
1.447824947835947840e-01
1.745051717428452442e-01
2.320258355457207322e-01
1.913126315405947742e-01
2.483670964561778549e-01
2.179215323315822905e-01
2.167821704586659626e-01
2.345834472813828342e-01
2.155516316708076530e-01
2.598230614760515533e-01
1.699864345927464548e-01
1.776639583692580793e-01
2.539994507582633565e-01
2.833795642285609206e-01
2.279288997228079150e-01
2.694166613131358523e-01
2.790726443808818624e-01
2.722389166582198095e-01
1.662597193740896762e-01
2.434158824121176734e-01
1.874574485752020792e-01
2.212425689832538123e-01
2.069542278502679855e-01
2.070593478988738967e-01
2.398603698384678129e-01
1.605934375462546859e-01
2.480908380703536753e-01
1.975207655709503574e-01
1.611164105930030233e-01
1.498669618874119425e-01
2.099796419971707018e-01
1.037720205091763048e-01
1.744683908799852801e-01
1.645211031348923769e-01
1.901160042292641406e-01
1.200912647571374392e-01
1.876284052409811220e-01
1.771677682465406800e-01
1.292114324662738400e-01
1.236542902564188307e-01
1.298805948636677088e-01
8.752566603391076505e-02
1.389536944721265765e-01
1.205905351596934516e-01
5.886992749588040863e-02
9.247063921905573913e-02
1.495334983262891493e-02
1.361402285391112230e-02
2.762086521856679799e-02
8.124253518140115565e-03
7.346074892929765898e-02
5.912919159165348770e-02
4.305084336660247590e-02
2.012665501084328831e-02
5.743287817660348155e-02
7.321273287939226992e-02
2.039664961736119275e-02
3.324580072461327113e-02
8.145013330571358040e-03
-1.211871040508321132e-02
-1.595100453829707138e-02
-2.231417102865684149e-02
1.940942023908295150e-02
3.118660214511785600e-02
-4.388100629635387911e-02
-5.239026558414160845e-02
-1.504136878706216658e-02
5.083743300986060670e-03
6.064399068951089461e-03
1.028313149349450312e-02
-4.641637631204191539e-02
-5.535957710540823778e-02
-6.526545411235814415e-03
-5.617873588247272038e-02
-1.580023204263156233e-02
5.463746587259940557e-03
-7.978613084683001955e-02
-1.528079498367377644e-02
-6.476936961438815865e-02
-6.957364178868420679e-04
9.142117011350977401e-03
-3.785401303382457394e-02
-2.867938442985254119e-02
-4.613214230979764685e-02
-3.541609912214351008e-02
6.976189547942445585e-03
-1.502013002395330421e-02
1.299777708217371083e-02
-8.583879350017473153e-02
-4.019902346607404781e-03
-1.951438575722522564e-02
-7.013386029262512478e-03
-4.430867548923525523e-02
-8.196575895610218321e-02
-8.073858848749676520e-02
-2.912618612230210777e-02
-7.450519933258171329e-03
-3.878796964778742640e-02
-1.987868634385284855e-02
-9.087119751266227452e-03
-9.095476892435817862e-02
-4.572080633047630877e-02
-6.002196874081693750e-03
3.817769450774784884e-02
-4.992504214007702223e-03
-6.055469245776816389e-02
8.922964190165715015e-03
-3.447284853982293673e-02
-3.671016315270544256e-02
-6.728696810721346289e-02
3.111981343240688772e-02
-6.459344459300712937e-02
-3.636817194593226776e-02
-3.538103195031031684e-02
-2.872508501693546781e-02
1.245758819930561229e-02
-2.883149139378030773e-02
1.696344875430984972e-02
-7.986685524997785141e-03
-5.150437746475281658e-03
1.527680530655088631e-02
-4.664690950986115359e-03
2.855009613433170945e-03
3.657222292684902260e-02
-2.975455216601999298e-02
2.357845664731147289e-02
8.375291746372742763e-02
3.762450602715988746e-03
5.276266279203983139e-02
4.094451118864347872e-03
3.783724325406068872e-02
1.494723852089774319e-02
8.470057621921900370e-02
6.623558557136963176e-02
-5.499370078672322082e-03
6.942983093858762222e-02
7.404959565457375215e-02
8.637466467939236558e-02
1.335008613130095334e-01
6.343749471490053859e-02
1.015875816468380377e-01
1.400176382198544539e-02
1.379765593082831199e-01
5.462595586511581613e-02
7.946046246309698691e-02
1.079237882150220901e-01
1.239672335347933724e-01
8.164977538977330473e-02
1.623622398578294657e-01
1.051731887026336465e-01
1.473548993126953255e-01
8.149903468309063759e-02
2.015724785633992711e-01
1.045486887151302891e-01
1.013267128891971736e-01
1.110573815644689127e-01
8.949209875146582616e-02
1.180217538245859760e-01
9.232762648947195894e-02
6.943540905633907578e-02
7.373241512111239349e-02
5.082554486676844202e-02
6.105167812481107625e-02
-6.825911089333891457e-03
2.296329551697923188e-02
6.879598647261243871e-02
7.097178975798262845e-02
1.233052093976537700e-01
1.224816546455775867e-01
1.283786986440734745e-01
1.238134893160121874e-01
2.006781672100547420e-01
2.149116796715322408e-01
2.833181960517486830e-01
2.945396805360795400e-01
4.415543682786658430e-01
5.253933287543528508e-01
6.388089346985338368e-01
7.327136430865655026e-01
7.916369097390666409e-01
9.783897455890783190e-01
1.060759613715586358e+00
1.190860361344752150e+00
1.167635132589055047e+00
1.290348164657507235e+00
1.376813670991626548e+00
1.317043656011723796e+00
1.387166887700728157e+00
1.363919724662071786e+00
1.288917034169896336e+00
1.176705231512843453e+00
1.085243832512827522e+00
1.016755960132009307e+00
9.289947044700999079e-01
8.546594382410176438e-01
7.006719086813015807e-01
5.526029563603878092e-01
5.170237404626215616e-01
4.431662641308218298e-01
3.233275538365411039e-01
2.620997906674072397e-01
2.141350326637811718e-01
5.406884109510944059e-02
1.098223700369776734e-01
6.896997069480563514e-02
2.454517818417040198e-02
5.369615652257592880e-02
4.161040080796551272e-02
3.723190697088429174e-02
3.482961669827388390e-02
3.750308601497934907e-02
3.320493671272618796e-02
1.947465257754778939e-02
-5.141082898270414592e-03
1.097150861429715407e-01
6.737433215794971786e-02
6.912849411801971766e-02
6.104573520345334819e-02
8.135521590293996741e-02
5.961869500322304616e-02
8.590323574998343092e-02
7.614541028497422148e-03
1.135614394377535419e-01
8.481174163481464134e-02
7.512799670655664896e-02
1.059064417449174789e-01
1.163971186076827591e-01
1.362924325763767430e-01
1.401959489516524937e-01
1.707253206892216657e-01
1.107684605693990965e-01
1.430594356567825853e-01
1.422473873541592604e-01
9.730284560815846695e-02
1.733324875809294785e-01
1.590950982704371908e-01
1.901701499775311777e-01
1.981977151964422756e-01
1.623983961839663981e-01
2.390875394545572685e-01
1.494646078246233134e-01
1.420356273613321285e-01
1.675274489554444413e-01
1.794641820993712611e-01
1.839625068752508419e-01
2.203171021118363881e-01
1.864236539012920912e-01
2.165153041835464198e-01
1.566395582625814686e-01
2.140915285048004546e-01
1.797617105816762262e-01
2.085032415453296761e-01
1.873326921730174288e-01
1.854399872944400562e-01
1.979290935193377676e-01
2.107247704300282409e-01
2.459314690626924760e-01
1.997811828227730180e-01
2.036979808287036897e-01
1.989407096195251745e-01
1.391134337756551320e-01
1.732906893697405692e-01
1.437616316935453054e-01
2.227460627372180035e-01
1.687867339134197231e-01
1.064831546168523435e-01
1.183557745736902589e-01
1.038882841903493170e-01
1.332875491014006153e-01
1.148191578479132863e-01
1.116673512275332125e-01
8.839519737132175980e-02
8.862095951765594504e-02
1.203775684074682023e-01
1.005278843525583277e-01
5.101753548672447597e-02
7.318163186285539523e-02
2.257242385156121162e-02
7.307548365812968627e-02
4.826210687421730872e-02
2.833026144169542571e-02
-7.211209684366066963e-03
2.830289226111135092e-02
4.639521747504551236e-02
1.187080882989716146e-02
4.532203084059461401e-02
-2.412819391613452158e-02
-3.964396822241735008e-03
1.503961461842409641e-03
2.344072547200294621e-02
4.229553620324855850e-02
2.454476325427587535e-02
1.835950370925910902e-02
2.320703537106657416e-02
-6.894919422061486503e-02
-8.462421190152430439e-02
-3.948230628657700692e-02
-8.008017448893692269e-03
-1.399643750464897585e-03
-1.825764693962313168e-02
-3.483790600564513895e-02
-2.109399851213470539e-02
-4.679805027111940546e-02
8.009247442813879903e-04
-1.394934629497399797e-02
9.942424254256856941e-03
1.243764743245173027e-02
-3.116141549391788709e-02
-4.407170396702991821e-03
-4.892363218268164921e-02
-3.415852479767469974e-02
-1.555428137736770966e-02
9.747189671196899996e-03
-2.207916649566215098e-02
-4.486929330373966296e-02
-4.571138677774600617e-02
-1.689787704622552900e-03
-4.919637471546463997e-02
-3.830952949060033308e-02
-5.709520437258831793e-02
-3.953499079535469085e-02
-6.586024161852967185e-02
-3.154824945144089204e-02
-6.800712334805511516e-02
-4.825960631134765255e-02
-4.245781081479335639e-02
-5.029282831129844311e-02
-5.683136558872083771e-02
-5.461009043559617027e-02
-4.601214316161239548e-02
-7.469173411105292648e-02
-7.235384913482659219e-02
-2.141625292088826862e-02
-3.868705728870017180e-02
-5.152338703593412061e-02
-3.024502230114593099e-02
-3.877883726745547099e-02
-2.868236464344004963e-02
-4.968880997512054726e-02
-4.198786745193244796e-02
-4.773903802882555059e-02
-4.406507823694660181e-02
-4.148950083536062650e-02
-5.093877692772037780e-02
-7.000782296299012941e-02
-4.531216980619170304e-02
-2.446773371670313627e-02
-2.727898645928635707e-02
-3.098834589221861197e-02
-2.216646534502053970e-02
-8.082379579889248378e-02
-1.840874998765287124e-02
-3.280232836968513532e-02
-5.666637487163120324e-02
-5.955272120552797949e-02
-6.508077897069612650e-02
3.452739104355719707e-02
2.499875455477439806e-02
-1.225516807768693012e-02
1.217391170488024005e-02
-1.407515883308460558e-02
-3.457318007486070988e-02
-1.349027684947201600e-02
-2.053451331054061829e-02
-2.667977735066863476e-03
2.950218084414660269e-04
1.460767133979033044e-02
4.463019315810838605e-02
-6.082603749221607292e-03
-4.669631093919936193e-02
7.000209054629774608e-02
3.316276781358220432e-02
5.654792942996879346e-02
8.502857728440525731e-03
5.140824070270635926e-02
1.121035614348628029e-01
7.732796738154509852e-02
6.576129581477821451e-02
1.035858438083486210e-01
1.358148087102347412e-01
7.369444064147545603e-02
1.266877079066730805e-01
5.661482879960646336e-02
1.613477822654477700e-01
1.044052633970362215e-01
9.581362484060618190e-02
9.626049476218231926e-02
1.039418456413266356e-01
1.181013333783191704e-01
9.655344453992426024e-02
1.485498597525677367e-01
1.294351276730564826e-01
7.781797823621294796e-02
6.330388993771227102e-02
8.690979999283882096e-02
8.915186790822349217e-02
6.252788397825922995e-02
6.726961923723592807e-02
8.429476674106185785e-02
9.839031420362390201e-02
3.997875395386407682e-02
3.166120726910796879e-03
5.726108621383721453e-02
2.236626123918434433e-02
5.924075543378962139e-02
2.975123974926063147e-02
1.774422019661723582e-01
1.118213101191710968e-01
2.765759361532211802e-01
2.134335039687509927e-01
3.621891710428439826e-01
3.991689458575881089e-01
5.257607755233142388e-01
6.207357920236702409e-01
6.691994562100995747e-01
8.618785283338479264e-01
8.791317465984507251e-01
1.018029679191875925e+00
1.182281210708018060e+00
1.224010329602376324e+00
1.276246379270643772e+00
1.332244479557166628e+00
1.366206540625634513e+00
1.394376858041366463e+00
1.357964200662139964e+00
1.284162281517979398e+00
1.248015098811776191e+00
1.084781449423858790e+00
1.066414383332644045e+00
9.297028111498746306e-01
8.251530750269370218e-01
7.378925527364597059e-01
6.405303909352757508e-01
4.796757560274081955e-01
4.252202448754058839e-01
2.985629258816799303e-01
2.805164869128949356e-01
1.662154275330451347e-01
1.289572344902640832e-01
1.466627836113307826e-01
8.505525252471766995e-02
7.143781048408737178e-02
2.901772583346333423e-02
6.210902251183762074e-02
-6.351712393821727642e-03
2.388774460161822294e-02
2.089200799376539353e-02
3.756879301408298094e-02
3.220453717808755695e-02
3.590225047860972490e-02
6.500713760382408057e-03
-7.225543277408916221e-03
4.725692934407030310e-02
5.350545063732633361e-02
3.431071235690219545e-02
4.617204567059302045e-03
1.196664716923829946e-01
8.917416413883963444e-02
1.070127717810008816e-01
9.145883090495621204e-02
4.280341275232151660e-02
6.908256953625274699e-02
1.247681296419319574e-01
1.549801565096703970e-01
1.185454023846567589e-01
1.576451938988914780e-01
6.685060727101238554e-02
9.985407311132793451e-02
1.595523129400530926e-01
1.717652797627771122e-01
1.496760658631861862e-01
2.151113634685677956e-01
1.335947509776233277e-01
1.855893609215688855e-01
1.841236908634538150e-01
1.804338026531266959e-01
2.172453528689226032e-01
1.966547041342376068e-01
1.276146810464885428e-01
2.101936376145557561e-01
2.323004562082066349e-01
1.720877196707554790e-01
2.411514079298581470e-01
2.162903184608016005e-01
1.775125322095228997e-01
2.270336561192459190e-01
1.809822524833145374e-01
2.266582208989275093e-01
2.434003482559434772e-01
2.977690863541126443e-01
2.300257853839892674e-01
1.846844574848179876e-01
1.491018280411345598e-01
2.248531343413240347e-01
1.864443025879497784e-01
1.122964592571430303e-01
1.763668723293721485e-01
1.535841607522820673e-01
2.480944591739697447e-01
1.480218356132129709e-01
1.655466112863867856e-01
1.670340949770316719e-01
1.687490222959263930e-01
1.907651424163072373e-01
1.618140093423674208e-01
1.276707228728611032e-01
1.174483882017934022e-01
1.083145848764111574e-01
1.901505608398924574e-01
1.169677731042362417e-01
1.197501966969479886e-01
1.059481772878132777e-01
4.177727838069511535e-02
1.428514955651925267e-01
5.528590804258511765e-02
7.731699301093493404e-02
8.339353324637582832e-02
2.914704522561328143e-02
5.517750430611804979e-02
6.768993851521090677e-02
1.130413393625268048e-01
5.352314556795845918e-03
6.808007358397118181e-02
7.408245546766606404e-02
1.499690201087162250e-03
4.176976104449871968e-02
6.400221468102039457e-02
6.710869781102297982e-02
-1.240905007319978437e-02
2.361689934243050779e-02
7.800467376202131764e-02
-1.603519354613416187e-02
4.360665261851101593e-02
4.931605524229649984e-02
6.194053921733613799e-02
-3.183057715977453961e-02
-5.944073658843610983e-03
2.559550353406465570e-02
1.632203523935617240e-02
-6.196260164881702004e-02
4.896165144256799107e-02
-2.605947701207583095e-02
-3.728842838483659161e-02
3.370322446597808635e-02
-1.826442139830312256e-02
4.814737405588978558e-02
-1.311556925388066529e-02
-8.204148025862598170e-03
-1.764639387241415114e-02
-4.693624273237254757e-02
1.218411185038141206e-02
1.889141562796171209e-02
1.282527545212741420e-02
8.913487839562514448e-03
2.726507330710358640e-02
-2.421802309990267466e-02
2.449948849796349318e-02
1.253690492100180756e-02
-1.321451440943693587e-02
-2.707947832550022804e-02
-1.817173911983807968e-02
-4.696877196601284554e-02
1.202349902517333043e-02
-8.476670687794975872e-04
-9.501731159082503486e-03
1.859789088542781327e-04
3.825000533618774790e-02
-3.272738642602893502e-03
2.366939819496945152e-02
2.070638418125212224e-02
-2.575686853386145031e-02
2.653967711734003115e-02
4.080132245280794143e-03
6.717159090250180049e-03
-1.238335589391156150e-02
-5.296991980776342979e-02
-7.046549524056591740e-02
-4.441167897082836519e-02
7.545889879123586497e-03
-2.231471718152466463e-02
-3.216558930620302958e-02
3.908552695764712370e-05
-2.054239971424997452e-02
3.196533343596958537e-02
3.725725197313259351e-02
3.596597360918912800e-02
2.231774022144146150e-02
-2.276271052218028709e-02
1.395577911288309672e-02
1.462162990077110238e-02
2.726090583375357507e-02
1.356261711181075934e-02
3.134369544975092181e-02
2.017889682374307200e-02
6.112011640081054659e-02
-3.390275948260698582e-03
3.716726757682606297e-02
4.228633157999017733e-02
1.913457444548587877e-02
2.716263153494253083e-02
3.077766075279382910e-02
7.900984916800303515e-02
3.515229881106982784e-02
3.745913777454340510e-02
4.108000947022596994e-02
8.270597949668068161e-02
5.042719600636079436e-02
8.158151573840233262e-02
1.132814346472020145e-01
1.312532903065327106e-01
1.716286487523637772e-01
1.111290585279143123e-01
1.458243307261780641e-01
1.394600230547919095e-01
1.229846298564394175e-01
1.182494529087543683e-01
1.525662937884806614e-01
1.649699626455560508e-01
1.410391996297105655e-01
1.479338075153951160e-01
1.960721499292800707e-01
2.049096462722926892e-01
1.434722504302985424e-01
1.631455140439367901e-01
1.784758983813556632e-01
1.499964598944546201e-01
1.325183231762005476e-01
1.535172650367135905e-01
1.664245320852177634e-01
1.492686258932292842e-01
1.367251175218976988e-01
9.283809751813087985e-02
1.352597895814616202e-01
1.088406019306071837e-01
1.301293723438852745e-01
9.737233236713349616e-02
1.023914252196822944e-01
1.706327401856382875e-01
1.267939556590628458e-01
4.941672762254394752e-02
1.759045810052713432e-01
1.127187511243050028e-01
1.525124774295997798e-01
2.069116482612874119e-01
2.828071439734940462e-01
3.106106685749056573e-01
3.154106947100241420e-01
4.532163884823785516e-01
5.105113255776869696e-01
6.113861712809675053e-01
7.057932322734430386e-01
8.013633357879864638e-01
9.119166250773559357e-01
1.071414032156642326e+00
1.125929026733878180e+00
1.203270907893597030e+00
1.294730664195152592e+00
1.369300956062343033e+00
1.421691865798744514e+00
1.427220927156400476e+00
1.398473092538188522e+00
1.340619235244207008e+00
1.275256140424782858e+00
1.256882164031429161e+00
1.152514141184620700e+00
1.048440954246988799e+00
9.306926537588880999e-01
8.230068304208607577e-01
7.056679620793527841e-01
5.771589980693615507e-01
5.581434590737424095e-01
3.762196474132278312e-01
3.054457831048603134e-01
2.969287676010158861e-01
2.399846458938114102e-01
2.483012637302638992e-01
1.641880767727221524e-01
1.337061893856587025e-01
1.428232732558658569e-01
1.737525336156360845e-01
1.097727804714405120e-01
4.803056345568028351e-02
1.493111918201263932e-01
8.930971773597869146e-02
9.331581698072707876e-02
2.516116127841190250e-02
7.233828502903570656e-02
7.089327819523105756e-02
9.010759158649934986e-02
1.351013697103231881e-01
6.036600587061721757e-02
5.727776865156240793e-02
1.732857196217353901e-01
1.489286862609390805e-01
1.367930485095935067e-01
1.658586690499313510e-01
1.455710857721305429e-01
1.293181943002537082e-01
1.291724674689531671e-01
1.763653810182789772e-01
1.839181151637904743e-01
1.633555508110899612e-01
2.195753446100734418e-01
2.254986577565107897e-01
1.618571667500416367e-01
2.496984971552410615e-01
2.165141077659729074e-01
2.115690752624907189e-01
2.515835410664338800e-01
2.270955846449060900e-01
1.865694929220673426e-01
2.330109360807595120e-01
2.300967625787210813e-01
2.490726044594226418e-01
2.749958098740044043e-01
2.396115892563085159e-01
3.074864631959952632e-01
2.743500445830095447e-01
2.896536965297470401e-01
2.590844390812238607e-01
3.172716905513023877e-01
3.028788086082455644e-01
2.376992516595760052e-01
2.690767499976217114e-01
3.476738762012430151e-01
3.266270901234513691e-01
2.786041180659701855e-01
3.064054404516904362e-01
2.571550449955206652e-01
2.964053928989253128e-01
2.261705219074991446e-01
2.126519661947923190e-01
3.191680213359285312e-01
2.667270266208813800e-01
2.230371019719524228e-01
2.606105600190577465e-01
2.472990106478414607e-01
1.771439710999119788e-01
2.313772629861892971e-01
2.385868696769723463e-01
2.622974424930148984e-01
1.903950711977312471e-01
1.387007109119465231e-01
1.640145615212000862e-01
1.596993155484022486e-01
1.624259519676939933e-01
1.718310411569064777e-01
1.710781335839313411e-01
2.166453193589425175e-01
9.062973539291838132e-02
7.753623330967446270e-02
1.259848097518557475e-01
9.357926328367040247e-02
1.127393158566628029e-01
6.576197329453678520e-02
1.633830588061376543e-01
1.635986705974647459e-01
1.051661992151564085e-01
1.576465790743974416e-01
1.736651708985100795e-01
8.853018099397805263e-02
1.045098249329846074e-01
4.235926815865543454e-02
6.208179339559458110e-02
1.190215372669704563e-01
9.403924013321598996e-02
7.105054963132428902e-02
8.021997020309384885e-02
9.336991395393898219e-02
1.002190439705856750e-01
5.419128609071473257e-02
4.835262441846711889e-02
6.235950882471441581e-02
2.683081021550626569e-02
4.237997789116181718e-02
7.724458205913442566e-02
6.418075712114584830e-02
9.045749601876962309e-02
3.603579828954765057e-02
9.674926286719329194e-02
3.103968209402553635e-02
2.713798483338432030e-02
1.842982928973120604e-03
-2.807397877825222599e-02
6.310667439152081726e-02
4.586525954362586505e-02
5.976741849527998640e-02
4.083089381008459667e-02
3.603686951345062839e-02
5.206497478743713631e-02
8.023601323221316028e-02
6.498355187563853441e-02
9.287584466450976572e-02
5.963493699517462276e-02
2.393258202027833889e-02
1.145644953993226328e-01
8.470725315889737761e-02
4.862639453166087145e-02
6.132264315762344514e-02
5.928347296569679015e-02
9.232641566592904303e-03
4.433242941636555273e-02
4.598957909432751373e-02
7.712811036862862735e-02
3.625590986501509017e-02
5.617545105277129552e-02
9.696086038140186436e-02
5.031234452709298921e-02
6.634981021680462498e-02
6.659090940526411762e-02
4.116989951583392704e-02
4.828610118706114229e-02
4.040556134242069553e-02
7.901959484047087201e-03
4.070475159214229088e-02
1.988739769867204146e-02
5.574213723372404422e-02
8.321018351164782834e-02
1.084620118901356012e-01
3.639414128911286350e-02
5.718714804905685595e-02
3.674824407585396135e-02
1.976469994858449930e-02
5.818684199305453053e-02
-5.704338455437364674e-03
8.163413997133693589e-02
4.587872438510587347e-02
4.924322401494787144e-02
1.499359524256829376e-02
3.715047148071613792e-02
9.310717174635455007e-02
8.528682780167884392e-02
7.129402435014724204e-02
8.823967557717196653e-02
6.206927283463746503e-02
3.337394370127976656e-02
1.241941416634188694e-01
1.303330536324805444e-01
1.013402459283995471e-01
1.527658303642197013e-01
8.363888303254365941e-02
1.530149748087078765e-01
1.112605246632060174e-01
1.249694454646640140e-01
1.101548458332843872e-01
1.812094450577987903e-01
1.867339085133482846e-01
1.548601784677898774e-01
1.597043263262322155e-01
2.135629269229564475e-01
1.821359873254493056e-01
1.758489586260236215e-01
1.284331283996427986e-01
2.277285999930604432e-01
1.601082311258836266e-01
2.080518041374216365e-01
1.585920549586115058e-01
2.108188642278706615e-01
1.843716693197315626e-01
1.733041136288416550e-01
1.362658188588279362e-01
1.822539514519379011e-01
1.373943741585930411e-01
1.941364996061216708e-01
1.966240400131371580e-01
1.892786907586236911e-01
1.586540164899467587e-01
1.449918894866184527e-01
1.897206068987580263e-01
2.332456766975504192e-01
1.502924615956107157e-01
1.772867288410811537e-01
1.435489679266689356e-01
1.524333832591752425e-01
1.377039302028401635e-01
1.789189198292245320e-01
1.138219488819756930e-01
1.093481722905826764e-01
2.012168443958263775e-01
2.696721488493402652e-01
2.968958621647682650e-01
3.426160700268872095e-01
4.402996738314057246e-01
4.969934868076344436e-01
5.272278683682717348e-01
6.124983007443528527e-01
6.739454516313196919e-01
8.342007577141836716e-01
9.940584682855930776e-01
1.086667414247787011e+00
1.195351158401406488e+00
1.252062042527022134e+00
1.318234606714683510e+00
1.405996537564795812e+00
1.459631242313941257e+00
1.448533782645909707e+00
1.468094443583622510e+00
1.399698181709669642e+00
1.365605966898388424e+00
1.273487036369105985e+00
1.204810244504164185e+00
1.108519398695196223e+00
9.921082955214883814e-01
8.571285864596789317e-01
7.287590879650007736e-01
7.230127347555103112e-01
5.886332573050161443e-01
4.727892439990144524e-01
4.307726346281657848e-01
3.350682106790358050e-01
3.203121833299672483e-01
2.135996725125652029e-01
1.644280912457450894e-01
1.336860789718695985e-01
1.387999387695649789e-01
7.356002162025093716e-02
1.210217241969003682e-01
9.474878597806586644e-02
1.035297209092100601e-01
1.317999235404724301e-01
1.336762915207787006e-01
6.981138957346565144e-02
1.530243583956315545e-01
1.057513793758260989e-01
6.766660748217789845e-02
7.125092635512417227e-02
1.726763767138523309e-01
1.592327096334872072e-01
1.856148437329096790e-01
2.253899790340957165e-01
1.553758237511707885e-01
2.122902163990805779e-01
1.576568344198620297e-01
1.687617952087688833e-01
2.190140881832108866e-01
1.590188786128686471e-01
1.540563068416805903e-01
1.735720699827027758e-01
1.913006535555262233e-01
1.926534541649635168e-01
2.109910407081140027e-01
2.673455981620453392e-01
2.570859849148837140e-01
2.386175340280247137e-01
2.716396646751044752e-01
3.121437179831400011e-01
2.817362779410805818e-01
3.013444182689035133e-01
2.688068887203861057e-01
3.026197863161593227e-01
3.118328519161400192e-01
2.227458108607449916e-01
3.636914594313843119e-01
2.796327804835077036e-01
2.785815381387608536e-01
2.944270702773172932e-01
3.540046708542259890e-01
2.450177470565013116e-01
3.205474191010754259e-01
2.892229548184738208e-01
3.164805674681601122e-01
2.768659254390911095e-01
2.900240001853888194e-01
2.712157859733879128e-01
2.932096583379179555e-01
2.633526684290474207e-01
2.848804658307602100e-01
2.907955436344411559e-01
3.382167100307835739e-01
2.744130880486171375e-01
2.481627061042815385e-01
2.375418332253109166e-01
2.265414046623295541e-01
2.307525534818512247e-01
2.190003383238818269e-01
2.709929857011358911e-01
2.279142617653512892e-01
2.125519258399384548e-01
2.192555908600526404e-01
2.398246038015702797e-01
1.739116973740106320e-01
1.898443891593427080e-01
2.399776283963991619e-01
1.439281213739837528e-01
1.488165035448227869e-01
1.866518303763749775e-01
1.450971385249471557e-01
1.401052314417841060e-01
1.547984764139332947e-01
1.147057759060450821e-01
1.532285676251562700e-01
1.965617617684214669e-01
8.248087515009167037e-02
8.750197014329362533e-02
1.732183707453681387e-01
8.978868395293360116e-02
9.944794552001579024e-02
5.628021246197792427e-02
1.417211695029782503e-01
1.147801125847612708e-01
9.589564850388135331e-02
8.411716629545704094e-02
6.411301268628885608e-02
7.196667842761787781e-02
9.279717896369207852e-02
4.054190965777214328e-02
1.165152424982917878e-01
1.125202962558760483e-01
9.060376003420402002e-02
7.712304239104393611e-02
8.850477528206515676e-02
1.147957780401995947e-01
3.865453429911323152e-02
8.600386795199263523e-02
1.236498052871268238e-02
6.169385979600136571e-02
6.102066375771228457e-02
7.115624297875305926e-02
1.308008849662610495e-02
4.133136133330297945e-02
6.175546997602299887e-02
6.140672060792964904e-02
4.750352620053274050e-02
5.586761527806657912e-02
4.891831542017206769e-02
2.392910089002407703e-02
3.991547348371980719e-02
2.931196437449032355e-03
3.682770077877050435e-02
3.207499178761969577e-02
1.655214900409497994e-02
4.019657576508912228e-02
3.063048082169219505e-02
7.497497593202880062e-02
7.794092598165980323e-02
-2.787049181808631815e-02
3.268141907108038091e-02
3.819618884491542132e-02
4.374130079968245599e-02
3.642142403505223280e-02
2.194445861109369303e-02
6.630807489249324060e-02
5.687789035426524253e-02
8.072017527806704673e-02
2.325522412913762910e-02
5.353242819339451564e-04
7.303384136592586118e-02
4.806130220596813163e-02
2.169092316519926830e-02
2.209009003179548958e-02
-1.987134303854824757e-03
3.501346990412934623e-02
3.160566172650915162e-02
-1.320807409822349204e-02
-1.134595125643317326e-03
3.645710057793846021e-02
6.401182388994655637e-02
-1.147385088237249523e-02
2.673179781866705934e-02
6.135457354686819909e-02
1.001033614243588971e-01
5.015421621540810948e-02
4.231239611328223293e-02
7.511331530895068442e-02
4.593115365181315440e-02
1.205316296489815364e-02
5.316373046886918585e-02
9.012739581180172210e-02
9.783105466729230537e-02
4.793032091226344382e-02
9.798788552995194023e-03
7.349157174337525578e-02
9.649829167149587272e-02
1.216311839978443526e-01
1.485473881395059370e-01
1.525421879238741119e-01
1.083399395884299399e-01
1.231349834616229932e-01
7.959377713400872523e-02
1.591834689818998338e-01
1.696245263971174477e-01
8.006303834319619672e-02
1.539489282125041658e-01
1.566959835551930413e-01
1.947478786423945674e-01
1.652894840411657795e-01
1.691989875364247331e-01
1.830801822914808474e-01
1.564752555854790339e-01
1.419529755477736688e-01
1.695012094183976081e-01
1.637495368044884214e-01
1.806099273698137386e-01
2.678209120208843164e-01
1.997757117032543106e-01
1.575436503384965714e-01
1.606993406529272084e-01
2.185454190963826149e-01
1.736846206825307104e-01
2.018133473156000501e-01
1.343042832591086477e-01
1.568905300862021290e-01
1.517432122417390894e-01
1.843949968724603317e-01
1.581890922587468051e-01
1.597563658792159613e-01
1.629577428521646054e-01
1.362706010406361523e-01
1.543786396165917063e-01
1.325762616641303349e-01
1.798820625559897080e-01
1.196703422591773591e-01
1.277207003042047928e-01
1.510435741306817570e-01
1.489069788422641705e-01
1.670595711572949726e-01
2.350071952236837958e-01
3.348541071384213974e-01
3.504664301238801793e-01
4.129682374405790890e-01
4.748775662205680925e-01
6.135103937023571596e-01
6.323543983594539508e-01
7.400593603595596592e-01
8.830404425749045494e-01
1.006878025143661537e+00
1.070265064167917890e+00
1.182620733697931303e+00
1.282485497789967566e+00
1.397106798069201572e+00
1.348437393967076847e+00
1.441090831257095140e+00
1.451859520798637782e+00
1.458780365192012152e+00
1.315111738508518258e+00
1.254170249301552076e+00
1.180645185435992062e+00
1.063857223174426991e+00
1.033148581107844022e+00
9.000504201641664759e-01
7.792402451052148349e-01
6.830890813246440763e-01
6.033629050570690211e-01
4.008018776957761875e-01
4.075785556789439656e-01
3.343794956267059360e-01
2.826861427200945132e-01
1.692095793156128958e-01
1.730825711774069686e-01
1.169819677063253377e-01
1.625578923788785490e-01
1.114279234881411507e-01
9.082112857837711106e-02
9.924875441389890973e-02
4.895568417060089383e-02
1.241935259221716853e-01
1.247574310588359381e-01
4.607317800520864537e-02
1.252727213809949336e-01
1.437463455603167906e-01
7.481512254829765507e-02
7.454850254386116704e-02
7.984325633244626630e-02
1.360618240990635608e-01
1.725909958000132194e-01
1.077053016011571412e-01
1.461830144929392727e-01
1.542019521592735698e-01
1.255163308481208606e-01
1.326541417020484781e-01
1.556489228628996357e-01
1.666644621320643171e-01
1.453547995141225013e-01
1.658281313857606354e-01
1.916029610852506559e-01
1.918090609289148651e-01
2.614069343894827036e-01
1.748143386448333392e-01
2.563190750861449319e-01
2.268416029243974230e-01
2.146869461973038573e-01
3.037715032009710159e-01
2.377324425639585903e-01
1.971611437006808021e-01
2.442372043010331839e-01
2.797589373526359613e-01
2.610731801036150213e-01
2.692026507390424817e-01
2.427574574226811222e-01
2.519532392066174964e-01
2.320985124899964114e-01
2.334579034729901137e-01
2.718920178141394639e-01
2.839712584686002184e-01
2.397731070402328579e-01
2.446889472487022987e-01
3.024937146327125181e-01
2.264466902884053889e-01
2.322659070092885636e-01
2.010294549331068381e-01
2.322946859651283946e-01
2.433127791072415558e-01
2.682316266284526796e-01
2.326210284682122820e-01
2.540812035935082758e-01
1.947725597936018072e-01
1.915502642877794925e-01
1.726586977155604719e-01
2.317589107751272803e-01
1.890614335013715008e-01
2.645160634652956033e-01
2.542300673566859071e-01
2.063649379516304672e-01
1.276013236892946379e-01
1.691173093119804904e-01
1.700385233223802028e-01
1.635301278961976412e-01
8.680565182077953912e-02
1.144593308527171449e-01
1.040697656558449286e-01
1.253373880337046165e-01
1.344413352010266072e-01
1.299673621112931443e-01
8.887724972521220124e-02
1.098783711855902817e-01
1.024771695670369381e-01
7.478573598318408178e-02
1.027569214239862083e-01
1.154521021044623563e-01
4.710109628681273530e-02
4.696011671254194525e-02
6.225782231616092122e-02
9.040691735345522673e-02
4.094190817459483073e-02
9.841878275548029964e-02
8.703346705018243090e-02
-7.422971854764214700e-03
4.722935450748912828e-02
3.531854608467822204e-02
7.155887647584322636e-03
2.489462133313833855e-02
4.249624338797756973e-02
1.365857181019417693e-02
5.509623270989552624e-02
-1.187684956773625219e-02
1.613876925413086985e-02
1.279261768734193082e-02
-1.824624665650136091e-02
-3.644161672362053461e-02
1.805318515533005028e-02
-1.308373649997312746e-02
-4.106769415222063374e-02
1.952551026739185805e-03
-1.194332750769034474e-02
1.158056618403300111e-03
2.984613306035251504e-02
-9.717789468865319080e-03
3.783843741980437436e-02
7.175278334060692514e-03
5.189514290447306069e-03
-6.410497690277247584e-02
-1.987973319443546438e-02
9.669567874489731069e-03
-6.585650150190519928e-03
-4.012069595997148214e-02
-2.562996581098959253e-02
2.965097385369324517e-02
-5.436938830340402005e-03
7.803470822555846204e-03
2.086782736712878422e-02
2.141590701073784603e-04
-8.270179389094599320e-04
-2.787819186003174382e-02
2.184326291793734984e-02
-2.750098194872610882e-02
1.049960045248505072e-02
1.761627492267554135e-02
9.041297474452352628e-03
-2.669125422245946164e-03
-4.733036197768747400e-02
3.237962746484977783e-02
6.654826961008048283e-03
-4.730477508843500961e-02
-2.065492304874096130e-02
-1.225286799599721588e-02
1.268109456640682635e-02
-6.611482298051235551e-02
-7.859069398387687200e-03
-7.601295933671677399e-03
-3.829241401607285517e-02
1.000220690914987998e-02
-1.021368693993893011e-02
8.449736342315713328e-03
-3.335495695550978745e-02
5.467653961057375445e-03
1.092692957785030422e-02
-2.396221920403191624e-02
-2.042916175837678622e-02
-3.578243681992462899e-02
-2.916628500285057060e-02
-1.546104527758932271e-02
4.419274087793221423e-03
2.336461815374911433e-02
2.099539528718196921e-02
3.965623954023780873e-02
1.475128711402831638e-03
-1.738814260844552192e-02
-7.552605901453703779e-03
6.266653009181094580e-02
-2.641526953747393158e-02
7.063689989257052049e-02
7.057392513160523628e-03
5.721063994366386296e-02
9.678438273516193346e-02
6.620088602186081916e-02
7.406972931442365460e-02
4.764211257974989427e-02
8.863741496328109148e-02
1.036010682182708087e-01
1.517051319410322174e-01
9.216002278687712712e-02
1.832134816536940269e-01
7.239158934633327380e-02
1.222259862779859207e-01
1.038275701140795593e-01
1.118081461253803699e-01
8.282978839619974110e-02
1.486431250506131674e-01
1.629100413262496994e-01
1.360611515276940742e-01
1.474838357118986865e-01
9.866829115582805010e-02
9.165668252091774271e-02
1.469582379026373453e-01
1.294107485694467041e-01
1.588217824464645267e-01
1.288798548548718004e-01
5.271516697150223363e-02
9.464025976323334199e-02
1.360075144230130650e-01
7.578801180345721977e-02
9.472316550444077887e-02
6.018411561282989430e-02
1.154679224739192933e-01
7.794623615813303652e-02
8.431602799781671986e-02
8.542285088105268376e-02
9.336320721117444266e-02
6.229754593886618896e-02
1.322967267139374403e-01
1.320251410519985569e-01
1.529191114905184279e-01
1.914672093086763338e-01
2.172491918498716257e-01
2.824082288075884239e-01
3.156118737445893774e-01
4.436744260507142212e-01
4.164329629754748296e-01
5.962252500924647425e-01
6.754768739177433590e-01
8.584736522084739363e-01
9.067562062095981812e-01
1.035177619580474051e+00
1.063593229005559415e+00
1.174470290813992790e+00
1.277065058015252497e+00
1.356640116892999792e+00
1.355999275518781078e+00
1.410865330179784660e+00
1.360391463114312582e+00
1.386824455067716899e+00
1.242901135589612460e+00
1.215661683349531730e+00
1.097452097691263173e+00
9.846284498045569933e-01
8.529236142710463486e-01
7.680119268003335886e-01
6.220400363971667623e-01
5.438558199345279176e-01
4.107473465209546815e-01
3.918556146351984126e-01
2.808314152602374714e-01
2.564065485708406089e-01
2.011234321654902513e-01
1.653629469654315787e-01
8.278611606213542862e-02
1.214982408993329488e-01
7.875855443457840943e-02
9.494954813451667031e-03
3.330455193526731666e-02
3.843923227204124743e-02
3.773497222790699046e-02
9.434858377396079798e-02
7.719933924516482471e-03
3.266192339647818604e-02
2.863818461546722288e-02
3.494698553055675810e-02
1.036020878798111777e-01
5.714456228907589808e-02
8.271639532414229445e-02
8.493287493783900632e-02
8.094015474590672554e-02
1.067650405135998071e-01
1.024682536286235651e-01
9.492535791802471368e-02
8.556261698948960936e-02
1.066889138124268305e-01
1.247286254352079626e-01
9.722021645116465938e-02
1.248680944394946757e-01
1.163154733783272332e-01
1.255616077563951327e-01
1.449273785668963033e-01
1.861996948593339918e-01
1.610635479543000292e-01
1.863445597598759051e-01
1.903467199595226811e-01
2.134604025865672328e-01
1.593220706974846634e-01
1.725789753126597825e-01
2.058193857698261409e-01
2.122147274305317133e-01
2.171891076436266999e-01
1.978237565392083341e-01
2.648095183872483660e-01
2.288263939323501583e-01
2.297703329496805780e-01
1.694543721807200143e-01
1.892043375968094909e-01
1.599362642448062810e-01
1.866581579605388619e-01
2.394802135178255575e-01
1.813741751342153319e-01
2.161105349849131996e-01
1.857966602943231793e-01
2.132940581132662106e-01
1.812285825768665815e-01
2.090533311518812387e-01
1.653659649986472246e-01
1.753138022241246263e-01
1.460628009632652657e-01
1.456589824122020982e-01
1.733848177123692991e-01
1.561523750734292726e-01
1.319242772794126939e-01
1.438686212272086429e-01
9.548644693222488322e-02
1.254063275285368095e-01
1.412755889630012418e-01
1.169179789221424376e-01
1.040960072799867742e-01
9.706150950022343626e-02
1.362521440557701302e-01
6.518562643124924116e-02
7.137221857798198288e-02
6.768361537297359898e-02
1.172941964835034351e-01
1.275361218379053585e-01
1.010799709944114888e-01
5.292427127622517657e-02
7.693829851206010484e-02
5.679992353633266794e-02
3.807079495658703683e-02
6.911367909353739736e-02
-1.277627591589784034e-02
5.353074206639032301e-02
4.465553907324901206e-02
-4.223441963129875854e-03
-5.178756678609154618e-03
-8.257865317819738926e-03
3.539051411734656788e-02
9.636045700269962877e-03
-3.107301166510459053e-02
1.245294061321043644e-02
-2.483829095121452626e-02
-4.469517314948527609e-02
1.032437770242301128e-02
-6.703981382330019556e-03
-2.197692578715279219e-02
2.841942098180437470e-02
-3.283265584909482449e-02
-6.127468563041882366e-02
-1.494084349724629501e-02
3.683673564024693425e-03
-8.172313145273286950e-03
-1.813638742203581983e-02
-6.117007528622800394e-02
-7.911312470910548955e-02
-3.908534444825521870e-02
-6.980510346591216331e-02
-5.592469841314599843e-02
-4.826960548187180650e-02
-1.107112222894866826e-02
-1.480816036118855900e-02
-9.242719185330261489e-02
-1.515973031636737300e-02
-4.880313632332735491e-02
-6.305558813906964044e-02
-4.257527711502519241e-02
-5.885398046079581835e-02
-6.855642881541129663e-02
-3.643992435335962482e-02
-2.986308941622221186e-02
-2.259344739961554119e-02
-5.137714680136141326e-02
1.648758617661045395e-02
-3.204760402408536601e-02
-5.554696117246287618e-02
-1.472540618172402810e-02
-7.942239883055995930e-02
-8.162378914167897626e-02
-4.250978686375994631e-02
-1.110161764104697635e-01
-6.061852899055231864e-02
-3.611078379792884152e-02
-1.137213221507556854e-02
-5.197476617704320512e-02
-1.043890791289429909e-02
-8.807952318200437669e-02
-4.176582783465726534e-02
-1.850692802887654240e-02
-4.257550250506440814e-03
-6.300188416242871736e-02
-1.738222675849430271e-02
3.497897639315385165e-03
-6.840381956097346672e-02
-2.295950903625675402e-02
-6.356666254737129707e-02
-4.777567834372414834e-02
7.908919462183000570e-05
-7.410915206556169255e-02
-3.142460839943375661e-02
-6.532964284931945531e-02
3.496986062636703307e-02
-4.512863367753749966e-02
-2.996573948231917237e-02
-4.947650648425706843e-03
-4.181592641174096403e-02
-4.128851014453544660e-02
-6.130872772130646631e-03
1.107871102314866157e-02
-3.389328942057048821e-02
-1.468723683637240124e-02
1.188703134656209082e-03
2.292631432440978001e-02
-6.518654249367122899e-04
-1.749212772918064956e-02
-2.685126903258047704e-02
-3.135618908838427865e-03
4.186556114676640017e-02
3.281302522212504319e-02
3.438098103743941758e-02
4.110574218105525479e-02
5.737423946862107299e-02
7.403346695158913304e-02
3.097846796199950348e-02
3.186233545380397214e-03
6.020249213405695632e-02
4.991355366471076499e-02
4.250866169116781362e-02
8.136010209708541274e-02
5.386336734337363041e-02
1.492771423636812256e-01
8.383941266799288528e-02
8.521935404751301846e-02
1.619752886780879975e-01
1.295903814766007078e-01
1.017884919811139488e-01
8.057401462055711894e-02
9.203659081336319769e-02
1.346432360483563739e-01
8.527350439714354025e-02
1.050317389137062768e-01
1.013004407191394618e-01
1.112548516869716064e-01
6.787693357240637271e-02
1.232711162015083795e-01
5.510658578050159351e-02
1.086520911330712547e-01
7.151663837118661660e-02
6.302660047916276709e-02
6.550745659188550452e-02
7.441289056604941110e-02
8.690125574163340416e-02
1.298878448849720979e-01
3.756722109569189672e-02
8.783917617984174364e-02
1.157436580907549029e-01
1.817382722902752823e-01
1.641520783638871495e-01
2.281237009199831023e-01
3.414942498755428879e-01
3.520192943507083339e-01
4.112702262372019413e-01
5.961564747665848429e-01
5.736445951912362284e-01
7.271463804484175064e-01
8.773509476081878811e-01
9.726687907885260831e-01
1.059604050085292348e+00
1.117099292725414195e+00
1.242435456961599405e+00
1.271002873909286901e+00
1.335911259089284986e+00
1.337549848693203813e+00
1.337983853298150505e+00
1.303712211366642837e+00
1.305064805532238026e+00
1.262843454084448425e+00
1.084937031969882559e+00
1.041551159088636824e+00
8.541013451905964393e-01
8.095780362937216035e-01
6.795317807945870925e-01
5.149114111697213891e-01
4.426756323742718213e-01
3.638747436503003696e-01
3.088755043795561872e-01
2.411870298063320261e-01
1.643446497171907605e-01
9.998161266753463616e-02
4.042870819092281298e-02
5.741822555936580003e-02
4.752759245718484599e-02
8.743823507427139763e-02
3.219507196996826415e-02
4.203513841972615628e-03
6.384220104453555700e-02
3.606486301192507460e-02
1.763848080566553234e-02
-2.847668072660849287e-02
4.430779785573699114e-03
3.365629519830164867e-02
2.591905394847886235e-02
5.888928703798963077e-02
5.675149976774356009e-02
-1.571247166927280947e-02
5.374856309354290179e-02
7.700432886910490993e-02
1.165942360539414802e-01
3.291733624089428212e-02
6.041348537448922723e-02
1.029187938586787754e-01
6.919239891295347888e-02
1.229045630159148333e-01
1.184624703435064180e-01
1.415715305545574010e-01
1.994626694500243880e-01
1.244209730046688667e-01
1.278366855143470149e-01
1.779683426225556198e-01
2.106008276344450980e-01
1.833621133583397123e-01
2.006600090086007038e-01
1.667619457762013202e-01
1.905793028344989481e-01
1.732338773265155174e-01
1.437650904790844508e-01
1.893006250052479134e-01
1.990902003599160919e-01
1.915672416744183815e-01
2.343820905385289588e-01
2.242673480577631606e-01
2.205761501439007233e-01
1.884453256037287583e-01
2.096485144750109830e-01
1.949529774864673104e-01
2.010523708058982451e-01
2.023072724212016393e-01
2.174976396016040370e-01
2.101730629747902146e-01
1.789321486735723221e-01
2.050098309003576258e-01
2.190152009770890973e-01
2.180047700787995923e-01
1.615811856742259689e-01
1.901734218570024781e-01
1.398994185353900355e-01
1.640907133972807075e-01
1.758984300757169272e-01
1.917626634510336547e-01
1.923328574626558540e-01
1.368683156464402528e-01
1.659525410876526164e-01
1.370179456269668972e-01
1.489411116330284779e-01
1.220183556206538844e-01
1.028054962152025187e-01
1.566182623497618942e-01
1.331858147112381097e-01
1.331105651685038360e-01
1.290885437799256519e-01
8.487877537925361815e-02
9.206346114667735003e-02
6.498115072485896593e-02
1.004072032155567118e-01
1.202474654608041704e-01
9.547339171027147131e-02
6.942839700551474424e-02
2.415036776225869264e-02
3.541551055940622000e-02
5.335359359632620146e-02
7.837159589023116879e-02
4.343051837406651516e-02
2.992801148598277922e-02
1.427932115838179139e-03
2.116292005860555964e-02
3.319674376401780119e-02
3.400992492885164531e-02
1.248422631135936989e-02
-2.341677358724322811e-02
4.288093123176001803e-02
2.222456539763707772e-02
-1.780248260141089472e-02
3.804073863769522751e-02
3.074463273643306821e-02
-5.711704522075311541e-05
-2.314236198942449391e-02
-2.465687559222293906e-02
-1.485993878951190686e-02
-7.707333541979505265e-02
-3.488657168948618159e-03
-1.646590811982362457e-02
-2.863167328284840080e-02
-3.852594427788217507e-02
2.925104331908762179e-03
-5.107302577884861861e-02
-1.947662129265614883e-03
-2.966100662464592891e-02
-2.531017912907121414e-04
-5.012823924193528236e-02
1.153916058707065914e-02
-3.000234762884904094e-02
-1.750631065337411238e-02
-6.357350300736656912e-02
5.908876568292177611e-04
-3.022998451608938791e-02
-4.809624453129565658e-02
5.432668709274909857e-02
2.728092460018532658e-02
-7.737504760793251224e-02
-3.148653865059244938e-02
-8.416193174044253600e-02
-4.911275810809356823e-02
-7.020883496430883886e-02
-2.609629049618515662e-02
-7.476882432823757363e-02
8.466258782628358764e-03
-4.632788360057986388e-02
4.601620224618324650e-03
5.878508120559598066e-03
5.030732662290859913e-02
-1.151145621188558003e-02
-1.807079455725525349e-02
-5.862768327418408504e-02
-1.954166974478218841e-02
-3.995800886715578787e-02
-1.377129187285961072e-02
-2.127012768350713609e-02
-2.517482346483737934e-02
-6.544496670362436042e-02
1.635351092424073075e-02
7.282642558346472117e-03
-5.752277405206070171e-03
-1.615345843267925602e-02
8.968356891954826215e-03
-1.507494391938388710e-02
3.902700807734324484e-02
-7.641841197443125996e-03
1.674563985520199916e-02
-7.809956056509012590e-03
-1.127670468384525324e-02
5.943060263982960501e-05
4.620261946526833113e-03
-4.210449230574046797e-02
4.033711871307876784e-02
-1.325385223353713060e-02
-1.015230412410812050e-02
5.220202325625172834e-03
2.819554002715009625e-02
2.490976250864657821e-02
4.389052069435084302e-02
2.550734913074779661e-02
9.128465850350114819e-02
4.163563247718215371e-02
7.018337612898897793e-02
3.937550576782689049e-03
2.308961969053775765e-02
4.730764292767833390e-02
6.163815770011300127e-02
8.311728505668300460e-02
1.247241008190668743e-01
3.916243144625787542e-02
1.206866864131201089e-01
9.035393772483568675e-02
9.859647664021709002e-02
1.835988787850267590e-01
1.261170754260434734e-01
1.141622155399069222e-01
9.847223429522330984e-02
1.522335735504054544e-01
1.041415033013417257e-01
9.210703044524896910e-02
9.919750652332683105e-02
1.177245342302475489e-01
1.748450409154966578e-01
1.568010298176409079e-01
1.082157373635596054e-01
1.485706436779338224e-01
8.744407271886370236e-02
6.999197758097794320e-02
1.665993805162052643e-01
1.701815596773166850e-01
8.939273316984731876e-02
7.076439959759053822e-02
1.141930545283674769e-01
1.107188918128980959e-01
8.607831375666112617e-02
7.301367437849504149e-02
1.287214437785160759e-01
1.146110162688623313e-01
1.004090186765794340e-01
9.718041840894138528e-02
1.506974685271841863e-01
1.391339641297836549e-01
2.308472268342540989e-01
2.881648274760156281e-01
3.598873046940303522e-01
3.530655624489223987e-01
4.371808568188300659e-01
5.542064842523490853e-01
6.862603474643523827e-01
7.476306434230147735e-01
8.508153770931686788e-01
9.055934588806653363e-01
1.096941544385421352e+00
1.135690254707838243e+00
1.259528589317268521e+00
1.308557777683700962e+00
1.407953118603380460e+00
1.385573603326764047e+00
1.399689360212627465e+00
1.372767246832449661e+00
1.309996854812238487e+00
1.306230470653036102e+00
1.313702050239306418e+00
1.045706770460156365e+00
9.591625978084029613e-01
8.366981979077117160e-01
7.560654356476236293e-01
6.473859689335829115e-01
5.675914692462299405e-01
4.091480801791261279e-01
3.977707567645646369e-01
2.412030067121702093e-01
2.605213566299335315e-01
1.721138137086908604e-01
1.156777415398353992e-01
1.350554759552093365e-01
8.614347695401664007e-02
1.333402604430677652e-01
9.719302848385197313e-02
6.246281006057378959e-02
5.557510452797648215e-02
6.570699126126698653e-02
1.287854121347530301e-01
1.994627330810012575e-02
3.648223701195028867e-02
1.235652427180971569e-01
4.977097308331611403e-02
9.888715081826421338e-02
1.183586043689110051e-01
9.075107496537694607e-02
1.306341961799494522e-01
5.381233087811193583e-02
1.323674402700382169e-01
1.820117763031165459e-01
1.387348924254438731e-01
1.632688843387095357e-01
2.234231193220176104e-01
1.506232696510798885e-01
1.233485291676536533e-01
1.009175003539833776e-01
1.798299156938805987e-01
1.468776862245072257e-01
2.146251052375345580e-01
2.284955915706702589e-01
1.892372775408444896e-01
1.602603627463589364e-01
2.398626734505502622e-01
2.103141299597543756e-01
2.504607357424053493e-01
2.330880788016886085e-01
2.471676186827430621e-01
2.561137809297467927e-01
2.399764729569549282e-01
2.680470448233058245e-01
3.008386459532672585e-01
2.160094462699502227e-01
2.222150892589177806e-01
2.548085377582046118e-01
2.278495649879839213e-01
2.107836829123897193e-01
2.916923145844939058e-01
2.780471753292622084e-01
2.391303094909891513e-01
3.034412156904920943e-01
3.304071568686673399e-01
2.774548983102348987e-01
2.971048571607761146e-01
2.552975217019979315e-01
2.552943779416650405e-01
2.147129397866804346e-01
2.382974952972815585e-01
2.560935354080851600e-01
2.319247500698762288e-01
2.387476095778851559e-01
2.617774378762683374e-01
2.415972110248471028e-01
2.433077586198167941e-01
2.187257812555491454e-01
1.779393727693300564e-01
1.460779030680653678e-01
1.638027500334804376e-01
1.666586006996374769e-01
1.593938342930389385e-01
1.776352372656945788e-01
2.289325981682313049e-01
1.862310421539292160e-01
1.482115442241942749e-01
1.161887400447669805e-01
1.427635976903466886e-01
1.680746699235779462e-01
1.847916545816005729e-01
8.659596938070589223e-02
1.563585100583627097e-01
9.832738485096981229e-02
9.303933193867365559e-02
9.157445223059532124e-02
1.145855946760708094e-01
8.106060263118078368e-02
1.088253504549643730e-01
9.260249250955825129e-02
8.524433777181400496e-02
7.747775571671056127e-02
6.522280648883621579e-02
4.776178530489604002e-02
1.113628630449505497e-01
4.433672719398930318e-02
8.332305252620349212e-02
1.015695413589872143e-01
5.601906065575613242e-02
5.869759536626457941e-02
1.211626809493717566e-02
2.477297654949042749e-03
-4.845981239710691474e-03
4.674321827348636854e-02
1.422342255378793337e-02
2.046556584414248661e-02
4.427767921712786464e-02
4.839704389543977858e-02
1.973214344140179766e-02
4.639600072160621202e-02
1.049008312775153579e-03
-8.881851815439829878e-03
2.488459121343128758e-02
8.088570757563853797e-02
4.662563571326720085e-03
6.403474680470636060e-02
2.217889772953565708e-02
5.192906418623832732e-02
8.318158464551314579e-02
-1.258411207685130109e-02
1.817408767921869367e-02
4.160867819869547291e-02
6.004009401517980404e-02
3.065289798451321240e-02
5.023479233778389841e-02
3.470060508992822007e-02
5.557693596376933609e-02
3.842610116366776407e-02
-1.346494232374441380e-02
5.151871157309569071e-02
7.631710044811974847e-02
3.342219726068662577e-02
4.967697318991427802e-02
9.639642842897208630e-02
2.824819930585198771e-02
4.044232457642717160e-02
4.819117157233072934e-02
-1.328637954063172089e-02
1.712540191267496875e-02
5.549945019012049452e-02
-1.367376923371448755e-02
3.197604830233551076e-02
6.877028081408489979e-02
2.243127585327830964e-02
-3.235783996710858701e-03
1.867908536387436619e-02
3.941294819453888820e-02
7.723114750741613688e-02
4.091112875580609626e-02
-3.195425384718356132e-04
2.018171915646785330e-02
3.181629769625565762e-02
7.246948515801006352e-02
4.009371763962828183e-02
2.554742673413141346e-02
5.516628361053287077e-02
7.099785334452245189e-02
3.763737205726092050e-02
8.249879968590001500e-02
1.057423758739778064e-01
5.028067167156799466e-02
9.948733572839851824e-02
7.397951044513743912e-02
7.521534207544305906e-02
8.859512791500778750e-02
1.179618678844850388e-01
6.886723996559812599e-02
8.937017301223995625e-02
1.183700870053306653e-01
1.255795972919288295e-01
1.770289015558879908e-01
1.581123181764076957e-01
1.541418030222873048e-01
2.201639633646299832e-01
8.833584610774158907e-02
1.554433514792797066e-01
1.473706099557900162e-01
1.083579800268699156e-01
1.885624644436925124e-01
1.416901875124102483e-01
1.379124648950100784e-01
1.990845439231295477e-01
1.643808770158033394e-01
2.213447949593570774e-01
1.766772728893328537e-01
1.990505589026223821e-01
2.405756137832733288e-01
2.356654522992990830e-01
1.834999957652936609e-01
1.670653903636694360e-01
1.914588458392134374e-01
1.909813984311114765e-01
1.662626787191820443e-01
2.189730489861695384e-01
1.423989636359173083e-01
1.644095823299993597e-01
1.593702989401397929e-01
1.372007215050091433e-01
1.356627049993995304e-01
1.307371548085888846e-01
1.676889816576759840e-01
1.609589585670467837e-01
1.184258706395780458e-01
9.493843025695325455e-02
1.658695780057747593e-01
1.929323197919450561e-01
2.022260828713818848e-01
1.751289329060684574e-01
2.921108582210718008e-01
2.847460326739619241e-01
3.486797100555841800e-01
3.970041831624825934e-01
4.843405590817257411e-01
5.439444134431009603e-01
6.285116021544658871e-01
8.206032863034754543e-01
8.507989823774644300e-01
1.024259296385079843e+00
1.081293053894119449e+00
1.269776441304375059e+00
1.315634234922862023e+00
1.360653552217828244e+00
1.392368265644819081e+00
1.428257077302088174e+00
1.481817438922597541e+00
1.408081087834173184e+00
1.452842167774053728e+00
1.315882939703115317e+00
1.308325681480631886e+00
1.152677978384366364e+00
1.055969807219786505e+00
9.652487243374717751e-01
8.393607651438990125e-01
7.036928756234341886e-01
5.942227243992503904e-01
5.109708872984527472e-01
4.022280323264122437e-01
3.500257879222281598e-01
3.110881943965039254e-01
2.095808242107756458e-01
1.820748826988720925e-01
1.770784625201425599e-01
1.176453544318997735e-01
7.579017891978032107e-02
9.069404486865945136e-02
8.875094596561768079e-02
1.761235058050925062e-01
1.281385456560343583e-01
1.117701730022628015e-01
1.082312349718371480e-01
9.017838021805071880e-02
1.117583662370198738e-01
1.328854427951392525e-01
1.555661529135181076e-01
1.138829177957577654e-01
1.411231740440792581e-01
1.742080802272585882e-01
1.418526614830246113e-01
1.334663264451805276e-01
1.839804108524116244e-01
1.916345729702962075e-01
1.648220521641464154e-01
1.527155110021721773e-01
1.502661983381576860e-01
1.944622565520739421e-01
1.928528216488351321e-01
2.457247098516955885e-01
2.145647436581985812e-01
2.920677282981093414e-01
2.550065371164232930e-01
2.219131609274996308e-01
2.501575997454403288e-01
2.969048894408584660e-01
2.910792896527750750e-01
2.516727976038530823e-01
2.292440390533457550e-01
2.723109620227132099e-01
3.597673040446839332e-01
2.890585267140857728e-01
3.219385688516042121e-01
2.798853055686237323e-01
2.925020497478351689e-01
3.060110395109127968e-01
2.751218572516070937e-01
3.162814006055980620e-01
2.812504433677246451e-01
3.325279333751793853e-01
3.317870273524807234e-01
3.429033934146018536e-01
2.891315719384607297e-01
3.314231676524225789e-01
2.784601010195622006e-01
3.254650207680993002e-01
3.024670715943639232e-01
2.894402187809687055e-01
3.169403675453284497e-01
2.518515468661550738e-01
2.761852646605694739e-01
2.926962368556077498e-01
2.150103766455835896e-01
2.402330938307965791e-01
2.402987760008965246e-01
2.113728419560747251e-01
2.309344545120197156e-01
2.848112578893748914e-01
2.486054960915267675e-01
2.046186008017063795e-01
2.387419680970405134e-01
2.419025677815927478e-01
1.716502171199030813e-01
2.024299890757477183e-01
1.903964093514468603e-01
1.782729787667733101e-01
1.776309386489611231e-01
1.869864904729378052e-01
1.459503710486815264e-01
1.595990155065041827e-01
8.763441212517747436e-02
1.285343785829640428e-01
8.057812363978938963e-02
1.213735201059003010e-01
9.033793143060472874e-02
1.208002477520625784e-01
9.114956192476814101e-02
8.972086548233004777e-02
1.101055640609160252e-01
9.124459046802801954e-02
1.037003154400768512e-01
6.092656011123936954e-02
7.803752263951913015e-02
1.074850196419254722e-01
9.051312494269300735e-02
7.676538336384375327e-02
4.439095385058762500e-02
4.085817785950669745e-02
5.526104747014833063e-02
4.226027364357769905e-02
4.774364954252806326e-02
4.995675757064313438e-02
5.300461678883879729e-02
6.882129277592520522e-02
3.239464596115879114e-02
3.840699314407221981e-02
1.943936720592481793e-02
5.828510909594905587e-02
8.569753142665972878e-02
6.459219045908853873e-02
1.015097193689271093e-02
-2.244744646408100563e-03
1.264337872005022456e-01
7.470739788643034063e-02
5.420687855970450497e-02
7.822968002681258970e-02
4.704109812441981120e-02
5.086349639247270127e-02
2.579546827398167264e-02
4.338814735819042367e-02
5.450685262460749914e-02
4.285558091675534254e-02
4.433306480189755372e-02
-1.110269230026245113e-03
7.590047190546622691e-02
6.556801871854399388e-02
1.011970321435289033e-03
2.918316443411994934e-02
1.416370673994471474e-03
8.771123035702507731e-02
9.180663507636249721e-02
5.352198882786488032e-02
4.730156441290867680e-02
7.013531933372080251e-02
7.303707360541321358e-02
9.356767077141527056e-02
8.629682238143773776e-02
6.503615981758535669e-02
4.821555410519390295e-02
3.416834029116545823e-02
7.271717514780909331e-02
3.226210039876788171e-02
5.526281472309357151e-02
3.068292055782933028e-02
6.353086331548740695e-03
5.845746331835506571e-02
7.883094372358556701e-02
2.210390481882911623e-02
3.019221276674734916e-02
6.569581390890925909e-02
4.369915347374136311e-02
6.221542333982342521e-02
6.755035015316605829e-02
1.079233173707974808e-01
9.583587098909196467e-02
9.759613302374461896e-02
9.873370253539559549e-02
8.259360971490813108e-02
1.014438572284509232e-01
1.037117947095065607e-01
2.115528943043034488e-02
9.919871934018238691e-02
1.341376996620053386e-01
1.052113582968119548e-01
7.503765826052562204e-02
1.304078746527865262e-01
7.406053921957464481e-02
1.189880400292767648e-01
1.363380828110143383e-01
1.881887782517108199e-01
1.662712797024563649e-01
1.400931787090278768e-01
1.580245690742200226e-01
1.054593706461244146e-01
1.512507291378495933e-01
1.259646439300237675e-01
2.321694256207492424e-01
1.559457003892469606e-01
1.505572665229037987e-01
1.734397044529587817e-01
2.156799810916083249e-01
1.809589995287823327e-01
1.767978381689421508e-01
1.898115357853099594e-01
2.076256461280805432e-01
1.612030099512513359e-01
2.189312146657704239e-01
2.143889360692528556e-01
2.227206269274748240e-01
1.717370652159018185e-01
1.849215824140260089e-01
2.066896016020384197e-01
2.178177510015434082e-01
2.197494079680731849e-01
1.501301198789143365e-01
1.652144270851130525e-01
1.539261909520207305e-01
1.906168180038162463e-01
1.496119516809673866e-01
1.752828295097051126e-01
1.311050625334278519e-01
9.936277111154066810e-02
1.415423361238840050e-01
1.411352035362133384e-01
1.415194877216974789e-01
1.560521322675233469e-01
1.594114399100224622e-01
2.131193350713831425e-01
2.474468972190448368e-01
3.481669891556511409e-01
3.622829897659506360e-01
4.569589923493815875e-01
5.425558379709789492e-01
6.059742074682561430e-01
7.961307716390968459e-01
8.531009700826354125e-01
9.533065017818915798e-01
1.064148238056322082e+00
1.152436467940922915e+00
1.228068279465880153e+00
1.314467945930203774e+00
1.368925752359541947e+00
1.408711013953879654e+00
1.446016969763671778e+00
1.373407998714277767e+00
1.399549295400499771e+00
1.334226423681649898e+00
1.275589119114223902e+00
1.243662702896009886e+00
1.032629472068245624e+00
9.277061859957687062e-01
8.498302519185885195e-01
8.026216076133999566e-01
5.894310270484638403e-01
5.381202968128501185e-01
4.327551150010433556e-01
3.740079479727642653e-01
2.730902332525255161e-01
2.466142137361493625e-01
2.260103098708043379e-01
1.598281571023388581e-01
1.715740135018508639e-01
1.871679429702545749e-01
1.375473129441186215e-01
1.411877281158355479e-01
1.252374053517324726e-01
8.873807376397721547e-02
3.881308542569981285e-02
7.361099158743485138e-02
1.320071239189787859e-01
6.982982703862095075e-02
1.058756762513839156e-01
1.151391062984642721e-01
8.791482598907793267e-02
1.716946846537212856e-01
1.459061311394884708e-01
1.821326540769445390e-01
1.790907645584082775e-01
1.736874582869631922e-01
1.002666331575070985e-01
1.283201797610355466e-01
1.678775204905934293e-01
1.681128110719689595e-01
1.653894808794773574e-01
1.849537979442937297e-01
2.734096654671219762e-01
1.975475690953057695e-01
1.985855465303906497e-01
2.124011954078066922e-01
2.328820548344674168e-01
2.386039744942905494e-01
2.336565059112488685e-01
2.160100828866949596e-01
2.188777863509645261e-01
2.424503113103865515e-01
2.367752577671027314e-01
2.225886956794790039e-01
2.190724493444910215e-01
2.820294267417822742e-01
2.282344175840983480e-01
2.760625924366191253e-01
3.250827712931712576e-01
2.158865811860329609e-01
2.715850877487686610e-01
2.542901805152570360e-01
2.684134474773614554e-01
2.370241967255329318e-01
2.499461366461100398e-01
3.020561405910645036e-01
3.023391825092117680e-01
2.725751206252504111e-01
2.333843539950890555e-01
2.554698541277677371e-01
3.159776825153032265e-01
2.413043288710828294e-01
3.286897955725259779e-01
2.565079688841221950e-01
2.394405797615471732e-01
2.342092819238702495e-01
2.165135880710960248e-01
2.152177879968770191e-01
2.496343845869697931e-01
2.605031292711872393e-01
1.775681525874669986e-01
2.061934079096719441e-01
1.328942956850598933e-01
1.548735458566087575e-01
1.893571902765012471e-01
1.766728147695522111e-01
1.898114395169660518e-01
1.614386422324632919e-01
1.473254788978803631e-01
8.352031415532112923e-02
1.400776235798954217e-01
1.319919204096757226e-01
8.407921528923104071e-02
1.138897098413912123e-01
1.171168898304649209e-01
1.336577132575967608e-01
1.550582089102759686e-01
5.012186601118641394e-02
4.678858155688944004e-02
4.258865331253541137e-02
8.724447349516276096e-02
3.652270978640391463e-02
6.815603181995880111e-02
7.870489325222092269e-02
1.859800364727722671e-02
6.043353016215766843e-02
6.492979671188392476e-02
2.078359927879316893e-03
2.678360183052870547e-02
1.000795497248170747e-02
3.880489624709836799e-02
6.868132010799266746e-03
1.311393195900600606e-01
4.735015949659073659e-02
2.260075654390348091e-02
3.236107381858938786e-02
1.563056302261208591e-02
1.270115593287633911e-02
8.447020160072349002e-03
1.424453377406372304e-02
2.906641237520382268e-02
-1.280287936663083471e-02
-2.516445431838896726e-02
4.124311392660898190e-02
6.120879004847167709e-02
9.596477313269690529e-03
1.568778347140635521e-02
1.079944942604287549e-02
7.770139616920470130e-03
4.176128038446508262e-02
-4.215378358995110208e-03
3.725119327751254261e-02
-4.924522326839085931e-03
7.318846046431431995e-05
-7.576415437344794467e-03
-3.164895838823305468e-02
1.641965187695350673e-02
