1.277651619145620421e+00
1.271846459678833474e+00
1.223115875606922032e+00
1.134680049595597318e+00
1.083456920022107584e+00
9.624147156927901348e-01
8.766429337337271477e-01
8.455357676039694237e-01
7.645080514680432371e-01
6.135110319214677199e-01
5.487175872696682388e-01
4.282231656936278941e-01
3.666306348779558300e-01
3.148888598819432616e-01
2.608435302921648380e-01
1.850892766566420711e-01
1.846817599982820413e-01
9.430177779254994563e-02
1.520177685185782057e-01
6.479651882723910794e-02
9.633540211023182420e-02
2.635079330963344124e-02
3.189875863412506424e-02
1.543847735201140867e-02
2.664945060104717198e-02
1.033372147162832377e-01
6.047651599263741823e-02
9.244214219663440812e-02
9.540475216791896584e-02
1.021239503497507750e-01
1.236914530855198757e-01
8.644453617193839645e-02
8.643156084995748389e-02
6.055673807468823361e-02
1.133280614567235556e-01
1.150973066742173312e-01
9.201832843735641143e-02
1.088512323687437916e-01
1.114192312345999858e-01
1.037618773014226670e-01
1.944563244721802253e-01
1.731716482636445342e-01
2.078788139660503742e-01
1.948819739021349640e-01
2.079052829677658365e-01
1.280504087051122231e-01
1.664216021694028824e-01
2.272081309303913277e-01
2.236021730889657666e-01
2.299567907603092265e-01
1.803680605737031928e-01
2.315352940271183657e-01
1.804550478882876174e-01
2.182896544583849407e-01
2.416737901179384918e-01
1.993504589989020803e-01
2.358505510247615455e-01
2.269163515429949984e-01
2.296758139374341923e-01
2.273449710250696476e-01
2.094166874395663736e-01
2.152453437514060264e-01
2.498317968636913633e-01
2.025195652631389120e-01
2.242065997176397596e-01
2.477611012736201934e-01
2.381948551247091983e-01
2.126439389395200497e-01
2.468395950583686660e-01
2.455556302184529194e-01
2.489559583427501110e-01
2.172365858950126016e-01
2.538092545043070247e-01
2.002207571871806868e-01
1.682022574923816571e-01
1.683201735965769164e-01
2.001900886419267500e-01
1.571176557022529729e-01
2.126326923674525804e-01
2.057296725163101359e-01
2.164639290368184366e-01
1.803808222311623355e-01
1.093843003260235591e-01
1.486777439039048687e-01
1.405463632383368577e-01
1.507796739382318285e-01
1.275625908121799101e-01
1.543630420617802812e-01
1.084939736500209057e-01
1.149585881355029426e-01
1.086892167290542943e-01
9.899536228359802348e-02
9.058111478785349502e-02
7.326526442174191578e-02
7.914271185296856137e-02
5.377340111639479503e-02
4.580145908830517837e-02
3.613784010669136848e-02
5.208185983662043383e-02
3.043627819383317931e-02
-4.141756726795464000e-03
8.311814834756349468e-02
2.218631908142728801e-02
1.244926579767595756e-02
6.917387597040570296e-03
2.677396291557176261e-03
-1.430252442160238890e-04
-9.082812781474151886e-04
3.700025971262060898e-02
6.111661359026084039e-04
3.868942444425702704e-02
3.488473863365539052e-02
-5.960098451463335251e-02
1.449057101148841509e-02
-3.202848673940509455e-02
2.963119938548632731e-02
-2.135698738285746537e-02
-2.245134857307756054e-02
-1.115402443340042168e-02
6.576230295426869349e-03
-5.240615131314986519e-02
-7.644026106053039560e-03
2.161823615784766450e-02
-1.005641279270142602e-02
-1.497507201228708007e-02
-4.600428533194335368e-02
-1.455894506290490373e-02
-1.233349353168728540e-03
-1.576613683150362294e-02
-1.543940977550302754e-02
-1.352361426412158896e-03
-1.685406344384609081e-02
-4.263488186570753291e-02
-1.349372209087204393e-02
-4.889788839088976546e-02
-1.751053795226713283e-02
-4.624840912217745292e-02
4.998823315818051727e-02
1.687969911846399704e-02
1.718629275937449269e-03
-1.500267871555495056e-02
-2.571582868562425142e-02
-7.446977105256742668e-02
-1.410791842679070575e-02
-5.581523131303872676e-02
-4.181680818859366544e-02
-6.086969399969627270e-02
-9.247006884580638575e-02
-5.304400515573915592e-02
-2.467854307231679561e-02
-1.060400251281774925e-01
-2.605818110454407102e-02
2.976938415974104274e-02
-4.069286142953400243e-02
-1.331325573727525080e-03
-4.930871067182503870e-02
5.750902182666621509e-02
-1.418031221024664695e-02
-2.596382168511540689e-02
-5.013232985796681890e-02
-2.779910029787623083e-02
-2.555117789157444058e-02
-2.765435547368583907e-02
-6.007953956509660964e-02
-3.898074240305061944e-02
1.350445465159076652e-02
-3.323197734715314933e-02
4.593893531213586595e-02
4.780728028290863463e-02
-3.261220626696686997e-02
-2.910766241390979475e-02
-5.726587255769117341e-02
8.872956475426121981e-02
1.369541993024833010e-02
1.392868731815669059e-02
2.540348281963148575e-02
4.817139910484198595e-02
-1.458868342231060822e-02
6.122770608438054402e-02
8.753642887365249703e-02
6.325118455093445280e-02
6.844169465838970123e-02
3.580680508736777679e-02
1.138637836433352979e-01
9.150149315394820460e-02
5.799915088117713752e-02
1.021344065509829924e-01
1.284476085462513961e-01
5.542651869700473272e-02
1.401247469819845992e-01
1.051952614592527868e-01
1.174418169738643269e-01
8.299295475440160441e-02
4.878681758873494589e-02
1.235785523317804724e-01
7.923519154359781602e-02
6.311832394118552236e-02
7.939001415035212839e-02
1.361769391845209509e-01
1.415248685644473481e-01
1.474180597447351249e-01
1.383403331811474679e-01
7.294918066712882676e-02
6.026402148976343215e-02
1.084414186556920956e-01
9.810074526949112694e-02
1.043953665075259829e-01
9.649218102690702847e-02
7.183062623991913476e-02
9.964167256582809329e-02
6.961962241577047961e-02
1.037470277383590322e-01
4.522081137979387655e-02
2.641780323032751066e-02
7.941734926457212629e-02
9.628620848258782894e-02
1.104151198303810477e-01
1.167555082628355667e-01
1.850567716023540921e-01
2.104543903893217049e-01
2.706580667633283199e-01
3.416369517109509313e-01
3.865514981501599334e-01
5.226776923410839659e-01
6.371792427412399373e-01
6.865573783406493380e-01
8.538169644785762458e-01
8.859312435582756828e-01
9.971245987329117044e-01
1.052771111383995484e+00
1.095784594419309199e+00
1.165164393093444772e+00
1.182985864656222130e+00
1.203259777175980316e+00
1.196499281872341225e+00
1.206673094754817877e+00
1.098799071938123539e+00
1.018926333625652658e+00
9.217131067150237111e-01
7.912376930162161592e-01
7.453456112059452243e-01
6.161121778725401343e-01
5.413086111241010023e-01
4.391307591043570602e-01
2.857519324251094339e-01
2.865029484524038716e-01
2.206965941998404734e-01
1.987246793734644412e-01
1.614426849446366496e-01
1.157596490581823401e-01
5.996796953464999386e-02
6.733258954645383876e-02
2.591190748721416970e-02
3.270282240722360845e-02
5.898133644913436391e-02
2.827338234970896980e-02
8.166895500946633191e-02
4.974286064266291579e-02
-3.813661204223016410e-03
1.556077903358253633e-02
1.791785598838003396e-02
2.612620620816455408e-02
4.817413730515707898e-02
1.178628641130551741e-02
3.835526231876475178e-02
4.059931361602485411e-02
5.531085392126843664e-02
1.159316826561964942e-01
5.789060226437690859e-02
4.681169262325413083e-02
1.220443661360074428e-01
1.042392007750206073e-01
1.483090357476099241e-01
8.318769005918197346e-02
1.139715099522124742e-01
1.259835499090275202e-01
1.457148386093237435e-01
1.680608958727886904e-01
1.200612067487544232e-01
1.372136035359767803e-01
1.130052756831732563e-01
1.449200951625302103e-01
2.717940875864738870e-01
1.529266944014820995e-01
1.605777520376153178e-01
2.149026311801428835e-01
2.070355461770028160e-01
1.653345860551245217e-01
1.997598989448929330e-01
2.422587940995583888e-01
2.548791898673616330e-01
2.238054352319052143e-01
1.730486437583081683e-01
1.994117308262972899e-01
1.930737751929597346e-01
2.506521601179926839e-01
1.726530756037066572e-01
1.683340388762170625e-01
1.636802475282367886e-01
1.541678071065029354e-01
1.945037204147340160e-01
1.737005139885915983e-01
1.395572159128203316e-01
1.609191471206602997e-01
1.873669672893852611e-01
1.913673665642188770e-01
1.447627508084407544e-01
1.284036172687290367e-01
1.981488248809994412e-01
1.381003729102842081e-01
2.078386312867186170e-01
1.502732716685838688e-01
7.895437326168786019e-02
1.086906523906507327e-01
1.233298262293886782e-01
1.392253742803282457e-01
7.561846396193147579e-02
1.000357092882831755e-01
7.227715600665081397e-02
1.123097291421700367e-01
4.547755231464259418e-02
7.822890645595981240e-02
5.859881738247746386e-02
7.057456173874454564e-02
4.781804614250684260e-02
1.705419897788235800e-02
3.673394901850710742e-02
-4.090251396872829348e-04
1.345530864635735568e-03
2.419167284097936688e-02
-3.391186053196663941e-02
4.420540524426131573e-02
2.085444422942804577e-02
6.576136636468871144e-02
6.680312364780485734e-02
-3.466123397102127690e-02
1.652660826387864629e-02
-3.154888904582368869e-03
2.050140372482078810e-02
-2.559472861188490794e-02
-2.782208029216142950e-02
-2.452554028058603203e-02
-1.760042031205918261e-02
-2.945693821105778085e-02
-1.255980173260896893e-02
-4.833432822939501966e-02
-7.939775568515550219e-02
-4.908713649588206801e-02
-5.212211493206630325e-02
2.904240928177867498e-02
-4.018739312416891307e-02
-1.671742128229283114e-02
-4.653984358661719667e-02
-7.791274373395085107e-02
-7.412113806517822701e-02
-3.472205155114854030e-02
-1.990732434361824552e-02
-2.577650643573092815e-02
-3.804778911018535936e-02
-2.937847247588363381e-02
-3.288209376238428183e-02
-3.646595089163858633e-02
-3.224141266691177982e-02
-3.973292496527928985e-02
-6.345720189736422934e-02
-4.769880102707919900e-02
1.563512668889791013e-02
-3.523669841121443436e-02
-1.387105618738318502e-02
-6.304389576746362300e-02
-5.363242000694246059e-02
-7.862131465234431515e-02
-6.825516873012679731e-02
-2.927857858042259842e-02
-8.294969756847855868e-02
5.273789299019109034e-03
-4.374999664738540850e-02
3.149697181994183526e-03
-1.130078312903755322e-02
-4.226778799458987684e-02
-7.510988212050660751e-02
-6.072754895101967892e-02
-4.812408521452365279e-02
-5.098910428359472446e-02
-4.040816106192525459e-02
1.145999157535741025e-02
-6.105602330704812397e-02
-7.440244859353380147e-02
-3.003377321370551134e-02
-3.373348169165904520e-02
-7.200108395726298460e-02
-8.577128355539968829e-03
-9.216761108404283864e-02
-7.472573194806382546e-03
-1.356129285860221967e-03
2.769422075099656211e-02
-4.225249491937408536e-02
-2.660028782051714058e-02
-2.235295414078134618e-02
-4.225702146167589768e-02
-1.505401204219500993e-02
-5.924709176787418263e-03
-2.627820811087797082e-03
1.713232163646791900e-02
1.636844891101252308e-02
-2.399582500785056582e-03
-4.068798433134920151e-02
5.806001281727744129e-02
-1.934158981778128644e-02
3.126506218481216182e-02
-1.605690757290922921e-02
1.881310668512863049e-02
4.399635696943862001e-02
5.345163998404167671e-02
1.923708126482730901e-02
1.049764118827006543e-01
4.982974503853755677e-02
1.026208550116727430e-01
6.190198887259013016e-02
7.086909969414816046e-02
1.487631783677840214e-01
9.402898385842120565e-02
3.782039390115961297e-02
9.961831741526704087e-02
9.750282745274617413e-02
8.853252878441042473e-02
6.576751746789022413e-02
8.394702629917855097e-02
1.556902718246434836e-01
8.625421369477420663e-02
1.114267244307232535e-01
8.425982616507951550e-02
6.376932765333767628e-02
8.012598344405510997e-02
1.176503739794204223e-01
1.212330672924535613e-01
7.209151935916857656e-02
6.720527680002526261e-02
1.444164623996115893e-01
8.710910847076594465e-02
9.962102342541481748e-02
8.434562634351885912e-02
1.076212668943253153e-01
5.995770996168332118e-02
7.065846576392145750e-02
5.722546559562464302e-02
3.830707902419527161e-02
7.521921210474491470e-02
4.354210245967422843e-02
1.055311378801573330e-01
1.767711346525517035e-01
2.462106284008589718e-01
2.237147981722428791e-01
3.438820067059126795e-01
3.850866133209912556e-01
4.698477319828316956e-01
5.931003154855515325e-01
6.739094410791157674e-01
7.171503722589392948e-01
8.453109416389810171e-01
9.331635126696411486e-01
1.053272918712891970e+00
1.131511840173963890e+00
1.176084537334868951e+00
1.190750691822891172e+00
1.181704081496663949e+00
1.185912299081585131e+00
1.177343256011481376e+00
1.140288903894222106e+00
1.058903617838824029e+00
1.027001675770864431e+00
9.239935821622471401e-01
8.558224052378683444e-01
6.685813350076446060e-01
6.309147475889909096e-01
5.476790460459191046e-01
3.988232752408029658e-01
3.561031912327506932e-01
2.784333931060716805e-01
2.133969886453475073e-01
1.373871464077928706e-01
1.174540076299655789e-01
7.693900091927377560e-02
1.009148570594154415e-01
9.980339914888389230e-02
1.535926846519633515e-02
5.859197342535145403e-02
3.412752674895607602e-02
3.882672605284905043e-02
1.707799486850673787e-02
8.303296497350606820e-03
7.733221672920703726e-02
2.245039230767416349e-02
6.653085674907729952e-02
6.863618087043621419e-02
4.750894672758526616e-02
7.592592810213111276e-02
5.155325981939658936e-02
8.316078991719833002e-02
2.397904683899530071e-02
6.595786140157333666e-02
9.098987519925846867e-02
4.939819560901728690e-02
6.822198604645979270e-02
6.287084201073764311e-02
1.335635592686127138e-01
8.415961520104919824e-02
9.756777678628046624e-02
1.215829624472791470e-01
1.679312412741654215e-01
6.508543404060518345e-02
1.428725420567170390e-01
1.955209131965314207e-01
1.423303787079288063e-01
1.841264300703350787e-01
1.965958100730370028e-01
1.395011506367156429e-01
1.815119791902868041e-01
1.770466706672878254e-01
2.053661735976513025e-01
2.203712440867502953e-01
2.168900545004805447e-01
2.288980812444700585e-01
1.883358002163793288e-01
2.075871371044022973e-01
2.389351688004342500e-01
2.338814466535459879e-01
1.699236537980824968e-01
2.289052617375902932e-01
1.794135203506330434e-01
1.830194272552073953e-01
2.493988779066642902e-01
2.406255202795356263e-01
1.935855129238442662e-01
2.156384209942088792e-01
2.228560036101674413e-01
1.797802438785366663e-01
1.340185285469223664e-01
2.064953244004568422e-01
2.375769766641265268e-01
1.689839093434938877e-01
1.817438262781423952e-01
2.094012347135673913e-01
2.144271596616009190e-01
1.781582573582381757e-01
1.456317073596170020e-01
1.581343899583304846e-01
1.374186782681967867e-01
1.303531992787738958e-01
1.523485296988764670e-01
1.404682926150031819e-01
1.346442185130553582e-01
1.070999497275729184e-01
1.526825409661941024e-01
7.865333474307886763e-02
4.341212924984168969e-02
7.101928862859765990e-02
9.549948865782209584e-02
7.220143855956714929e-02
4.110811666491449856e-02
1.060462395787384743e-01
1.555453032814631265e-03
5.136352939551944163e-02
4.883562482608558297e-02
1.165102899421943949e-01
6.946229070821116625e-02
5.327927201608862601e-02
9.991008207078420911e-02
5.053333326713572993e-02
5.303906285639801987e-02
7.884112764174965038e-03
5.919113447651284943e-02
-1.294076480231731371e-02
-5.068687580084742933e-03
6.007924677847942263e-02
7.258405682001700665e-03
1.173753431253349300e-02
5.912056349040406555e-02
-1.768045445641742985e-02
2.342767546085623709e-03
-4.421278543181372811e-02
2.186797137107437602e-02
2.083033395629743656e-02
5.522074256135656167e-03
-2.921904299326917587e-02
7.142785558028792031e-03
-2.999362672109940134e-02
-5.023755204738312996e-02
2.074996363278146932e-02
-4.508769438143106142e-03
-2.125247410151298935e-02
8.011666429198371908e-03
-4.835385028193429219e-02
1.725142304474783922e-02
7.172226920814600212e-03
-5.647380330418801109e-02
2.499582414543380718e-02
5.993240356573756311e-02
3.154304445950713298e-02
2.755262079756578414e-02
-1.435695196948273515e-02
-6.763352134692716955e-02
-1.497507989831872895e-02
-1.603616880875441755e-02
-1.786672107361203521e-02
-2.541324610989074972e-02
-1.014715260780174599e-03
-2.930067176063858372e-02
-3.505222144869685197e-02
-1.654425643409743879e-02
-1.306682938050440779e-02
-2.489673525489024403e-02
3.089796004103583654e-02
5.545788871826193983e-03
1.369769529448411349e-02
2.069022847753475974e-02
-2.014207919492056603e-02
4.623406546730896710e-02
1.678462153204315216e-02
1.063878641832957314e-02
-3.957203792780521201e-02
-3.087596104041089029e-02
1.399131374202928872e-02
-3.204238236203195422e-02
-1.371916856881442992e-02
7.187817871568824915e-03
-6.159566611784961232e-03
2.912106173869636466e-02
3.704427099129673634e-02
-2.051381025777562414e-02
9.796786942767726769e-04
7.775942159391085497e-03
1.301998908581593686e-02
3.359462215188228212e-02
-4.909953800559883896e-02
3.031867710684283540e-02
-3.771498958535882823e-02
5.647898173615469031e-02
3.132103913674515877e-02
5.543329984921197690e-02
4.837930847114628452e-02
8.983187748322538080e-02
4.626282743766536865e-02
6.579872474371466218e-02
9.799632749364114992e-02
1.490128664888880350e-01
7.031161473884153801e-02
1.324716004230410693e-01
6.833929039634237257e-02
8.842115258997768068e-02
1.659806702344625573e-01
1.283432328692484803e-01
1.286613800222452531e-01
1.211875030712115803e-01
1.202848308928854970e-01
1.261927803668910775e-01
1.801598845589656717e-01
1.171461733190644477e-01
1.147401582011237237e-01
1.247554017377547481e-01
1.412267935140373021e-01
9.212984308542084000e-02
1.194306742739433408e-01
1.596087123535240848e-01
1.591662865670202265e-01
1.845836233324517350e-01
1.508597638894239312e-01
1.587030414149893653e-01
1.737208325952873111e-01
1.206092028102155878e-01
1.589741819888272900e-01
1.396456994029758314e-01
1.133658960881608474e-01
1.397603907787274558e-01
6.930015993669404184e-02
1.079716506394906017e-01
1.071464225721696084e-01
1.411422741058157015e-01
1.201337617985304002e-01
1.409058293801615236e-01
1.707315962101327300e-01
1.626148274944669292e-01
1.407358617294264258e-01
2.315201392691935700e-01
2.412664873152755296e-01
3.343008176588113667e-01
4.013994712347211391e-01
5.106342212630584632e-01
5.571042374273504905e-01
6.415944853515722635e-01
7.257105284142194579e-01
8.477767352989361571e-01
9.720195923111437653e-01
9.948562536487663976e-01
1.124454922720827810e+00
1.162035931733560901e+00
1.217637578980426127e+00
1.230306083901447023e+00
1.231392050595036425e+00
1.255239073150428153e+00
1.219220003908356276e+00
1.156630566644489377e+00
1.103664390580712862e+00
9.687246659560004858e-01
9.230189382735177750e-01
8.349541810463096958e-01
6.982022915812898800e-01
6.274635430509419853e-01
5.562467005416995569e-01
4.235682588084623279e-01
3.902929892870254380e-01
3.031973489646610509e-01
2.672747292556146848e-01
2.059787585021720657e-01
1.338991316575242063e-01
1.283731482323190454e-01
1.168676856713020407e-01
5.725110139232031381e-02
1.588405842525066891e-01
7.731213200614271697e-02
8.327246768745347194e-02
7.225009221773151524e-02
5.551209036892286453e-02
9.221006310052208554e-02
9.209303293301890347e-02
2.228352497495523360e-02
8.906639459929457936e-02
1.082312724488428968e-01
8.189296362726770917e-02
6.835500749744066740e-02
1.498809891943010952e-01
1.204487436069612838e-01
7.817022721106070549e-02
1.510883780239276331e-01
1.108959048611991710e-01
1.991254973129677197e-01
1.440177071777392626e-01
1.060972545503464093e-01
2.104828120325650809e-01
1.793344885426766955e-01
1.674520444518788620e-01
1.978259680862665404e-01
2.154672001389580371e-01
2.642184374780102707e-01
1.955965617609677354e-01
1.932709129075359245e-01
3.101808981877980376e-01
1.950366715894704950e-01
2.328811089238666254e-01
2.242037639224513101e-01
2.205131186142381683e-01
2.392486938678791142e-01
2.305814121285146567e-01
2.721375803562928741e-01
2.635193487811365864e-01
2.570649783514167286e-01
2.824322927362614144e-01
2.152305931380460169e-01
2.731088028105250753e-01
2.638259899870813996e-01
2.724882680144906644e-01
2.896127248478003180e-01
2.820238049984156170e-01
3.079991341627513757e-01
2.649044569891707002e-01
2.691607729018757333e-01
2.785723647556271887e-01
2.178268864247879522e-01
3.037610118015162119e-01
2.756258218673303118e-01
2.399431969581739543e-01
2.426040379308690709e-01
2.747210972589540501e-01
2.223590288451079422e-01
2.656826957919447008e-01
2.644604548659387766e-01
2.099061420025630786e-01
1.923222501020240838e-01
2.453480776795806950e-01
2.269229984250787369e-01
2.023825452354038879e-01
2.006018175639637524e-01
1.784528804966131754e-01
1.852762557828633583e-01
2.030894335994749000e-01
1.993151648827843347e-01
1.896662479850343419e-01
1.503185377984293247e-01
1.144095481821761073e-01
2.105136000710653432e-01
1.024028088170706730e-01
1.384846533825078718e-01
1.260886571727717897e-01
1.749843686277008648e-01
1.560797463298093379e-01
4.293736825451791028e-02
5.249822660582689760e-02
1.408933934372838814e-01
1.197898762231726644e-01
6.891738096623498122e-02
9.557642753585426920e-02
7.438717437370945262e-02
7.139752153534839607e-02
9.060589002912169954e-02
8.797163922363268607e-02
6.148530977653304808e-02
5.372745107881828075e-02
4.918590890947766026e-02
4.551912447877830281e-02
2.444672455039791775e-02
8.780088592453802465e-02
1.374744603985416924e-01
5.058944239926441155e-02
4.960780014839892560e-02
1.383906965750310303e-01
2.788407162669377659e-03
2.911978326344939749e-02
5.773607088770396634e-02
4.119825006235421083e-02
2.471860449054542885e-02
1.062579995478649120e-01
7.260832523269644678e-02
5.755718370120155997e-02
7.311794391352186007e-02
5.286006017569566673e-02
6.843656296077982315e-02
6.562843444654428704e-02
-1.428336710327597625e-02
4.073763471343021941e-02
4.060900829001593687e-02
1.185620669128062410e-02
2.188054653270650116e-02
3.378706508794478147e-02
3.766874847132678505e-02
8.841221481758923528e-02
6.979190565693550730e-02
3.287618484572350092e-02
7.550903173688790215e-02
3.140472316587990254e-02
-2.269827986904578154e-02
3.431739114759795040e-02
7.718371424617395671e-02
9.578389840231277264e-02
4.654452574577317564e-02
3.608783069637026136e-02
4.072035938714268360e-02
2.806709033702788764e-02
3.862555456460387004e-02
1.422419257721914757e-02
6.178739112768415198e-03
3.811620073085800198e-02
3.792951798207146175e-02
1.045619735820964291e-02
4.830228016947645669e-02
5.529213325043753902e-02
6.895219301192684336e-02
-2.148718332468389780e-02
6.054649985480108076e-02
8.173306128131488379e-02
7.321872422703978867e-02
7.255196520378121017e-02
5.238539225743760880e-02
3.952627960098218513e-02
6.594507565272189620e-02
8.185769607331781772e-02
8.571306552945394397e-02
1.171325272814384422e-01
6.005097815864524763e-02
8.071699828691647483e-02
8.722699451371795920e-02
5.778332701361946905e-02
7.732027951857534109e-02
9.259178784705135445e-02
1.003481976446759794e-01
9.355411974813088172e-02
1.513958822853246622e-01
1.308873037958138419e-01
1.497506580149336464e-01
1.239275045766760897e-01
1.106818906880475406e-01
1.634899587488901351e-01
6.412940895251667550e-02
1.681858089832575787e-01
9.620534934431373975e-02
1.971369613028151058e-01
1.191517841232810626e-01
1.524516838655066153e-01
2.071033987881611138e-01
1.474414278281006574e-01
1.913050401377435206e-01
2.385686433875011669e-01
2.349498938828780414e-01
2.070352710218176795e-01
2.388186353633869607e-01
2.073242886847608546e-01
1.715232815458435089e-01
1.471920605446881136e-01
1.924829826033502278e-01
1.902440980970713791e-01
2.325537253715729835e-01
1.880405581132963411e-01
2.063543349143520389e-01
1.888381507451548369e-01
1.714802207626830999e-01
1.233722446745665058e-01
1.261416904764115776e-01
1.692053611384793099e-01
1.607086013678966641e-01
1.052841489127107344e-01
1.344153196705970554e-01
1.091631830418913762e-01
1.966723156065815492e-01
1.765187384923664338e-01
2.139719829731416834e-01
1.760918589188429639e-01
2.341577752839931192e-01
2.673367687242808599e-01
3.201330705039345803e-01
4.401178451838082539e-01
4.815018804458857105e-01
5.579994784339206149e-01
6.179312501680748193e-01
7.084917869189957251e-01
8.338629410179073664e-01
9.796642849739338743e-01
1.003810448738091665e+00
1.052963411573938135e+00
1.163529430231931450e+00
1.239701172060409196e+00
1.309260044771439313e+00
1.315262652971497914e+00
1.305550561140375931e+00
1.256322927847913551e+00
1.244205875947995699e+00
1.126065373275874748e+00
1.119809105369551361e+00
9.709532964166515123e-01
9.187824533206226940e-01
8.112401921672395266e-01
7.514738722433771390e-01
6.017032109286065689e-01
4.792937533362665592e-01
4.550055862261067063e-01
4.043044127400259868e-01
3.622706347591715947e-01
2.589799006484376775e-01
2.565239056193195921e-01
1.979064008971383459e-01
1.809267146104734936e-01
1.579374765379233381e-01
8.296068931674741020e-02
8.573282386816427625e-02
8.823736837687501389e-02
9.732973672939804199e-02
9.464156266031258091e-02
1.096840261146953405e-01
1.140062072723934394e-01
1.117697714675434661e-01
1.670791156542677514e-01
1.586050940519987962e-01
1.241834864933192284e-01
1.752930213735134635e-01
2.237430404504416603e-01
1.577024857407522407e-01
1.302237716810424328e-01
1.513461462837234761e-01
1.924781769640250273e-01
1.562125149879898256e-01
1.620022088839172536e-01
1.862254274047700220e-01
2.264082527591846916e-01
2.207464538500856499e-01
2.524016525694528501e-01
1.786461211623528444e-01
2.109726038591302755e-01
2.054097289773026414e-01
2.118761825905514096e-01
2.391335912618786641e-01
2.622182709287634306e-01
2.382637961799800586e-01
2.804402615667256349e-01
2.261536754486608014e-01
2.988262220678007397e-01
2.578828628993430905e-01
3.146660575097842694e-01
3.185809198885786175e-01
2.536725944424994550e-01
2.875778789342112729e-01
2.823907604688795647e-01
2.808723370463949709e-01
3.131589216486237448e-01
3.037471521428606880e-01
2.822754701302694902e-01
2.837120542034269333e-01
3.316119607839479455e-01
2.522418844994631648e-01
2.850309669779789168e-01
3.222968017975934574e-01
2.717454706750038196e-01
2.921855086855702499e-01
2.882801668920191851e-01
2.796959334843173717e-01
2.763267395575109697e-01
2.304605560263042752e-01
2.549993960012179595e-01
2.563825155712876613e-01
3.148518718858982490e-01
2.293472391543998068e-01
1.666767704759556656e-01
2.916178200992978753e-01
2.508189965851821968e-01
2.307043142717246642e-01
2.138319351950447311e-01
1.758463004671250440e-01
2.547574973510319252e-01
1.952360198405746483e-01
1.741170278608249189e-01
2.549573429931448754e-01
1.823229207169957122e-01
1.989473678007188107e-01
2.312980883823851919e-01
1.677340016363071673e-01
1.534898896704550153e-01
1.336118901183332985e-01
1.419674141063277106e-01
1.712141154926513087e-01
1.208245428221415840e-01
1.511680777596059178e-01
1.112148229406469124e-01
1.347668815273908305e-01
1.449721989862866600e-01
9.891435906256909605e-02
1.578281877935948929e-01
1.354114418890474125e-01
8.993034533427045341e-02
7.262305682942317431e-02
1.697297510447403485e-02
1.120033089579564739e-01
1.004719994403075328e-01
7.156339272732502310e-02
6.662875468229502440e-03
2.230138396366943693e-02
2.483047537990946615e-02
7.851877970661327866e-02
5.640773645863746133e-02
8.220969273104418440e-02
2.592249759871620776e-02
5.569189743358235467e-02
6.723481166108188911e-02
1.009934496002374282e-01
4.960763830413410236e-02
6.237946158891902182e-02
9.698975337006573993e-03
2.136295972744469557e-02
5.593412738016662056e-02
8.504566266645519068e-02
2.855022730397273681e-02
2.677132411698232226e-02
-4.317992967864926757e-03
-1.050904294156997099e-02
-2.613484481703884366e-02
7.084150804439778848e-02
3.547443252251897966e-02
5.326301841754940009e-02
3.040498662522378090e-02
6.379175301519379726e-02
6.282576120249913632e-02
3.983795802734840796e-02
4.356636191556281790e-03
8.564428400137819031e-02
4.099625659580705128e-03
2.188361611786857411e-02
4.096563046720808760e-02
1.157985487346446102e-02
6.489053649312193084e-02
4.094606835666093902e-02
5.898730013130693700e-02
4.831922242313858862e-03
7.547101052201019011e-02
4.629662419677780388e-02
6.602794934026179341e-02
6.286789227339585617e-02
2.509186589025052400e-02
8.223242798671995257e-02
3.031228398428144344e-02
4.711293704726542131e-02
7.472073941512333284e-02
-2.565427466101995180e-02
6.236955274006968086e-02
7.183270079549418374e-02
3.157361702627938665e-02
6.341439155914110892e-02
1.097337492105531775e-01
4.394761814969886521e-02
6.697316162322247690e-02
1.924299929187194697e-02
8.177303117237483265e-02
8.153990211723172177e-02
9.952324446447122219e-02
2.030053526116715190e-02
9.073789765787373951e-02
1.146476438141024734e-01
9.838405464138977319e-02
8.719741027824558233e-02
3.183434434643685196e-02
6.812911868467713683e-02
7.658374123817576762e-02
1.422862860324723699e-01
6.264638846738145028e-02
1.875560283432793074e-01
1.082926075004996408e-01
1.399357077048359599e-01
1.476709656829894302e-01
1.166738818770767100e-01
1.367603050030715417e-01
9.803065595679971711e-02
1.897986153724735836e-01
1.841402622953967616e-01
1.477926048482152699e-01
1.982818801008681131e-01
1.750393228646550114e-01
1.195788289057057585e-01
2.145712958261342396e-01
1.891495896551707578e-01
2.100580994920945854e-01
1.880751773946484073e-01
1.743385904982289181e-01
1.789040353415552731e-01
1.462073974731150083e-01
1.949393903930091709e-01
1.850738954747503662e-01
1.715275129803483511e-01
1.491475553789619324e-01
1.281377844809071798e-01
1.881018094827086595e-01
1.060114327509745491e-01
1.776844769431478177e-01
8.609229107751964483e-02
1.267505413940692438e-01
1.573234501362505144e-01
1.649530951379431787e-01
1.267238447597214546e-01
1.590233083090684674e-01
1.056896152696093771e-01
1.251856181766056730e-01
1.757761761269303613e-01
1.691514898609985662e-01
1.863704507267570365e-01
2.332632022926334758e-01
2.723477945458596672e-01
3.289678380590218554e-01
4.446848129875206057e-01
5.060733653886960726e-01
5.807440215816432882e-01
6.434531860928142111e-01
7.469345626687826645e-01
8.058257251594125314e-01
9.887674051928784236e-01
1.000648126037599450e+00
1.148381323412950072e+00
1.171010120156014356e+00
1.268911993970142316e+00
1.250093078334847174e+00
1.298885761854358556e+00
1.313009181495379263e+00
1.283208862599792388e+00
1.199558357235071648e+00
1.126207677343306290e+00
1.061653706039783485e+00
9.892130031488266528e-01
8.824774076479970919e-01
7.691532736512006752e-01
6.987916765506894112e-01
5.284977188628767752e-01
4.981728099364257090e-01
3.819203899924864531e-01
3.881148441643931246e-01
3.023894213041691814e-01
1.830916805215063170e-01
1.474996931703541347e-01
1.143820912502388765e-01
1.474952616058387289e-01
1.392226468699132857e-01
4.461574102253934582e-02
7.633936665239302033e-02
7.562098050463467169e-02
9.668432794997139368e-02
7.764009860516429828e-02
9.550714010014910160e-02
5.788452636471853874e-02
5.217509422411031883e-02
7.530102338201036249e-02
1.012282216218585024e-01
1.108758662545260426e-01
6.263849675143098872e-02
9.350133955129118213e-02
1.363148231885872863e-01
1.725906013805019734e-01
1.076138950172903508e-01
1.696833060709129204e-01
1.133861561798343437e-01
2.044856923068443799e-01
1.168806871753104992e-01
1.121774692707611792e-01
1.696568511712029381e-01
1.383615308502972041e-01
1.921867877468443342e-01
1.664859138371125036e-01
2.213241692783831094e-01
2.010402086748241390e-01
1.866230214293599921e-01
2.278123659779424104e-01
1.971077672406313097e-01
2.266433540445881301e-01
2.152662225575349420e-01
2.607034349107197335e-01
2.054161036642596361e-01
1.985727353969840847e-01
2.682757334247947156e-01
2.124325889187428373e-01
2.604475557502238803e-01
2.902788038370246460e-01
2.817822410082581608e-01
2.546411190821261106e-01
2.926197611576485391e-01
2.622944287103842753e-01
2.285435637961767408e-01
3.206537015089647724e-01
2.407164737096881002e-01
2.674814587570346069e-01
2.588564835571080525e-01
2.138115407978179172e-01
2.789473365957677586e-01
2.378734744498624820e-01
2.709036929351423262e-01
2.091476609911833151e-01
2.111072112749249607e-01
2.417823803961031137e-01
2.575177523582846129e-01
2.379104730354409114e-01
1.599622002664622122e-01
2.339609577729451217e-01
1.858651091748486361e-01
1.554421843668798153e-01
2.203042341778316815e-01
1.636988378573685232e-01
2.039225087788648916e-01
1.742049668300293674e-01
1.641724291495176014e-01
1.838234473792011991e-01
1.181833777077914843e-01
1.727558449135131458e-01
8.409971079508968272e-02
1.315886650959487980e-01
1.674737259304329151e-01
1.405600207192096440e-01
1.068560973133337311e-01
1.468934510071346622e-01
7.259510640470823173e-02
9.821714306996109922e-02
7.615766116661817908e-02
7.976688865109610171e-02
9.684272647570314752e-02
7.197940744862063589e-02
3.792807993235969982e-02
-1.855704733433097969e-02
8.974738423200000204e-02
7.215402879466914499e-02
6.174964589366879059e-02
5.347712521054202861e-02
3.324357713999519931e-02
-5.334986947772366993e-04
3.939995066286979680e-02
2.862513023517459718e-02
6.425776849852708750e-02
2.012795544561562719e-02
4.554041478914176710e-02
1.292669126074722126e-02
2.612695027099138853e-02
-1.901163413788962975e-02
-3.639414459496482374e-02
2.568969992956829547e-03
3.384442247363183415e-02
1.333058829886915077e-02
-4.644772596455527466e-03
-1.531424078270944220e-02
-4.559749823371261196e-02
1.938518279660018245e-02
-1.592329011819436022e-02
-7.063425951613414022e-02
-2.083820373803099268e-03
2.200514224870712271e-02
7.430745359790988380e-02
3.817360148665140812e-02
9.549068081102653205e-03
-6.770333469602842630e-03
1.030029978579237275e-02
-1.185089131876857285e-02
-2.870070370373210486e-02
-3.776345024390810601e-02
-6.957199812724865207e-02
9.218642720581413097e-04
1.701911232050003740e-03
3.223948881015265000e-02
-7.767803358276542669e-02
2.547324093185311319e-02
1.576431984385754867e-03
3.077442552041360913e-02
3.910615056039441761e-02
-6.160602776500208322e-02
7.630510621386346962e-03
2.157033980503299253e-04
1.547199713404408955e-02
4.134093855155046571e-02
-1.180755857898782915e-02
-2.604604197277225058e-02
-1.787111177752358920e-02
-5.565959289649896613e-02
6.007779173403436646e-02
4.435554713095485324e-02
-1.177177035316862540e-02
2.709728573521676120e-03
-3.431030412102901994e-02
-2.159656122568622688e-02
2.587687581827320324e-02
1.257874497779324502e-02
1.334757272525735443e-02
1.068952658991597152e-03
2.883211023807309703e-02
-4.889596289192735257e-02
2.170046174889798257e-02
7.160436659025926076e-02
4.392734829559925142e-02
-2.232516267095733392e-02
3.642522890440800382e-02
1.802525035661937947e-02
8.046465113098334732e-02
4.182336253429885103e-02
1.101164654478452160e-01
1.158211882067961968e-01
7.026908297707162854e-02
6.694275860329879091e-02
1.080065193297618242e-01
5.222476305470502567e-02
9.069641668525602052e-02
7.694529914177702934e-02
7.460176942641683073e-02
1.230651663203654878e-01
1.038961180764107900e-01
1.696265862220980858e-01
9.272317170953843501e-02
8.481176373407359192e-02
1.182968577117216175e-01
1.384628971349345372e-01
1.201117605361991941e-01
1.471977875244801504e-01
1.033623018675559613e-01
1.539878131845355547e-01
1.011576462393983383e-01
8.498836091958422712e-02
7.612964964171453630e-02
1.710813449311748558e-01
1.435189965225161235e-01
1.401143284027620284e-01
1.088925074756714323e-01
1.391334282001284173e-01
8.735035315283978807e-02
8.095412656497667780e-02
1.054609463941419967e-01
1.090975687525585214e-01
6.805545176642488481e-02
1.188335610494611200e-01
5.222731530016760937e-02
8.304245451220841623e-02
1.012939071589566420e-01
2.813756009592054824e-02
8.340039407458775533e-02
1.183713632599191490e-01
1.225543269865473073e-01
1.453981086536132172e-01
1.347196952005885739e-01
1.868603474529022535e-01
2.742785589103534649e-01
3.520858180428506068e-01
3.346293116165519055e-01
4.373183833971742152e-01
4.795773617663602884e-01
6.250479594458010490e-01
7.261866779493084678e-01
8.136975459063728877e-01
9.328724287912562030e-01
9.396933444775276145e-01
1.074449977506358067e+00
1.161824884097645283e+00
1.245673395416365015e+00
1.221571796983029756e+00
1.237698526265225141e+00
1.158527572337465283e+00
1.134166096919728917e+00
1.164493848274146259e+00
1.051199924277670839e+00
9.586428202936044807e-01
8.560235630840670185e-01
7.750371853355361162e-01
6.248369499818104966e-01
6.060729959246012877e-01
4.850592390278798960e-01
3.448910117606208692e-01
3.286843826309341354e-01
2.312972192911405267e-01
2.430493385402877071e-01
1.339725765371567734e-01
1.151353062837825042e-01
9.134364377680953551e-02
9.162171567858547194e-02
1.049578152693339816e-01
4.797256167269828286e-02
5.695631936307266746e-02
1.022009366496725441e-02
2.758408659974534438e-02
4.248609650320019776e-02
3.014862847586599615e-02
6.342028191039733587e-02
2.115745151608885988e-02
4.241109407886230892e-02
2.259266303967149420e-02
8.078457330151553317e-02
7.122256874358512402e-02
1.001496429828312718e-01
5.844047277400376411e-02
1.593179552346110361e-01
9.443896225326631200e-02
1.110098682570265227e-01
1.264504775145402771e-01
1.043870824778738715e-01
1.117867054592378701e-01
1.145561650829418354e-01
1.484788300180578946e-01
1.192081283036987016e-01
1.449666906133018629e-01
1.684853455900493235e-01
1.690044980650558526e-01
8.372674693664772239e-02
1.635968066611016847e-01
1.435032728486210218e-01
1.660368126375435516e-01
2.075885290263154159e-01
2.538874658558644137e-01
1.607847262271964173e-01
1.706965530356746030e-01
2.003883390350310045e-01
2.057758174889735558e-01
1.731832423172391389e-01
2.269173247978296670e-01
1.810194210709399898e-01
1.627586472534575113e-01
1.770967815457265004e-01
2.345655033316052240e-01
2.047879881330510465e-01
1.456694520174833529e-01
2.233759725017235853e-01
2.118204754637791898e-01
2.417218320032410162e-01
2.084375162700934925e-01
2.089199722609686449e-01
1.892695998904954102e-01
1.802694809389842334e-01
1.619761416651215868e-01
1.521800597570008851e-01
1.933773511453523164e-01
1.472699982914486283e-01
1.648898685205610892e-01
2.152824505543201594e-01
1.845994891084969947e-01
1.651956029307588558e-01
1.602994260360192103e-01
1.226051422714243971e-01
1.099956993987944165e-01
1.531626968741022776e-01
1.442555965388588324e-01
6.103352050329883399e-02
1.068871583814096082e-01
7.861510601533015785e-02
7.850347029221896311e-02
5.707510911093146427e-02
1.086152524566532940e-01
3.509256745870981131e-02
1.247326801085313353e-02
4.486425481241841651e-02
1.127765520164075164e-01
8.090580414838299816e-02
8.786510201556133048e-02
7.115587154873594111e-02
2.431403823139451081e-02
2.470560415182688346e-02
1.313056456008349082e-02
-2.230388506294736506e-02
-2.064305119164030339e-02
2.912281259825451329e-02
-1.734080120950067666e-02
2.181626537334092897e-03
-3.558626668830804085e-02
-1.800197606133056849e-02
5.563820860028982629e-03
-6.355490981420615360e-02
-1.729925753664783572e-02
-1.293393496859258918e-03
-2.253575754421025326e-02
-5.271653279105087408e-02
-2.483621755130935305e-02
-6.902082554185143271e-02
-3.526680440078099055e-02
-6.026885012984214279e-02
-5.483829658288038450e-02
2.148228231064679139e-02
-1.165775434996366156e-03
-2.344828553675211424e-02
-2.686303622330777491e-02
-2.627273372533860812e-02
-4.103179188335536604e-02
-4.784348928008282098e-02
-5.969875723475926571e-02
-4.053978774453596140e-02
-7.936748755947672929e-02
-3.977187430820559866e-02
-7.803285476121683828e-03
-2.603796996123038457e-02
-4.089997528125170062e-02
-9.287367722322126262e-02
-6.057954873051440980e-02
2.459668066100746675e-02
-4.069181370041308199e-02
-7.399118281027257382e-02
-4.383909189840399373e-02
-3.766850103900075408e-02
-4.713921339211438188e-02
-4.041263533164999450e-02
-7.076354997951016246e-02
5.210163138755483092e-03
-5.383537493859665013e-02
-4.870626338808288491e-02
-5.833844608318434349e-02
-9.551084505998105878e-04
-5.750412235279227235e-02
-7.150510371342715110e-02
-2.566392739542942142e-02
-7.579252470577881040e-02
-8.900625843587864350e-02
-5.536607347394176259e-02
-5.188444554790949681e-02
-4.607367418098369527e-03
-8.140727653184871848e-02
-5.021367676629493598e-02
-5.809076948209514202e-02
-7.838170933217102065e-02
-6.705091171331101219e-02
-2.417425889242943299e-02
1.345431103942781870e-02
-1.484684840529425232e-02
8.362222806211037918e-03
-1.186865619108330161e-01
-3.591782006605793998e-02
-2.895006856058468872e-02
8.803963586509033767e-03
5.024413745171090601e-02
-2.812373209543743424e-03
-1.945676627529565467e-02
-2.650059766600176489e-02
-9.284725985948982796e-03
-3.894040933829630985e-02
-3.667722239975530762e-02
2.041822746666312194e-02
9.890807707931277559e-03
7.071880294856565385e-03
6.689657033945663189e-02
1.330963299808591571e-01
2.607063556672450932e-02
1.895206969436648292e-02
9.028784277144502601e-02
2.588976504381410720e-02
3.669673006986236274e-02
8.759066783940133716e-02
9.604752071314444362e-02
7.907561487246900223e-02
8.268770582607187780e-02
1.436573991124540373e-01
8.573581773498406555e-02
1.318403107929592977e-01
1.081419049478957173e-01
1.469290413552385433e-01
7.233019058884898600e-02
9.549397301036835484e-02
7.721357340801025815e-02
6.451206620792071522e-02
1.420221353583228652e-01
9.519565174423552656e-02
6.274115269363078617e-02
8.286214174568778956e-02
2.984828368775845758e-02
7.618191434961962827e-02
9.692411299495401478e-02
1.186659092597256437e-01
-2.059448903784137641e-02
4.482105532457476144e-02
7.484994725584329101e-02
6.947159260807411751e-02
3.622733624515706713e-02
5.929849472092872664e-02
4.723093869005203643e-02
6.766769238583178470e-02
1.199656379484331237e-01
1.215772619061210869e-01
8.614213624358110777e-02
1.231096386146670330e-01
2.111942363604694395e-01
1.987808861421329065e-01
3.118464496001707720e-01
3.940743274979304767e-01
4.365058723539766983e-01
5.366436557702415344e-01
6.611123288825391242e-01
8.072275212970547731e-01
8.474838237247354078e-01
9.262344856809640037e-01
9.690275137438643105e-01
1.017620333008573130e+00
1.129173484933914340e+00
1.211997150155190273e+00
1.212439921067814508e+00
1.222465380932777235e+00
1.184850839511852438e+00
1.148184656658933323e+00
1.060684528581983699e+00
1.020736612990583714e+00
9.391205126037318607e-01
8.201240300822465468e-01
7.141314921725924192e-01
5.506265151875169295e-01
5.143518791393562051e-01
4.257980288065023045e-01
3.553513594247434959e-01
3.215930686122062676e-01
2.143128964013608917e-01
2.484882659672852101e-01
1.243197016038869729e-01
1.166622621947745464e-01
6.575592368278884714e-02
2.726291019148410766e-03
3.577475029090242120e-02
1.173951652937266221e-03
5.322149656802392659e-02
1.135075517833424030e-02
-1.400387880671367241e-02
5.194720109441289257e-02
4.587736645346277703e-02
7.263450069429210065e-02
5.607068880123940169e-02
4.420539122188051062e-02
4.707259715118908283e-02
5.846924272476012457e-02
-1.127604613026245151e-04
2.476684232274648650e-02
5.846249561372388048e-02
6.326292734475615076e-02
4.234758628669249569e-02
-3.172619463432710396e-03
8.872962660486705122e-02
8.798798670011565015e-02
6.781680317421862059e-02
7.872939488587406276e-02
9.947891281435022881e-02
7.154388849940583606e-02
1.977581124197175522e-01
1.383107234275588737e-01
1.165269215713057027e-01
2.014129977051919984e-01
1.584633512586918758e-01
1.189558108786499535e-01
1.184184017667238853e-01
2.094597824843620892e-01
1.638984626473499462e-01
1.427271681338317943e-01
1.579293384727638028e-01
1.558705326447468176e-01
2.206573570150706931e-01
1.914536825023857025e-01
1.904755511147540048e-01
2.307915954980935269e-01
1.769864471228786429e-01
2.024164528660290230e-01
2.410472602207359150e-01
1.949689847105013363e-01
1.763095179116065114e-01
1.596223133633317137e-01
1.935501177135636186e-01
2.438186457183694200e-01
1.586679900835590851e-01
1.957102204581870897e-01
1.300559667648072126e-01
2.106817150965421548e-01
1.622083821823229466e-01
2.067042703867823794e-01
1.957884719067596591e-01
1.520311487567611308e-01
1.486741053785188282e-01
1.708419163607864388e-01
1.370766036647185215e-01
1.456404530287766785e-01
2.131408585372772946e-01
1.029787294719437252e-01
1.977944112170401114e-01
1.603452950775800523e-01
1.108778659305678926e-01
9.342347111668874993e-02
8.911227863471976596e-02
1.683770473318633165e-01
6.788079386558790174e-02
5.519987708300146817e-02
6.560965936659488018e-02
4.423734544739137131e-02
6.614395811969442374e-02
5.449016506855317021e-02
3.686148323517515757e-02
3.464978467155931802e-02
4.680493986531600314e-02
7.531911663790555322e-02
2.366594087247354816e-03
6.082867868725797683e-02
6.486030673422402137e-02
4.017492612668713270e-02
6.480565319436790150e-02
4.681081967362063501e-02
-3.424933204060689323e-02
-4.821101518881561188e-02
-3.121900732924897531e-02
1.504635738757008345e-02
-4.622914614164044811e-03
-3.069944717530574685e-03
1.333591581229672668e-02
-4.750869598552628914e-02
-3.963290555664394921e-02
-7.277916253989878681e-02
3.859419215060499314e-02
-1.019653228960376579e-02
4.255393311153522762e-03
-3.219686395789057853e-02
4.931773290810945176e-03
-6.470311936895012384e-02
-1.050200400961507838e-02
-3.195635286293457833e-02
-1.721297344605668064e-02
-3.023784289660627622e-02
-1.673981040910812318e-02
-8.589824300035026061e-02
-5.200498505097950197e-02
-1.026917664735407451e-02
2.471842931413079786e-02
-5.443865227876995561e-02
-1.083242532489292823e-02
-1.326861414542410134e-02
-2.295258762476854245e-02
1.419132046549959753e-02
-4.611199143089163982e-02
-3.677986498828649670e-03
-3.633631157333980233e-02
1.503519520234272017e-02
-4.942148239441254004e-02
-2.450071465289839837e-02
-7.200976342564173460e-02
-5.211078596717856615e-02
1.688412618368784202e-02
-4.364191597664966726e-02
-3.926696373006869495e-02
-1.438980102540243083e-03
-5.311952150981207738e-02
-2.962713368844617501e-02
-3.874910106751520283e-02
-1.879399042986293691e-02
-8.864597590066733424e-03
-2.333685038241763154e-02
-8.770242730468619241e-02
-2.927093951087380783e-02
-4.422475143315598989e-02
-6.474561747960025371e-02
-1.129352753713424862e-01
-4.745100350219487451e-02
2.193375674093148153e-02
-9.282609157053867133e-03
6.144326109990060764e-03
-1.444962378868145346e-02
2.685638229472726152e-02
-7.256667703969446603e-03
3.316327333198122729e-03
-1.411512091838743738e-02
-4.869104380622813616e-03
-8.878048227107346313e-03
2.611695039780366837e-02
3.375097534366694463e-02
1.765003279787785359e-02
3.473737641251782582e-02
1.651238528949050544e-02
3.757219312338601347e-02
4.201474245389398565e-02
7.634501267310064843e-04
-2.182639914099451101e-02
7.800635022603030766e-02
5.139539146470223363e-02
5.382741590133774401e-02
5.220484946183044650e-02
6.295427171911384401e-02
1.020121465194155086e-01
6.678870121385203917e-02
8.482155232820731694e-02
7.825657474187050489e-02
1.426549837859902581e-01
1.303626214159907537e-01
1.790361975510849080e-01
1.151704847220381689e-01
1.162280215217700446e-01
1.435801943643902900e-01
9.823131979399885028e-02
1.564047289285649678e-01
1.343588187958992819e-01
1.578655997360839947e-01
1.113357160614428520e-01
1.233236979859687471e-01
1.387366826424485389e-01
1.380300955082217895e-01
1.137543444017410366e-01
1.521359916179366445e-01
1.283084179012103920e-01
1.320646009458812109e-01
7.040810415991206883e-02
5.828787790041740219e-02
8.033546051446929792e-02
1.173566490856860906e-01
1.058664711569816674e-01
1.376419359948603538e-01
7.525982329535799153e-02
9.456251322637843071e-02
6.170445450918921743e-02
1.304757992493217333e-01
8.937425923450770249e-02
1.446753845213478162e-01
1.416965826150407559e-01
1.499339081367599136e-01
1.695893870089420219e-01
2.613924583144491831e-01
2.876095141627032503e-01
3.010066874475398890e-01
5.003158385118147145e-01
5.345063615142332525e-01
6.335317549303443041e-01
6.885584613534084797e-01
7.693034453816290918e-01
8.887999199474330148e-01
1.030535814123627381e+00
1.045326791382645393e+00
1.147461768389331338e+00
1.173731360533505796e+00
1.217427380227657396e+00
1.280305547698283419e+00
1.257540647804392897e+00
1.216367014116176870e+00
1.167593977290268592e+00
1.057882285749736750e+00
1.050091696497589044e+00
9.011816395778216027e-01
8.419751189538162706e-01
7.714381953686683113e-01
5.965163434779107154e-01
4.882836868676528330e-01
4.497453727891928543e-01
3.652976762012121736e-01
3.091889920022828919e-01
2.197329066391640051e-01
1.785885686592132704e-01
1.418679379315394840e-01
1.502601220051985043e-01
1.228686860513157897e-01
8.772728467588582213e-02
1.565303286069200106e-01
1.052451507316379958e-01
3.870595620262061443e-02
5.499949168755152024e-02
1.173653482817203497e-01
4.841266809196901472e-02
1.515517589833762224e-01
7.777649531912546321e-02
9.894390868127742045e-02
8.153803759592839762e-02
4.118650549772362446e-02
1.183007382997484508e-01
7.895356326440711170e-02
1.139666898817498220e-01
1.477185626488246306e-01
1.270205535536778896e-01
8.913948880431842026e-02
1.195164398150153073e-01
7.941927191481601422e-02
1.279952154413077359e-01
1.559588112055745601e-01
1.621247483443434556e-01
1.686789263222839563e-01
1.661210387387519194e-01
1.840416457246787096e-01
1.598309178204840031e-01
1.698008511800749576e-01
1.779543904414448152e-01
3.002447648283128601e-01
2.352504706802039380e-01
2.790610884841470685e-01
2.028982639300811186e-01
1.994752338823972126e-01
1.950535908631016169e-01
2.130205306361371842e-01
2.184925943496369705e-01
2.281389228575044503e-01
2.357147132046246985e-01
2.608469442262394411e-01
2.728762030847459719e-01
2.743364883530919340e-01
3.396102188927890841e-01
2.483133859109013519e-01
3.132306902904648527e-01
2.855714384067318812e-01
2.858417662631643208e-01
2.638327406215849047e-01
2.549189637729649682e-01
3.059456505333257303e-01
3.118660592071521021e-01
2.500494643922066551e-01
2.358077402920518151e-01
2.274772731453386654e-01
2.423445246912739881e-01
1.928808277144274663e-01
1.695363927618703248e-01
2.067117061103635189e-01
1.969877385108977641e-01
1.876005607212244963e-01
2.067937600353943750e-01
2.229130227148213572e-01
2.015190345516199577e-01
2.053401216764115800e-01
1.708572777359886330e-01
1.767164566105707546e-01
2.002884112100638547e-01
1.274411344549412073e-01
1.552081175477792452e-01
1.498113214375019764e-01
1.264165370862704585e-01
1.359548703205736009e-01
1.515699329066220180e-01
9.391870599407739495e-02
1.407027891879749915e-01
1.296215190079082480e-01
4.642334708293967271e-02
6.895781912133899794e-02
1.150104129241772549e-01
1.363287206228296355e-01
8.921716970776716327e-02
7.845865054124351312e-02
6.830840655290434937e-02
9.221402185590861500e-02
4.080019013897165370e-02
7.826573126765375144e-02
4.722094880142761741e-02
8.279794493283768042e-03
2.921697127650051476e-02
3.644476914122995320e-02
1.775593230074504550e-02
9.919524786844065301e-02
3.192603460290954070e-02
5.823454539522678747e-03
7.248840688338889504e-02
2.679879764188531494e-03
-1.069367519946459039e-02
7.779097583103260216e-02
1.451183536415215879e-02
5.682892556023708130e-02
7.896503288503117779e-02
-1.999813810611808518e-02
2.470147756614179957e-03
2.496040976198593900e-02
6.259514393690432388e-02
4.453998309495779684e-02
3.298630038805609038e-02
4.155968704503879702e-02
4.400198395933290624e-03
4.413743363016525700e-02
1.924544650091112100e-02
4.310620703336364573e-02
7.115644357913817469e-03
2.471726803382880144e-02
-1.035401845085139050e-03
3.056777793712150970e-02
1.577303141628010746e-02
1.019419632086590588e-02
2.596760598832928424e-02
-2.953034613632505440e-02
5.576638939823250207e-02
-8.620823207434055724e-03
6.409518620881637235e-03
3.851560106991391841e-03
-3.092633106109120289e-02
5.130225843872525393e-02
2.723828943272132985e-02
2.768863852232885531e-02
8.365789717767643796e-02
7.701055432481538482e-03
-2.599706173253489919e-02
4.153366734518326026e-02
4.660694802327373237e-02
-3.969287092400800021e-02
-1.870988600899918530e-02
4.759849523349947431e-02
2.628604622210130304e-02
5.667577719104192890e-02
3.537763208685294064e-02
4.302065286319474435e-02
4.941374491859457790e-02
4.023677287202755137e-02
3.062226381708509082e-02
2.007503743211123265e-02
7.259435011163505036e-02
1.040582006874224696e-01
7.518394396340420671e-02
2.938276298277021567e-02
2.348892369763196791e-02
1.677806613692721036e-02
5.844082092997761324e-02
6.919524194959897345e-02
5.741557064031170554e-02
1.053546473374374626e-01
7.475374800372559803e-02
8.450880728355730787e-02
6.406204495940509558e-02
1.195095086890793912e-01
9.120638783976629804e-02
3.303569732868218145e-02
1.457948587645562233e-01
8.255527312712815369e-02
8.973608149833373071e-02
9.109673732839586313e-02
1.536862450221999354e-01
1.122247464088032692e-01
1.582694469059619247e-01
1.511209470111244957e-01
1.704475881558336348e-01
2.119116264448538955e-01
2.094001365803374037e-01
1.735741430706053412e-01
2.441224407096227456e-01
1.714717405767707814e-01
1.469746280962800355e-01
1.435361337534903914e-01
2.006058010599721941e-01
1.483774542506955951e-01
1.959976280508677338e-01
2.060066195882518658e-01
1.872028396744969680e-01
1.796200948159528687e-01
1.774878856953476247e-01
1.592284126370865638e-01
2.018197466650570038e-01
1.802522784207335471e-01
1.305167494794862992e-01
8.484745812813659915e-02
1.992531919417908082e-01
1.738383385690369654e-01
1.729537343558733564e-01
1.036217261341088186e-01
1.123920354330492644e-01
1.649526776340705103e-01
1.426316299746036020e-01
1.573507056204198062e-01
2.170353235198849151e-01
2.026131381880388049e-01
2.362177301872309398e-01
2.965644505541979448e-01
2.866883349338824605e-01
3.816884532740828506e-01
4.996518711624383657e-01
5.535927687092100369e-01
5.923152174024168826e-01
7.029511497033329448e-01
7.720990574808108686e-01
8.875467472288425252e-01
9.708507019681331673e-01
1.070489658306554404e+00
1.178753881743509035e+00
1.191925067435318564e+00
1.296451528352240867e+00
1.339366758131318669e+00
1.245739618799536874e+00
1.278230711660955476e+00
1.239983990235001610e+00
1.198330450996307972e+00
1.108781437035016859e+00
1.017272429787799082e+00
9.772657914354344610e-01
8.687873138898113412e-01
7.204501157472403827e-01
6.385829112691622234e-01
5.614277986637598028e-01
4.228174552793975693e-01
4.117777642864960397e-01
2.783565272169820637e-01
2.966742295967237375e-01
2.136911695046313509e-01
1.597210544320236125e-01
1.723070802008879465e-01
1.486635843459129802e-01
7.289635016794465683e-02
6.357914387466773176e-02
1.069812017309168389e-01
5.312635258693211571e-02
9.323420596330497800e-02
1.347120528079072677e-01
1.255502739060017081e-01
9.922032419759135857e-02
1.070953969040004117e-01
1.383714070932137996e-01
1.101957191395269431e-01
8.206545334915485435e-02
1.206081767092257451e-01
1.591349348536068575e-01
1.115775070017529236e-01
1.883362795332334527e-01
1.438056321290016037e-01
2.328761175808822248e-01
1.656110267003297887e-01
2.234376114391256607e-01
1.930192259606656191e-01
1.548803015910191205e-01
2.129474668330146869e-01
1.719028801502651971e-01
1.739016544385369456e-01
2.501117788364092265e-01
2.439013968405978894e-01
2.190130703705348847e-01
2.411780578116217155e-01
2.414944191065616919e-01
2.380851462195244517e-01
2.445557908608065323e-01
2.628062377092656998e-01
2.638450414758479190e-01
2.681671801403580080e-01
2.873073061106239945e-01
3.198722007106278298e-01
3.275419447656772176e-01
3.126477533782424656e-01
3.097191677949586164e-01
2.804647153996832065e-01
2.670713252785896219e-01
2.925718807121049925e-01
3.052298039959078224e-01
2.797252867652441632e-01
2.504560841549933747e-01
3.318606457955665112e-01
2.897830507118751009e-01
3.258904173725195030e-01
2.858905482574512491e-01
3.163883749686056124e-01
2.973933442679639327e-01
3.126206612594843448e-01
2.967675006744378563e-01
2.667334794214187843e-01
2.662973071256407032e-01
3.128431099958354222e-01
2.474491607884100330e-01
2.634147400846113540e-01
2.597915782440183841e-01
2.586653613405633934e-01
2.259770903014208243e-01
2.563965543394328694e-01
2.203552701130818969e-01
1.607264794477544223e-01
2.078008185891154214e-01
2.094160759073215861e-01
1.827236572232660006e-01
1.860187877151143476e-01
1.827070786808489000e-01
2.053865114974890993e-01
1.785657253813233702e-01
2.077878023006213548e-01
1.259354226433329615e-01
1.273498868947530727e-01
1.610784286458967762e-01
1.556398712563906439e-01
1.590876320513428255e-01
1.156127736625280622e-01
9.572519725039640992e-02
1.059814869129962756e-01
4.123830151583581655e-02
1.333999541902905484e-01
8.472569359156445490e-02
7.256718045931280503e-02
9.830739564239217299e-02
1.305973965070476028e-01
1.056251034231116825e-01
7.582406458429316598e-02
9.978917363630074311e-02
9.217551705229995451e-02
1.245756534395203730e-01
1.062696689933723959e-01
6.207523976017159661e-02
7.077569694154527136e-02
7.398616798898191571e-02
8.893859712415498608e-03
-2.693025822388488838e-02
6.695992326332310396e-02
8.491155222667144675e-02
1.438210204963648597e-01
5.511592827954248097e-02
5.061439205645919953e-02
9.343712830928453672e-02
2.500058724472761784e-02
1.122375829846030681e-01
2.785016314054019823e-02
6.742353062776436368e-02
5.711089273355644813e-02
1.380833522000103619e-02
4.083306599407253434e-02
2.296678950896505894e-02
3.790859889349530720e-02
8.524106698456546116e-02
-3.916586765676098592e-03
-9.366779522922780155e-03
4.841743949832005151e-02
1.262986192875680674e-02
7.342729497328223665e-02
4.996878331914580279e-02
7.788409382039344908e-02
-3.364244430498979088e-03
5.629892256169771736e-02
1.299897580125685126e-01
7.084878155821848489e-02
6.935623502976882848e-02
8.047586299949119337e-02
3.498450920141315396e-02
3.675720978558111307e-02
1.397957158228421704e-02
5.692822149757555128e-02
1.294673150117860994e-01
7.106520454151138422e-02
5.215699179664246010e-03
3.301562181548197555e-02
7.429051675074532790e-02
6.219311562535497634e-02
4.892837489826352970e-02
3.297246920528622977e-02
2.222128033057835239e-02
1.543642954956652574e-02
1.041400396394448757e-01
6.856173765000961318e-02
9.392703958033352118e-02
7.005141251693833282e-02
7.330097684489704501e-02
6.480499427314506677e-02
6.075480318501916971e-02
3.801700665359569742e-02
5.758830739483404570e-02
3.297679712915032452e-02
5.168414968182828695e-02
9.186916838673050978e-02
8.199845890628129630e-02
9.796443467952545281e-02
1.416656127504890006e-01
1.320064962728090818e-01
1.233998958351489039e-01
8.306053591848788775e-02
9.404276286526777606e-02
1.138565605755443855e-01
1.170576148496681318e-01
8.423534153950852643e-02
1.974508650549151034e-01
1.645085766020742690e-01
1.811516326360547158e-01
1.573295244854406860e-01
1.821877313131842480e-01
1.749890437851882308e-01
2.129272837402641783e-01
2.079844318586298590e-01
1.816054479642994213e-01
1.495984330414250885e-01
1.579989475729911552e-01
1.801949551686825302e-01
1.993359364557305002e-01
1.608688763024233026e-01
1.871870740717737069e-01
2.245256922235386032e-01
2.189534066163172643e-01
1.797341372985310770e-01
1.872124055500433704e-01
2.199453227343692030e-01
2.220354217527949758e-01
1.851829433276870884e-01
1.970153146363346486e-01
1.934618416884438807e-01
1.551168735171692126e-01
1.401324121024714597e-01
1.801166513972227712e-01
1.919491014574140064e-01
1.318364005570546726e-01
1.299593374563721149e-01
1.389340388574573093e-01
1.079506111900924714e-01
1.229314785483821559e-01
1.469159488924967893e-01
2.093848742401226981e-01
2.317164680198582072e-01
2.701799996148725458e-01
3.333644059381442037e-01
4.425570902318221034e-01
4.798791870684947503e-01
5.504755384299903076e-01
6.579742787839538698e-01
7.126554385479730858e-01
8.317888523701763015e-01
9.045355892831872247e-01
9.665455414565441439e-01
1.098792473452371077e+00
1.177297087573015988e+00
1.222120699764220442e+00
1.308522518485254915e+00
1.293986336990610386e+00
1.305683383715861900e+00
1.223053349034924242e+00
1.251520235202592035e+00
1.166737354114287362e+00
1.123841572619818763e+00
1.020288283798575169e+00
8.332059722004306890e-01
7.561701343744149373e-01
6.603934980000247812e-01
6.029905799504470254e-01
5.397680323588273099e-01
4.232597448094463921e-01
3.697003105410565649e-01
2.725615323517375232e-01
2.296931463337475998e-01
2.216990136962787572e-01
2.044090055259290550e-01
1.675805345857819539e-01
1.129398243777837013e-01
9.773934529783800951e-02
9.182523518244566085e-02
1.115252489160881433e-01
1.532212969103219635e-01
9.837130610983316203e-02
1.075643615739883541e-01
1.381348150317445733e-01
1.279151692302777643e-01
1.353337831260531532e-01
1.200806199352181802e-01
1.368321912049851319e-01
1.355744212789358749e-01
9.081956568362083149e-02
1.114810045809780659e-01
1.348351308891066469e-01
1.326019670985988108e-01
1.388707498053425027e-01
2.268596319542647288e-01
1.821888671773747304e-01
2.152545486577313594e-01
1.180416892839282889e-01
2.444237834453747427e-01
1.660980908636007225e-01
2.531699160940134585e-01
1.941853396408684540e-01
1.841212716644754221e-01
2.419827098847772973e-01
1.895162272148376847e-01
2.292721705151387346e-01
1.962778620858680878e-01
3.197701201051135200e-01
2.242788455925641966e-01
2.765747588067468121e-01
2.698084253327648341e-01
2.830832453715203534e-01
2.559191930859002762e-01
2.830752490823276735e-01
3.370010377024512116e-01
2.753898842136230929e-01
2.617579456439821373e-01
2.541939898716896740e-01
2.884367261634626645e-01
2.702145576320292841e-01
2.663354683908488729e-01
2.821045662017681588e-01
2.566401541687330923e-01
2.783043709212952854e-01
2.503264990651090649e-01
3.071298796847150014e-01
2.322749640859103626e-01
2.498114072826486676e-01
3.180527909413859433e-01
2.416600615860238221e-01
2.385655199753177746e-01
2.433932050387400403e-01
2.693722919599753074e-01
1.921563271044917087e-01
2.460171065830545067e-01
1.821551334506665287e-01
2.711508174678163297e-01
2.007593688847850721e-01
1.226644188195304408e-01
2.501432021188128574e-01
2.252427594934247601e-01
1.663451035175071979e-01
1.480416188904352115e-01
1.408484953153900932e-01
1.376573712679822759e-01
1.745491518979663814e-01
1.767321862372845664e-01
7.825573990860192064e-02
1.325175778458860254e-01
1.413372776217969584e-01
9.098980257157626705e-02
1.473756969059534794e-01
5.155251795588717406e-02
9.066521140809258306e-02
1.276208786853341715e-01
9.195426225650253638e-02
6.138003314905195185e-02
9.840482932909591640e-02
4.718157620888836778e-02
1.051616647265943560e-01
3.549423948443038157e-02
1.052095060830802870e-01
9.611767648902282135e-02
1.251522028763730199e-01
4.308950526292257277e-02
6.264015677419274009e-02
1.421428000164111707e-02
9.262161759417671114e-02
4.075965744984059308e-02
8.784797393085902462e-02
7.515689140027236037e-02
3.462122714172687077e-02
3.810097119659215659e-02
3.361229459554890969e-02
3.369281600455797943e-02
3.289043146035993542e-02
-1.111120484756495524e-03
3.536177725395684562e-02
3.944526730707155482e-02
-1.832723730172102286e-02
7.158325872878749940e-02
-3.984730938220873431e-02
3.535078887446622270e-02
4.568966468284807458e-03
-8.752335705597628912e-03
1.157826387729139934e-02
-2.082460124373068655e-04
5.247273505838948721e-02
-4.115818615121427659e-02
-1.086354104960362069e-02
1.995764146525895802e-02
-1.680126434532392896e-02
1.233081726033309448e-02
3.146771172727054477e-02
-1.750451500318826736e-02
-1.762724060964363307e-02
-2.774630717446776446e-02
-2.154529763797913972e-02
3.587733225047962798e-02
7.247909747241302984e-03
-1.160698758385223656e-02
-3.219048418311599991e-02
-6.460190143705009033e-03
-2.009653802242191215e-03
-4.672207523607919272e-02
1.935459567916592710e-02
-1.693483127849423203e-02
-1.477444498429350724e-02
5.500917042279367640e-03
2.523470841948973614e-02
-4.160600191824213867e-02
-1.538085380484478099e-02
-1.341800810846502726e-02
-3.831543935698389358e-02
3.546006838492195279e-02
2.742179883047504013e-02
-5.023193520594437800e-03
-2.439758770251317793e-03
5.075363252503389822e-02
-2.247739159690711683e-02
-2.634128654938569514e-02
2.253384448262574224e-02
-2.452340069445135828e-02
1.061046974824613603e-02
-1.773496244678617051e-02
-1.012940908616906908e-02
1.015117859189930416e-03
-4.379472953871037938e-02
4.860940405378275792e-02
1.437458365237914357e-02
-1.242541012370253911e-02
