1.384282138912012350e+00
1.344508965736482820e+00
1.370771448202329212e+00
1.237781756715846448e+00
1.207492860451022221e+00
1.090146555740025169e+00
9.884361246136393886e-01
8.431076894239994957e-01
7.904432706124967511e-01
6.614987004366728041e-01
5.679466016267789019e-01
4.765768590107781755e-01
4.109522213343181907e-01
3.578118271965363695e-01
2.557381636456767526e-01
2.007129942131326283e-01
1.769083843871308015e-01
1.057444142003422932e-01
8.694499190232217456e-02
1.104319567058422991e-01
6.510748506090409393e-02
9.773929835842880276e-02
6.601098995039300643e-02
5.649301358373524928e-02
1.010629630462078765e-01
4.851907788831921059e-02
7.093077223902372053e-02
5.536464227344305156e-02
7.804357529683374206e-02
1.022831948835310895e-01
9.265235991768890067e-02
9.219383754377569185e-02
9.499214256166942094e-02
1.127228933678479234e-01
1.240904421581516398e-01
1.297382534057415771e-01
1.281954459769834853e-01
1.117957151642955810e-01
1.316356924540999229e-01
1.289225134650037186e-01
1.600791841215422617e-01
1.472802976060688662e-01
1.545577772971062080e-01
2.112257288558115342e-01
1.715805016034623043e-01
1.262980979428295902e-01
2.363992872188386274e-01
1.924282061822838175e-01
1.887463321376220970e-01
1.940806618982054421e-01
1.987373086708322523e-01
2.505524373314998998e-01
2.012215359048717955e-01
2.054018443505664093e-01
2.211850522506674521e-01
1.832356784922921644e-01
2.203512826430706062e-01
2.646502286064177922e-01
2.467291552852593217e-01
2.554606553984893891e-01
2.227398888620968631e-01
1.934675901855299751e-01
2.607496948053628083e-01
2.122984056305046718e-01
1.948484202804828536e-01
2.166895211166012247e-01
2.181321501977353250e-01
2.023503186277864074e-01
2.335234334591222427e-01
2.935278557116819953e-01
2.246999766676995858e-01
2.033225987593691164e-01
2.195632267498432155e-01
2.408316056841829922e-01
1.436907196263927933e-01
1.901639907759655745e-01
2.045013220164760559e-01
2.014250386331971343e-01
1.707016947391216677e-01
1.389034852887958416e-01
1.776703553084401921e-01
1.423721189896161032e-01
7.878979404436453615e-02
1.547921856803587404e-01
1.516572385220653352e-01
1.311111783342664427e-01
1.808835083388015130e-01
1.373828800223309554e-01
1.206489129144219102e-01
1.539806076528104639e-01
1.582823058731696320e-01
1.228784248635575171e-01
7.661241744922524244e-02
9.648395785802155178e-02
1.016802856633105406e-01
2.347523543689070125e-05
3.043282580928208247e-02
7.692307566529799079e-02
5.161148511676103001e-02
6.518381608488717227e-02
6.483172321184334230e-02
1.310699993489285523e-02
2.931432106438277771e-02
3.514514369384344472e-02
5.232246469303567654e-02
4.849652833177355016e-02
-2.907887143284938053e-02
-4.778982407685966605e-02
-4.209692831571180960e-03
4.389798558862852140e-02
-9.847287435408226541e-03
6.907043798067559470e-02
-3.726786290064497409e-02
-3.100956145740803305e-02
-2.302973143406027157e-02
-3.368863114206329529e-02
-3.243797786666727245e-02
-1.284999473770268019e-03
-9.078369615296788542e-03
-4.163364995697182297e-02
-1.059615264272824320e-02
-3.383033423695190611e-02
6.543849986424189746e-03
-7.613235945249176989e-03
-1.541741733982568419e-03
-1.636339338375372709e-02
-2.291895498759292937e-02
-1.416514252479272873e-02
5.885439477435321087e-02
-3.650584512064619647e-02
-2.358508595050892720e-03
-3.136811048144894087e-03
4.800392828934861578e-02
1.245956177448103233e-02
-7.683260371346797846e-02
-3.446949957147650567e-02
-8.943102816458242676e-02
-1.420155027839901593e-02
-1.762239304695378470e-02
-3.512289802065979988e-02
-1.727948824485855614e-02
-4.537726133754721447e-03
-4.290483058823006679e-02
-5.781884332905673496e-02
-4.415472928731729169e-02
-1.275967571613999610e-02
-2.756687240484667623e-02
-1.888671795164883344e-03
-6.733080709081114279e-02
-1.545798031088389812e-03
1.011692540925944114e-02
2.972954979888230501e-02
-1.930792355180076941e-02
-2.362837099068657021e-02
-4.937570602110530338e-03
-2.919830000153694760e-02
-5.282943690777668760e-02
-7.116035704043595367e-02
-4.962622881839617861e-02
1.641346306993094611e-02
-1.717098016373488217e-02
-6.807951060514855213e-02
-2.344280102344256655e-02
-9.065287060207542075e-03
5.158629508608597591e-03
-4.538609448405246660e-02
-2.379097569703141068e-02
-6.806638345630952602e-02
-1.610463753827780925e-03
-8.234016624111403782e-02
-2.113987052457642207e-02
-2.748863302649513438e-02
4.419761499978992758e-02
3.603779713227470843e-02
-2.881978340667928906e-02
-5.265438055202475293e-03
-5.168341294602143282e-02
-1.725756210058050286e-02
-1.523836089373926256e-02
3.143752073079732201e-02
4.489061844341649815e-02
-1.180966239165553988e-04
7.688716504449144562e-02
1.012353798857534015e-01
2.930571120806169799e-02
3.270380719933305841e-02
8.877578473493791256e-02
6.170813346248608250e-02
7.205376343825906083e-02
8.269045241077155328e-02
9.712469198847892282e-02
1.631947352766651427e-01
8.202776449408613613e-02
1.114744377268062914e-01
6.205548354832641361e-02
4.594368129541771817e-02
1.401694780148385333e-01
9.388640130241879267e-02
1.301619946328735067e-01
1.270003253702045865e-01
1.344755286047657761e-01
9.654488091624816026e-02
1.283291110046816952e-01
1.591815380277337155e-01
1.111173788538415697e-01
1.355376124110176383e-01
8.859125806581763518e-02
8.926128604374951314e-02
1.310516386837056735e-01
7.188524934406659295e-02
6.956039799538499269e-02
6.259549805141753631e-02
4.671608198233512255e-02
8.681333928717155368e-02
6.358031743982719974e-02
7.617512817921680279e-02
3.921558282741322010e-02
5.283258667793110791e-02
9.696986147259106792e-02
7.325665481226076303e-02
1.276346811392705394e-01
1.290063110378747435e-01
1.748947744674179683e-01
2.750876420381128118e-01
2.858596770285133370e-01
3.656776634607650789e-01
3.687799716233365332e-01
4.959461861177948405e-01
6.215919278146444515e-01
6.936137713044578934e-01
7.761145743995420121e-01
8.795432957911295535e-01
9.607881958405399825e-01
1.069406640054483937e+00
1.141334358792688519e+00
1.204619821743573516e+00
1.288579907433032856e+00
1.282807359851390272e+00
1.313221350565644485e+00
1.275897891532732364e+00
1.292283684369520902e+00
1.158847332028163812e+00
1.102557223428389799e+00
9.709050867934635454e-01
8.784746492380491878e-01
7.807658552319155509e-01
6.837459397323314425e-01
5.715003415238987250e-01
4.548897770156232756e-01
4.154017039468806405e-01
3.274706265459214061e-01
2.762316113589403654e-01
1.898342009155758459e-01
1.838080714010893735e-01
1.015357207554972718e-01
3.341635852958940722e-02
5.997230918015746676e-02
-2.595012133346704525e-02
3.728711561725785856e-02
3.207009230630183255e-02
-4.143775488314743044e-02
-3.890845686291873745e-02
-1.041885797961251275e-02
2.027494855784497257e-02
-1.347666298217533448e-02
6.753273044168431327e-02
6.026649500618513899e-05
6.458781294054771749e-02
-1.730649401301400520e-02
9.086678412020009199e-02
7.930033039500999914e-02
1.159621794147580598e-02
7.065599184831056201e-02
9.061917872631000681e-02
1.248445674567742192e-01
4.189731579897675723e-02
1.445536208691036439e-01
9.307499959395118538e-02
1.748260648583923604e-01
1.628375509567769885e-01
1.901242317808270882e-02
1.468418955904991774e-01
1.276999145776721578e-01
1.668808563663972122e-01
1.630027825160489940e-01
1.610876239346787642e-01
1.790845678726251389e-01
1.330153803540117807e-01
1.129520891951142220e-01
1.922215666666414469e-01
1.867820651726473657e-01
2.180383416451387446e-01
2.034624761156193229e-01
1.756588730253926534e-01
2.020456893583325864e-01
2.361082888215804976e-01
2.030802990734794367e-01
1.363521351247582447e-01
2.432560891328587882e-01
1.692071881652358889e-01
1.831823496096041393e-01
1.694358519426615028e-01
2.058309747587078464e-01
1.870942017798363777e-01
2.166785531334568804e-01
2.215030025560727478e-01
1.443108679361412294e-01
1.230859563500708298e-01
1.672462701416276565e-01
2.092642510322769711e-01
1.881342246674416741e-01
1.949929156585850920e-01
1.304700884137836858e-01
1.253193072282119125e-01
1.787237686037963791e-01
1.164061395062858661e-01
1.543614629847476216e-01
9.065386223314159109e-02
1.254370607680123650e-01
1.034610781926152273e-01
1.367902471236845940e-01
6.246733710681035001e-02
1.327525149873194088e-01
1.019701609462412700e-01
1.178247390456037269e-01
6.195954968938082591e-02
1.029109940086803399e-01
5.481983179846860316e-02
1.084211129518486971e-01
1.030774681006475790e-02
4.668544437879042219e-03
4.477785770560977624e-02
4.578278954255113331e-02
4.112867329038830816e-02
4.786202658769710822e-02
-1.736074813507565429e-02
7.162114170370106891e-02
1.191202027326070806e-02
3.291097742898009548e-02
7.977092674435859454e-03
3.067898895604258963e-02
1.069320626255839679e-01
-3.644582652198286032e-02
-6.906677273231784375e-03
-1.852653433761380225e-02
2.283855523553579570e-02
1.709171409844674472e-03
9.037935179785849815e-03
-3.694093669014875819e-02
-3.695682799415289654e-03
-5.537635119905626180e-02
-4.729668113653712896e-02
9.563244044688626322e-04
-6.293706392358676405e-03
-4.677271067162008800e-03
-6.312458965362575947e-02
-1.641708364998121367e-02
-6.936680197643092793e-02
-3.901616244630516650e-02
-1.726233836950319400e-02
-3.193028861322679685e-02
-7.128922397511401610e-03
-9.058845876577992229e-02
-5.772554622747529118e-02
-8.456292409749754935e-02
-5.759249041288493770e-02
-4.670989214614441887e-02
-4.560089388797024246e-02
-2.074633286801867704e-02
-1.909212916346209044e-02
-6.251792657709594192e-02
-3.405577079641521759e-02
2.145967414963881326e-03
3.279497094587982553e-04
-4.718000115119896226e-02
-3.130558431625933558e-02
-4.922240649216817754e-02
-1.177235702557476726e-01
-8.631800712653345253e-02
-6.360028917033355711e-02
-6.158859109713513830e-02
-6.011459860480939527e-02
-7.061763620197657187e-02
-4.967259803187710349e-02
-5.542994627201134478e-02
-6.984498160318099169e-02
-6.720298154045387107e-02
-6.841840110707982092e-02
-1.405882167121636633e-02
-3.173178641667915439e-02
-6.020310322816375959e-02
-2.486147096631429604e-02
-6.076329725543101051e-02
-5.341423904654991894e-02
-5.430947272699019474e-02
-1.111304966573291308e-02
-3.675972031891010239e-02
-5.642263236406008797e-02
-2.989414764566919458e-03
-4.786516735734496625e-02
-7.310058598632550309e-02
-6.043509212777872786e-02
-8.611876327865325420e-02
-5.836853107436799915e-02
-4.858469796428506460e-02
-6.701387610027612074e-02
-5.302471091904337186e-02
-6.003813776057865398e-02
2.222391223683964356e-03
-7.157954647171967111e-02
-5.731272371525024389e-02
-1.430344258642274324e-02
-6.050402324761148393e-02
-3.712871020920160969e-03
-3.823404922507301490e-02
1.461697345449885360e-02
-1.204436087324538274e-02
-2.192647751410987944e-03
3.800073586299282380e-02
2.427174916496938062e-02
-2.132116901622845700e-02
3.725950639136303005e-02
3.358420164486261572e-02
3.709228442605501386e-02
3.923308809570487388e-02
3.264841796280380098e-02
7.213761547138716756e-02
5.163257642051550383e-02
1.304047744719726287e-01
1.332864491332775014e-01
8.483075824656292896e-02
1.159230656750614985e-01
8.724289537856494414e-02
8.490015571621561952e-02
1.013738920673399185e-01
7.513505704539114038e-02
7.852576988505680089e-02
1.655302805471791927e-01
1.038338956765198079e-01
1.207975195296475679e-01
1.257598753601105457e-01
7.600248695300364232e-02
5.818296752937189564e-02
1.447889589643337749e-01
1.001340581500221316e-01
9.036524992001046530e-02
9.804400093088389001e-02
9.380005922633059823e-02
1.072985221938317496e-01
9.876832102661325941e-02
6.879328676359680594e-02
6.614877346259559476e-02
1.046658258780402834e-01
1.747834920841295075e-02
6.898951440339107233e-02
3.639326420045032456e-02
3.109563710834966493e-02
7.346243466768802299e-02
8.301171450188840617e-02
1.626532498659301051e-01
1.254615546886290456e-01
2.660744557561555701e-01
2.766478502159722130e-01
3.807914707703599078e-01
4.161616084041218633e-01
5.022073956431234443e-01
6.101183893154487059e-01
7.113998447468866670e-01
8.184052610482843715e-01
9.084099592665338951e-01
1.028226784349845602e+00
1.127044164942256677e+00
1.208129377077797884e+00
1.288247137008402765e+00
1.291831920890866181e+00
1.321336587424277509e+00
1.335936543834007617e+00
1.238241890477873808e+00
1.226782456146195521e+00
1.115162881080703716e+00
1.029269192527565435e+00
9.544870537441624281e-01
7.622055033227033150e-01
7.339425446515940310e-01
6.145970362357348060e-01
4.936978264371684744e-01
4.656346436565018121e-01
3.404512925164504544e-01
3.047941838004566972e-01
2.502120211413942363e-01
2.012945449922436125e-01
2.046008193339780012e-01
8.264489667870279777e-02
4.093941520013968244e-02
1.223280690803331960e-01
3.679441258066921960e-02
3.114413449304440085e-02
5.860751844328804944e-02
2.932887729666055349e-02
2.417635081209947717e-02
5.932326497047055863e-02
-2.874636924432114049e-03
4.014722672062327746e-03
4.308670689835906314e-02
-8.660210104719470725e-03
2.900906372058177640e-03
1.094878046817160527e-01
1.790339118507156685e-02
5.592721242695439243e-02
1.017424911163126028e-01
1.135660525963887169e-01
1.034401598919374166e-01
8.241059311745665972e-02
7.883887198095060334e-02
1.028169011348887968e-01
1.269847635169064071e-01
8.443039982337621763e-02
1.498787985385884869e-01
1.396643869180921871e-01
1.262734405171563878e-01
1.706139251719981653e-01
1.993656306027343783e-01
1.702508811500416108e-01
1.748081046422231277e-01
1.658175458259577850e-01
1.333190925309311603e-01
1.620013363088655955e-01
1.925843891104884464e-01
1.563750511732743265e-01
1.830984187393126517e-01
1.725958477219033671e-01
2.126822046434421465e-01
2.325803436010714653e-01
2.362630056799119027e-01
2.615202627313675254e-01
1.829034150725951102e-01
2.482994707066221995e-01
2.297954466051135292e-01
2.338634113543544557e-01
2.671581288246003827e-01
1.689224873980953168e-01
2.156080122455000248e-01
2.044301240386368346e-01
1.876373686087006720e-01
2.079363723677412068e-01
2.227011936677116832e-01
2.067414698255249650e-01
1.521074237810951801e-01
1.920166961831702157e-01
1.598372841445666048e-01
1.632156327901918835e-01
1.568555701795149027e-01
2.314214021984961900e-01
1.595779398793976955e-01
1.530153341450518067e-01
1.610629643113276610e-01
1.364312598079174821e-01
1.787088887073653432e-01
1.610283074099975176e-01
1.475903007884732387e-01
1.273516438600748590e-01
1.418584773204656369e-01
1.120446457875936275e-01
1.348970162290613339e-01
1.113796870596673871e-01
7.930759586062091637e-02
8.951874973442244809e-02
1.084525179367383102e-01
8.327385488483479703e-02
4.852144356824752980e-02
1.283981980725878158e-01
4.982165300366177274e-02
5.928116883004758142e-02
5.153231837216383504e-02
1.101236033433903166e-01
3.999247796473187622e-02
6.492532307809764647e-02
6.147440353375126232e-02
-3.619339108546587580e-03
7.620467600454930435e-02
2.957748077841762177e-02
2.181228256380098388e-02
2.836162236179173846e-02
8.026861804990058358e-02
1.318278688613870250e-02
1.697685460905492411e-02
3.277434882695150209e-02
1.448151180310406141e-02
3.899645415346113253e-02
1.573403508107144508e-02
3.572041311563278754e-02
1.929510317646696699e-02
3.600225484598580314e-03
2.974360743892880826e-02
2.050212487069760087e-02
-8.833204554754820956e-03
-2.606936282334161581e-02
2.326628338813925556e-04
3.004846925205090918e-02
-3.773194899406596969e-02
-1.209966072132013723e-02
-9.750551751385434437e-03
2.263303861701286557e-02
-4.156157039598568775e-02
2.213151260722943242e-02
-2.875402302688321102e-02
-7.735710816277874095e-03
1.655220532276170664e-02
3.672167392024994204e-02
2.599705851877064100e-02
-2.548618629449520001e-02
-3.666914770080591940e-02
4.794232232170787117e-02
-4.662813666955550190e-02
4.305210919683917503e-02
2.077421849590697228e-02
1.835063031767547592e-02
1.450883622736292601e-02
-3.476072452390181061e-02
-1.721961378662736908e-02
4.913523244507614351e-02
-4.455096743418102828e-02
3.955676075460486107e-02
4.742122240787175619e-02
-3.265969714059856893e-02
2.271264691993548496e-02
5.088456688423328989e-02
5.364153619498380349e-02
-6.632416672633748012e-02
2.804689581890679184e-02
5.852579667900129415e-03
3.798630265664897088e-02
1.316073913689356362e-02
2.086633146372237312e-03
6.404326504420676525e-02
8.036436229092612168e-03
6.144925339174062140e-02
2.545327841020372447e-02
-2.638673391331775725e-02
2.068933821805114814e-02
5.656903546386548437e-02
-1.804629754688274329e-02
1.967856283573563361e-02
-6.309985747641908005e-02
-1.083214393055960401e-02
-2.021493463828946680e-02
-1.378820954049593886e-02
6.311747765581114666e-02
1.541669085633130647e-02
1.820956894708309140e-02
1.390654901329912291e-02
6.119771573949325111e-02
9.664448016929232110e-02
6.969288762491214484e-02
8.034956488353835191e-02
9.460334161740890924e-02
7.354875897365957538e-02
2.253212084541911936e-02
1.148765695887512817e-01
7.789326575108884709e-02
3.765925182911069452e-02
1.147200574259845118e-01
1.665333532972625152e-01
1.494287422225898943e-01
7.151772789116213336e-02
1.196520130530302900e-01
1.084133699830552300e-01
9.469810332747943815e-02
1.338041705104020263e-01
1.369998850797978784e-01
1.110848284297557276e-01
1.366102563260462865e-01
1.435262014909934047e-01
1.243379449341697612e-01
1.005524603020227919e-01
1.311417616632904737e-01
1.063995291228176931e-01
1.645441005555814962e-01
1.533024713760907931e-01
1.895149718338547118e-01
8.001765382759544465e-02
1.858942825094008766e-01
1.053639203410180608e-01
1.365358858724050328e-01
1.246749878281202401e-01
8.992612578052054662e-02
1.341464279843140872e-01
1.239519948899209939e-01
1.776121322223200849e-01
1.202153528126115312e-01
1.054397815351046375e-01
9.317825832688987620e-02
9.926807641039971097e-02
6.081179135972963196e-02
1.198135541440405460e-01
1.706357113674499271e-01
1.561086369441900545e-01
2.428728639236168718e-01
2.543276249909880438e-01
3.289465028743591701e-01
3.604384506078517347e-01
4.198104467072695245e-01
5.650764605471103597e-01
6.181266358136517924e-01
7.533517396592186444e-01
8.106241277472243656e-01
8.184155300078954642e-01
1.082429152859393451e+00
1.098138050206448835e+00
1.167241221067701673e+00
1.299302130623736007e+00
1.269222394035550705e+00
1.380509693669212057e+00
1.357135136238386330e+00
1.343679332141916927e+00
1.307521825357070178e+00
1.199256109061941133e+00
1.120916952760047103e+00
1.089193215052616903e+00
9.422896904842995580e-01
8.474931474291651501e-01
7.543107697729909411e-01
6.681808076165699495e-01
5.002731053980773446e-01
4.764579765159991376e-01
4.153086725575224070e-01
3.293522955172540900e-01
2.994729116984013451e-01
2.022835067933241304e-01
1.276396450260830484e-01
1.608401574404390022e-01
1.233468028054350157e-01
1.630272493615504692e-01
1.047047758957965341e-01
1.163342621672431437e-01
7.698353759122129880e-02
8.708569747395128458e-02
1.236762620307248345e-01
1.086151288515082025e-01
1.774287448257325095e-01
1.251755000377515747e-01
1.037957555990828701e-01
1.150022168969286607e-01
1.330350088627727523e-01
1.598817297842896057e-01
1.196305984710547415e-01
7.946262530569220273e-02
1.621971688658109811e-01
1.766801539781158170e-01
1.384846630737034956e-01
2.007251220076523568e-01
1.907848148313009973e-01
1.807889544087954437e-01
1.645415592031777008e-01
1.588883894692214582e-01
2.107664056148880471e-01
2.100608817057643407e-01
1.972507241689269442e-01
1.627420626956731509e-01
2.377868840429917252e-01
2.454481873566468908e-01
2.384641389305275361e-01
2.343108391409992053e-01
2.118698274779070023e-01
2.690888473758301647e-01
3.083851646472438035e-01
2.314076949122751969e-01
2.379966214141344960e-01
2.540297464789816884e-01
3.071807476304307394e-01
3.158551476171134742e-01
2.722079652007069472e-01
2.758004493330883378e-01
2.789179091995626636e-01
2.356132250150661800e-01
2.315121382660010607e-01
2.911309896729186164e-01
3.398368365315010964e-01
3.547316473620995003e-01
2.691556610335394395e-01
2.501855732381969011e-01
2.415397386606619456e-01
3.353301208771310438e-01
2.318090380151877905e-01
2.624503844189129964e-01
2.896794726235983886e-01
2.537948758910439362e-01
2.943453964695295078e-01
2.027056012541298691e-01
2.167532623066784347e-01
2.180777942420673576e-01
2.231973571146671498e-01
2.526435409054281767e-01
1.507897108814183207e-01
2.033560447959504025e-01
2.144394941294552881e-01
2.226515470137881703e-01
1.719575230727049264e-01
1.798941390144868091e-01
1.817910521526469592e-01
1.884338782914436461e-01
2.134250247502921805e-01
1.557086908521067292e-01
1.690021933722635483e-01
8.503210126418174475e-02
1.315194725123556840e-01
1.539810141181426895e-01
1.609889386569473002e-01
7.032489117338794338e-02
1.140937758923536161e-01
9.627233122834832901e-02
1.425067715155554637e-01
5.491617681349800911e-02
1.152747409782326482e-01
1.044193742489401833e-01
1.116905403420380138e-01
8.911118593759288775e-02
9.806365426489514758e-02
1.014536103016931978e-01
5.597204845553298280e-02
6.725045224128874122e-02
9.516538527752849141e-02
7.353157007494134922e-02
3.422763527049385579e-03
1.602023202368661400e-02
1.033097512555840869e-01
4.439664887305101032e-02
-9.756994744438585165e-03
3.854226644329726559e-02
7.753686996855219116e-02
3.530230980729302109e-02
9.260958847265257643e-02
1.796085557672214006e-02
6.330709658714525623e-02
7.326799020846827548e-02
5.590110738173247745e-02
6.653059995805575555e-02
9.910350968076876710e-02
6.280719017236377488e-02
-1.020645887325591361e-02
4.312047637371506370e-02
5.943028346242150428e-02
8.090271729203105111e-02
5.534118385220668235e-02
5.206474726323161162e-02
6.479725432616816050e-02
5.345334423260206247e-02
1.597690292258752837e-02
7.809387773182932535e-02
2.096426530012132292e-02
-5.390597747673732398e-03
5.239475551095081063e-02
2.138694299363139498e-02
4.762873252314700490e-02
3.967523741258902059e-04
4.697539059389488347e-02
3.221831962238656810e-02
3.889473992424535842e-02
4.746259835495938995e-02
3.685324902535754010e-02
2.210786286246375909e-02
6.521604964161389906e-03
5.768417056473223309e-02
2.314417741263352993e-02
-1.686161589166255970e-03
3.020314275869448450e-02
2.449042610022907074e-02
2.868337319186537587e-02
7.427299983178053955e-02
1.821447063627260748e-02
9.905211950672207499e-02
4.721997506870359573e-02
3.565715596184387826e-02
8.665965220593721541e-02
4.541040182482342785e-02
3.678671481417448985e-02
4.650723868890897783e-02
1.652452580698572926e-01
-2.592725292045257313e-02
5.763989124238119710e-02
9.271265932869725279e-02
7.446516420546903103e-02
7.678995136464095150e-02
9.187669477513697724e-02
9.285413399582331806e-02
6.612182149677010845e-02
1.010981232294485416e-01
8.373538241995043263e-02
9.393669299902870917e-02
6.089000022777840693e-02
7.361860030633994578e-02
8.265081138799307281e-02
7.930385059440500650e-02
7.648087471524447900e-02
1.422479407162697274e-01
9.997656477857122526e-02
9.402392295807299183e-02
1.392699767857626669e-01
1.124495772345229794e-01
1.637785305637086408e-01
1.613643898861480130e-01
1.709610536901872146e-01
1.365446226356168413e-01
1.534124149709578944e-01
1.895668777060707244e-01
1.310264745983532597e-01
1.934472816692211772e-01
1.879138818076162565e-01
2.289953781582940995e-01
1.454591156231139770e-01
1.805647470527493026e-01
2.009662342547748337e-01
2.364412874624707006e-01
2.212170873595400988e-01
1.786139789619235196e-01
2.022577909917981365e-01
2.216076917589516748e-01
2.174488908347202987e-01
2.260512902433360338e-01
1.533336646694783978e-01
2.392232774621537161e-01
1.511000876914321833e-01
1.808411507036172261e-01
1.526356818849699537e-01
1.630640009418231062e-01
1.513243135404671036e-01
2.093239895455354938e-01
1.182926149913424013e-01
1.009084334577588643e-01
1.260176756725825686e-01
1.307520836936801045e-01
1.863110953353351862e-01
1.789288719837703878e-01
2.153604385980467384e-01
2.410215819742806687e-01
2.440338007843554091e-01
2.944548364789610906e-01
3.375816165968991145e-01
4.596909917601146311e-01
4.768451333472403242e-01
5.413402282709515179e-01
6.767506833866585580e-01
8.449420992594869340e-01
8.798110880504950160e-01
1.003997363343056781e+00
1.075303130349068548e+00
1.155370634764054882e+00
1.249058041596776913e+00
1.349377945686498048e+00
1.320170256550972310e+00
1.437669250135930499e+00
1.332751965587717136e+00
1.329335328119304993e+00
1.268633081479026536e+00
1.215706994757690618e+00
1.195962577751118028e+00
1.040586486465572946e+00
9.333983873797259134e-01
8.600104290074950253e-01
7.079135919628417595e-01
6.376367785208805206e-01
5.853739254712053697e-01
4.786496902979073265e-01
3.934867527313406499e-01
3.287689316458948796e-01
2.501363122569378872e-01
1.845880350077915844e-01
2.105355700522804629e-01
1.622987545288686606e-01
1.658213302459010663e-01
1.802642254843957459e-01
1.656386459799644717e-01
1.178784019376591524e-01
1.217444614031161221e-01
8.430313904061459418e-02
9.593939679650209662e-02
1.058753249384127015e-01
1.340611951905678612e-01
1.176712251144437227e-01
1.372228062916900360e-01
1.272974360723595766e-01
1.194696458126502658e-01
1.662107786421911926e-01
1.623331646200529554e-01
1.391932404964057179e-01
1.773049883287877992e-01
1.582232082965651099e-01
2.058142429476442770e-01
2.328350943670476625e-01
1.775432858402589131e-01
2.075586553179425975e-01
2.215126634550234619e-01
2.087141618414874167e-01
1.941770250308669232e-01
2.289007724724311243e-01
2.519044867368000484e-01
1.936581785420003199e-01
2.366076430017242105e-01
2.813552115577924728e-01
2.849086033377768445e-01
2.224895337589037347e-01
2.206580777038142371e-01
3.050188232636055763e-01
2.200313637172351400e-01
2.579987905780551927e-01
3.094727762174738217e-01
3.265455248089410567e-01
2.593082828219114844e-01
3.013700116895604020e-01
3.296906434705014211e-01
2.854666406442414317e-01
2.831308342801019950e-01
3.487992466783575995e-01
2.936167432769958840e-01
2.284382212103827636e-01
3.012907354939122206e-01
3.121234971248977308e-01
3.259730696260444427e-01
3.127299835672567863e-01
3.008405029897581184e-01
2.602981474816567498e-01
3.283956201350761162e-01
2.736832804362823723e-01
2.978312062497872614e-01
2.944297266544209091e-01
2.814381330167150530e-01
2.464331426591361840e-01
2.947215431914543271e-01
2.492194700096885818e-01
2.486201968249482641e-01
2.580011333616597513e-01
2.246295697872297548e-01
2.522450987845117898e-01
2.240986855481365003e-01
1.956309266919702694e-01
2.168355883893791358e-01
1.636099042720084162e-01
1.916865018540596655e-01
1.732988430286405146e-01
1.950301691679381388e-01
1.894218841086013072e-01
1.420827504658264129e-01
1.295386392906436590e-01
1.890690915730157129e-01
1.908405269092064149e-01
2.135708358184899014e-01
1.181308183182487592e-01
1.069440685969244020e-01
8.825773630738015241e-02
1.084653096105555325e-01
6.347963522861321817e-02
9.114924430571626213e-02
1.031843562987306562e-01
4.571947410344873175e-02
9.543849420803127148e-02
1.201480836324592127e-01
9.511606446779555246e-02
1.049174338237459925e-01
5.348618838376982543e-02
2.757949974563267057e-02
1.045920759217506824e-01
7.854336702896995426e-02
6.211679339852040765e-02
6.365280119471516951e-02
3.082227691632841160e-02
7.018018129898857815e-02
6.746060451433483207e-02
6.524477768443921744e-02
4.224530888941256668e-02
6.668558995549589419e-02
6.254375761895022978e-02
6.049965630182470300e-02
4.936473600636592796e-02
4.732984339821241782e-02
4.061243134604673732e-02
5.081553738836455669e-02
3.212730518929729495e-03
4.749891203045959048e-02
3.956472650373674821e-02
9.384434360574625544e-02
1.222365953616901674e-02
5.028635272205324303e-03
2.361740291332024844e-02
5.129420163333116289e-02
3.557025956911714915e-02
-9.395856147200974673e-03
3.027208721659832569e-03
7.550680553205718626e-02
1.007809657869150610e-01
5.787936346397121179e-02
3.622590474762746315e-02
4.738003074722584029e-02
1.753608215514175853e-02
7.946568912693358078e-02
8.753641593859527725e-02
1.813529104412820586e-02
5.460256865127686293e-02
2.628701800430496838e-02
5.682637429391691059e-02
3.041528394841976762e-02
1.711060978786031750e-02
4.666236813974084657e-02
-1.840137013893378137e-03
3.880638786820555380e-02
3.246765796094039369e-02
5.843010160151375365e-02
4.625858820992483078e-02
4.110000123298048619e-02
6.737997994283759229e-02
6.461070663682626225e-02
6.697069443669001476e-02
1.084739368816350913e-02
6.291942954391764597e-02
8.982388091645775174e-02
-4.820509145290079178e-03
8.571449262191367657e-03
1.022358981865920946e-01
6.155832654169481055e-02
3.239071883810296093e-02
1.566173364090315406e-02
3.557312048546779071e-02
-4.233823662529521969e-03
7.049931431826769734e-02
9.073005465014574722e-02
1.084240900937116503e-01
1.584965127525855833e-02
9.182547630872511801e-02
8.164429701556927266e-02
1.063993353249155505e-01
1.626527045531221682e-02
9.303733221640249351e-02
6.660644578333563270e-02
7.229428702579057675e-02
1.648283574555987896e-01
1.662455061948411861e-01
1.279743161449194699e-01
6.746390006433536368e-02
1.135819701356520772e-01
1.941452166916112221e-01
1.392393567541588550e-01
1.157068996037551450e-01
1.597792017927724406e-01
1.576260193985263847e-01
1.318940444164528603e-01
1.489855398316393131e-01
1.305788669067309282e-01
2.480493815899611487e-01
1.520998346148720592e-01
1.634267738564572636e-01
1.693373935557456744e-01
2.011021682301806501e-01
1.211417917085525209e-01
1.763511737240706367e-01
1.811367947260388578e-01
1.879566190217574762e-01
1.765592774278141597e-01
1.369915231387392462e-01
1.614312556270338928e-01
1.764360797567194883e-01
1.575767272620360315e-01
1.486146756279707326e-01
1.891934939788835757e-01
1.663460601238884728e-01
1.179995840834608262e-01
1.257156589740277275e-01
1.450349324479561774e-01
9.989176792544768313e-02
1.360305839866808586e-01
1.547573921818781173e-01
1.210036199769610882e-01
1.942951815700035834e-01
2.173470123455812641e-01
1.626496306377100409e-01
2.782456017083368427e-01
3.592867551310920393e-01
3.749485628954489780e-01
4.077032665734395267e-01
5.469916828753522697e-01
6.040107130805438818e-01
7.352780191425084544e-01
8.422111552374881294e-01
8.913884927949194958e-01
1.035847752816824396e+00
1.094526619330663975e+00
1.170149975568872014e+00
1.300158237949633477e+00
1.330941790068479680e+00
1.280487154689393225e+00
1.382590889468536588e+00
1.310620946976940537e+00
1.306668014555314450e+00
1.233851363915013044e+00
1.197778993874945241e+00
1.093476308119874396e+00
9.853889414128115254e-01
8.892100587526310385e-01
7.623110631658267522e-01
6.876984001578531069e-01
5.725341309968590142e-01
5.024769344835204876e-01
4.369777280466338731e-01
3.568253160362505616e-01
2.670328616336176686e-01
2.640755130565043407e-01
1.562080989170027689e-01
1.448815485589967089e-01
1.396342748399490019e-01
9.861752663554837484e-02
1.220066337986954325e-01
8.877810853734019458e-02
3.408129265800925733e-02
4.371499046141889833e-02
1.098124043453446580e-01
5.520961814451703226e-02
8.837184975783972385e-02
7.670082839544010989e-02
1.092821793654396856e-01
9.814956819806391897e-02
7.816293179685537829e-02
6.533404795485422967e-02
1.407034468624476231e-01
1.151363454117661500e-01
8.439346993719555601e-02
1.402105745035041318e-01
1.495865452513667759e-01
1.352792405519275543e-01
1.496050068625018603e-01
1.902452130306723221e-01
1.672767358434830431e-01
1.272440655614940075e-01
1.800163890525774690e-01
2.141143611964137772e-01
1.512233293753879326e-01
2.187713148000081098e-01
2.007969603987425078e-01
1.643043428353751223e-01
2.417838473259307508e-01
1.962104458005407559e-01
2.250335926358796312e-01
2.392512105304317183e-01
2.374952151571190495e-01
2.159138949341445901e-01
2.781220136478486649e-01
2.195489697620085501e-01
2.375270301284956032e-01
2.765333109670201628e-01
2.493636259791510712e-01
2.437354545958891894e-01
2.459060771866260209e-01
2.001436870665141698e-01
2.851833599271594855e-01
2.192364493863979691e-01
2.542301829345116060e-01
1.844707596741264055e-01
2.544019142741240080e-01
2.102115869298755158e-01
1.948471554406734363e-01
2.134088711614551825e-01
1.890924732026238730e-01
2.303660246953405377e-01
2.315053841745447205e-01
2.216730960731918831e-01
1.996989686353650428e-01
2.397711289869937923e-01
2.012007053002520529e-01
2.368731154079453116e-01
1.307423516811851150e-01
1.966507036589201785e-01
1.894520941567069683e-01
1.525015937787002895e-01
2.026383072094579130e-01
1.610019548064305361e-01
1.588557329350109015e-01
1.595095969861028973e-01
1.963679742874565037e-01
1.218606295520238275e-01
1.321736500638213407e-01
1.558953451409598456e-01
1.095398280302437993e-01
1.389852152247769701e-01
1.003224446203716674e-01
1.048874469783467323e-01
8.333130437172613092e-02
7.283168499030001630e-02
7.665971594989086368e-02
4.645993461501436717e-02
4.198378961021551059e-02
5.602220553002563996e-02
5.660990973956670641e-02
6.983020145373386445e-02
3.490932676872235407e-02
8.652298716642350951e-02
2.205021143192792410e-03
8.524770283679176594e-03
4.200060100702855681e-02
6.586418686118479526e-02
2.393409877142494910e-03
6.626046752042522026e-02
4.107887750415133848e-02
3.054169322107081960e-02
2.748816939768192885e-02
2.431634073312691213e-02
-5.532414346587655532e-03
-7.798908752683697716e-03
-9.717410195543764451e-03
-1.055356720429120182e-02
2.159414309746490040e-02
3.714580900792611301e-02
-3.159712520053797880e-02
-2.916180649058140728e-02
3.703924283038636384e-02
-6.644273070582745397e-03
1.398341810817941080e-02
-1.886928713773287913e-02
4.956682362625591809e-02
-5.002374858496229371e-03
1.511129592859060226e-02
1.799637508783641024e-02
-5.872979954247770085e-02
-6.118134948106321302e-02
-2.810733227929340661e-02
-1.025847626670240917e-02
-1.189855254194682570e-02
1.788969174297869169e-02
-4.164894318735195416e-02
-4.433252832647076314e-02
-4.132835527646257917e-02
1.964224947645804714e-02
8.620675140087245142e-03
-5.319890576180346525e-02
7.300710486847166933e-03
-3.158967641051722147e-02
-5.703722904963382662e-02
-1.680510888664381308e-02
-1.902216051611876554e-02
7.181449490906483338e-03
-1.930631598160679335e-02
1.777718112451538018e-02
2.114395712756155649e-02
-3.333595759923033142e-02
-2.211395552739694320e-02
1.277652181849379433e-02
-1.545942113115866302e-02
1.378725647189158604e-02
1.499379674020471023e-02
-6.492947493852710417e-02
7.091170335668528502e-04
-2.804323383207019127e-03
-1.334034406541364376e-03
-3.330254681804249717e-03
-3.146541378453937554e-03
4.213508525269678284e-02
1.317517770323774207e-03
-2.302076235039273236e-02
-1.984190988411885931e-02
-1.379957421827499378e-02
3.366180192517427561e-02
-3.369747752123167239e-02
4.575320746195529753e-02
9.060631701907413682e-03
-5.821401330496840665e-02
4.875556681607453452e-02
3.719662284334621094e-02
6.147885993106800423e-03
2.704224699138829333e-02
5.312890713662790643e-02
6.541459892529191689e-02
3.096743005055375281e-02
8.100748564857537803e-02
4.046871884905956646e-02
8.740579967730366384e-02
9.582756532644894770e-03
1.088583626909226387e-01
1.642081998897648720e-02
5.098480367724911311e-02
1.112168645329239813e-01
8.914701355794317494e-02
1.128982580819226089e-01
6.117100244143883897e-02
7.651806139270829477e-02
9.756631004605417767e-02
6.369327149342439431e-02
1.480657790230770210e-01
1.151458921764570570e-01
8.563426717904543128e-02
1.199339805253601954e-01
1.228077827208331196e-01
1.384299119148928447e-01
1.201077435459314835e-01
1.000794818787495155e-01
1.153438463763021143e-01
1.829164234536672096e-01
1.276110371514997954e-01
8.516019340685612726e-02
1.407555174632781625e-01
1.766135162156269311e-01
1.180443590537472304e-01
9.574199666164179279e-02
4.836797198996481417e-02
8.524636611019580090e-02
4.681884034580058307e-02
8.898972619231507175e-02
1.495158851293462363e-02
9.385654010771579681e-02
2.476838331893866166e-02
8.467122044294492222e-02
1.369897607083617186e-01
7.527133570850660926e-02
1.026666301782659663e-01
1.600552362116978156e-01
1.677543733470160392e-01
2.644170085310208473e-01
2.752546061374065434e-01
3.783706488214972907e-01
4.400384510456153975e-01
5.135627147558644578e-01
6.111867759395529509e-01
7.187274004339522238e-01
8.010840909052630021e-01
9.518312424187197474e-01
9.778075259397613905e-01
1.155592067816876956e+00
1.146878676527379071e+00
1.277516354033096713e+00
1.346120976777915867e+00
1.358763786790166073e+00
1.241277420055337588e+00
1.276903227967442822e+00
1.227454491954670601e+00
1.207146651619731559e+00
1.033797304266601325e+00
9.781311823627102386e-01
8.478120986680430793e-01
7.761474445863334459e-01
6.477328595870163186e-01
5.677093180794463567e-01
4.569288034345750926e-01
3.388416929756324913e-01
3.361692022265534430e-01
1.814612737012913091e-01
1.918982351118709573e-01
1.336651403012711348e-01
1.278601187392831851e-01
1.460452469307800816e-01
5.687463876509028793e-03
2.787832360201173559e-02
3.044083638270290298e-02
8.613355854375247256e-03
4.944842719093042738e-02
2.675301555675233672e-02
6.619896012427475829e-03
4.439019975935737383e-04
-2.748236386299276329e-02
5.693182933074916741e-02
2.377514788482584795e-02
1.040580041005136347e-01
9.042676529383468498e-02
4.994642456576787320e-02
6.050012495888581338e-02
4.415857234866258502e-02
7.142540460401120006e-02
6.898688185455545407e-02
8.679414089180093050e-02
1.200341926950505567e-01
1.607351929506649624e-01
8.839386264891560541e-02
6.727883062117728796e-02
1.124760753361764010e-01
1.303344008281508148e-01
1.505398538458152524e-01
1.738707378034864970e-01
1.039170040879837248e-01
1.620270699003425185e-01
2.159005252084805204e-01
1.754251995816262233e-01
1.366919141142564353e-01
1.288432510285015820e-01
1.745712018741845117e-01
2.313655657563918333e-01
1.853689401056309027e-01
1.694720640850276294e-01
1.603798797863993375e-01
2.595855573998522292e-01
1.384421011399674661e-01
1.910044376933982824e-01
1.703039063415588694e-01
2.007517136246158851e-01
2.029567932268263042e-01
2.319840928446925410e-01
1.611332419423991136e-01
2.043075435901267056e-01
1.524527898159266093e-01
1.494173680944192451e-01
1.894454197541141083e-01
2.098193387414874767e-01
2.148677694483784595e-01
2.048594871877377765e-01
1.841315106702707538e-01
1.903067579077820093e-01
1.632027322150015336e-01
1.432013789901289691e-01
1.391341296013091089e-01
1.527857788125661365e-01
1.302933671151393080e-01
1.976404291622153031e-01
1.220545348881793835e-01
7.653265600490627429e-02
1.492160612824720567e-01
1.434397770992773269e-01
1.173908905713125089e-01
1.084551177184747417e-01
9.355001582469582577e-02
8.537947590734894232e-02
8.167699801541224158e-02
8.155134576986630690e-02
6.667586580127560225e-02
1.140345339278917014e-02
2.842833151750262521e-02
5.996582863260734725e-02
1.527480868664850971e-02
1.574689731992586633e-02
5.782452498548450170e-02
-1.977783987483623662e-02
-6.315044979955150573e-03
3.826781901553012732e-02
-7.873414468708747616e-03
7.727687719873345407e-03
-7.357916741051612197e-02
3.088655425807036725e-02
2.662446155254424851e-02
-6.299774536541673242e-03
-4.307920524396165879e-02
3.369984021889448761e-02
5.242815841220632017e-02
3.168300788847261407e-02
4.488176815245950579e-03
-1.941344663306672144e-02
-3.738222976552139226e-02
1.149772576410043601e-02
-3.438210937347695173e-02
-1.214848051883830465e-01
-3.363546293294777945e-02
-4.109320495559494468e-02
-5.675643989654460819e-02
-1.326530046489380471e-02
-5.960961999509484244e-02
-3.421586598120494177e-02
-1.149601198581433892e-01
-7.354579865019260365e-02
-5.254460581080780401e-02
-1.051683630195058977e-01
-7.346914144096131083e-02
-2.344153573070179020e-02
-5.882409518898304435e-02
-3.956600111665944941e-03
-3.743461160018633771e-02
-8.539394252338955438e-02
-7.451820513330778550e-03
-2.814235231193368270e-02
-4.009882587578313812e-02
-1.850559061366971458e-02
-7.744884101665824860e-02
-4.161214422599034124e-02
-7.211978950832977076e-02
-2.688650931329528149e-02
-8.529186810391263529e-02
-4.534672905918768482e-02
-1.664511506290036746e-02
-5.844605310286542926e-02
-1.050075554296055896e-02
-6.807923813368976784e-02
-8.522995807976374572e-02
-4.169959518819648520e-02
-5.327039761367195064e-02
-1.426753953105190653e-02
-7.484974260219577624e-02
-2.055737826130487819e-02
-4.724391944540953098e-02
-2.001123964022608406e-02
-7.278473728358793304e-02
-5.922808849187515684e-02
-4.636709707372240613e-02
-1.251005379563358694e-02
-3.252922025084546698e-02
-9.023245502282584152e-02
-7.140821046365614100e-02
-4.898887207605312488e-02
-6.628875976626896760e-02
7.398249226639522225e-03
-6.334282040327576802e-02
-7.628885476661989573e-02
-5.530936974019100283e-02
-1.958082460885712806e-02
-4.525902577624350137e-02
1.402560852108028500e-02
-7.297483395861298350e-02
-3.575324081601745363e-02
5.282412023331926887e-02
-4.723459054446800531e-03
-4.017757134465031049e-02
-6.417686080914913882e-02
-3.795840541474962415e-02
-5.661780518896188108e-03
3.293105846662586905e-02
-2.898079902816123182e-02
-2.457510453007028667e-02
1.070051018650188673e-02
7.332247494896487749e-02
6.080899916757614293e-02
-2.166518186846828897e-02
3.437871836459878427e-02
5.782263591809087833e-02
4.880356871481999342e-02
2.233599527316255245e-02
9.084012903290614172e-02
8.830453576646496439e-02
1.157124904171401292e-01
8.383056713808903493e-02
6.982539288648807740e-02
1.006748777736968109e-01
6.707556176536055847e-02
1.202779151797104817e-01
1.477982888042728149e-01
6.708640963980713745e-02
7.583559095842404285e-02
1.484310328675313428e-01
1.253950251729116783e-01
1.003502972433751583e-01
5.393101014896549417e-02
8.893677221634974095e-02
8.546697074868014887e-02
7.454069905070437319e-02
9.231997226920768407e-02
2.769913395497551611e-02
8.289475285235989310e-02
8.331705385755497351e-02
5.656386232161329103e-02
1.026226880986905732e-01
3.826138149764635177e-02
7.405160371631536176e-02
9.782689932742785754e-02
7.671749119654441840e-02
2.012153744802340494e-02
1.204410620849168112e-01
7.396908081614828046e-02
1.202531184654787311e-01
1.219474226897766800e-01
1.820464883519796739e-01
2.129927764191405504e-01
2.257620913364253856e-01
2.848691384500302015e-01
3.819605062004073903e-01
4.354283177604974520e-01
5.660208897937492045e-01
6.795970961329944604e-01
7.513855943674456750e-01
8.329819169922272337e-01
9.731992685405553845e-01
1.080955243551591671e+00
1.119900423027543557e+00
1.175563451281063765e+00
1.222133308309284017e+00
1.258416081239022821e+00
1.300780384645768395e+00
1.309358322730311608e+00
1.203220125302121302e+00
1.209902828726920454e+00
1.137983684273029095e+00
1.073946096059907207e+00
9.112213662159821537e-01
8.664652832323131992e-01
7.179785533295528488e-01
5.981220026670301948e-01
4.860693177312013780e-01
4.147761167406538996e-01
3.066659090961939005e-01
2.585229116077972789e-01
1.877048529111817743e-01
1.037096334032839018e-01
1.318463614381991666e-01
9.782929233125636781e-02
5.234063905932048039e-02
6.091127550469978974e-02
4.783722157798483976e-02
-1.279350225685069176e-02
3.305734865785875387e-02
3.023701800220433833e-02
1.307999386686629212e-02
-2.976992916980537168e-02
1.213787571154778533e-01
1.678322665091067784e-02
1.912634096440355563e-02
4.782246147840437528e-02
3.352252323176016513e-02
2.728209123314080664e-02
9.119432711758183874e-02
1.839555048686483674e-02
4.293978919058746846e-02
5.596443099486520661e-02
9.341819508317017462e-02
1.306370849955320323e-01
6.187545377977057837e-02
1.028279647673801256e-01
5.762716200777478343e-02
9.035195157440570335e-02
1.184324810614155732e-01
1.375103956775677316e-01
6.826478946079828081e-02
1.037446989044511214e-01
1.663377152382321533e-01
1.775045581500135361e-01
1.427061309008159362e-01
1.514463194690101044e-01
1.524818709220632507e-01
2.175088802428893076e-01
2.048548204592618716e-01
2.353778918285600319e-01
2.311927713478423296e-01
1.936229083765634573e-01
1.928380460261573115e-01
2.071908315180281124e-01
2.035813606066406156e-01
2.266951459465045837e-01
2.228900590534247939e-01
2.436673050057030498e-01
1.874240867415072065e-01
2.230204145593357723e-01
1.968580098589652050e-01
2.392147811276130742e-01
1.480521261340311256e-01
2.264175982759456529e-01
1.736250272333687561e-01
1.997592820487038567e-01
2.031329704965863236e-01
1.719407089661137977e-01
1.764080600204290805e-01
1.944268230042402734e-01
1.746429355174188847e-01
1.863473604349729085e-01
2.008400781358938014e-01
1.599855793727226749e-01
1.890064590618857898e-01
1.242928401375936187e-01
2.111541373522728138e-01
1.031111002660213272e-01
1.129316349373247208e-01
1.621915077407011796e-01
1.427535198214323897e-01
1.286573998047529921e-01
1.081160945197901235e-01
7.906164618515215681e-02
5.467184827833058980e-02
1.065322957276355204e-01
1.047579240464698858e-01
9.216825395222100203e-02
6.540100608361669454e-02
1.167625223438158721e-01
7.531836865758914645e-02
5.887468101854578806e-02
5.924032954791315364e-02
1.037193199219789419e-01
1.529790069195707120e-02
1.163400456011306344e-02
3.433985679655637141e-02
2.389777349204847551e-02
4.418490234423740753e-02
2.027758488622146554e-02
3.631015532034168741e-02
4.572923906499062885e-02
3.108049580134573942e-03
5.527419972624837696e-02
1.405454613093159999e-06
1.860488288648856625e-02
-5.464512952333369644e-03
-3.799419528521975203e-02
-1.713231470122985808e-02
4.056042959369549061e-02
-5.515721634065239021e-02
2.364023231251741533e-02
-6.756850902964428585e-02
-8.677959121645331675e-03
1.968867600670298409e-02
-6.408751080033085745e-02
-4.192853676788421691e-02
1.995618147165511766e-02
-3.709770496670833362e-02
-2.733087357318995589e-02
-3.050035050439160386e-02
-6.033728665300953919e-02
-1.487438852474877102e-02
1.752967421989855973e-02
-1.700927740506313207e-02
1.453725630439516719e-02
-3.162475166714498465e-02
-1.526391219853683555e-02
5.481512182456300952e-03
-1.808829083295852846e-02
-5.500246191839948395e-02
-4.584751981876600269e-02
-2.135283011178022369e-02
1.554163709172350083e-03
-2.852439391248557179e-02
6.193988874056824412e-03
3.258967351015270436e-02
1.107618321138966605e-02
-3.616247335343818203e-02
-3.191574369917064835e-02
1.803059957384287385e-02
-1.419134644579501253e-02
-2.105542730894327877e-02
-2.735863808036952116e-02
-4.716616947316477904e-02
-5.013939520715111897e-02
-3.449395942044454488e-02
-3.430446670643438889e-02
-2.297521477312852722e-03
-2.997786259886653717e-02
-1.900934283440008574e-02
-3.173992676219362236e-02
-2.831993977739133764e-02
-9.051207175074293954e-03
-9.882215865811330713e-02
2.397684993912438042e-02
-1.991030269997702204e-02
-4.359211680032173269e-02
-4.733864749467395217e-02
-9.609125181948586017e-03
-9.739009094580444725e-02
2.941995340845864754e-02
-3.099559272402539062e-02
3.438377574181220031e-02
1.529899833748896848e-02
-2.548892945787716025e-03
2.610633281496640284e-02
-1.287004536421947412e-02
6.977798799954297582e-04
6.774104097728661511e-02
3.600588627279575210e-02
4.678761049985138976e-02
2.514238733133074971e-02
3.808261401838259133e-03
3.116661171417238127e-02
5.786946759784042382e-03
2.104283686570958267e-03
5.422628515591928350e-02
3.597953194911294311e-02
7.825463474072195946e-02
5.271152822928294734e-02
2.371880707475155364e-02
1.045769164368026416e-01
1.090418153672560592e-01
1.115137947917935191e-01
8.988190633766443560e-02
1.427573966901938551e-01
1.094822755773365575e-01
1.211684865061904981e-01
1.380415270108605041e-01
8.962707889300056130e-02
1.305988077803453551e-01
1.311258828232462759e-01
1.518932939792237147e-01
1.495460617527898939e-01
1.752927822161642335e-01
1.871835398992454658e-01
1.305404945666999994e-01
8.156282977460463379e-02
7.452915888355317320e-02
1.688992387505558745e-01
1.020935860621844105e-01
1.202635952172850936e-01
1.572535627617466514e-01
1.291367830235536085e-01
1.846307606498480691e-01
1.412552515197769420e-01
9.304192339280059620e-02
8.690874419914994264e-02
1.306156636050523068e-01
9.061474011690556774e-02
1.206512987946853910e-01
1.549946935181472918e-01
6.855181392905863869e-02
8.255015333689716406e-02
8.244997791989525093e-02
1.037346332854610087e-01
1.485936218721737867e-01
1.966590093288845820e-01
2.346695302369597169e-01
3.092727056592257662e-01
3.603184827677401447e-01
4.722047979659870776e-01
6.222804477893986164e-01
6.196288183304728969e-01
7.106444294401839112e-01
8.053730254810032019e-01
8.856819897506750250e-01
1.017334652126611783e+00
1.132022551121231846e+00
1.205463252032470400e+00
1.324261737080581591e+00
1.330375622828221083e+00
1.374634522707119944e+00
1.325048156099955188e+00
1.266646813565596386e+00
1.291484351535595820e+00
1.228429889222977911e+00
1.089447612386121866e+00
9.676723167659653235e-01
8.731672856734437049e-01
8.481143140017095572e-01
7.163920449462752860e-01
6.074430920222382291e-01
5.377556391926543444e-01
4.220394218217267124e-01
3.020894131284569961e-01
2.693965150928109287e-01
3.179867718837097179e-01
2.245793558173438675e-01
1.625458738511738055e-01
1.028180137672350114e-01
1.176576240159111914e-01
1.217867754064199531e-01
9.227870077883079669e-02
7.413603828764618597e-02
6.062492024741658603e-02
1.048231364366783019e-01
7.283278618297088502e-02
6.863510405930367542e-02
7.311455153175830390e-02
6.518153349958388798e-02
9.342389020927344134e-02
4.001880689416154741e-02
8.088586511808708301e-02
8.185063135354143926e-02
1.324449180369362267e-01
1.286553240566606360e-01
1.963134934086026018e-01
1.229135677079818412e-01
1.594177481928898132e-01
8.429587263729773627e-02
1.500336344675008149e-01
1.390008747523569510e-01
1.271591273038178982e-01
1.780005296522599589e-01
2.305840080276734816e-01
1.961937961596977864e-01
1.489485321732785250e-01
1.383161133319567582e-01
2.108384730797863704e-01
1.933714861573132271e-01
1.781202750708863469e-01
2.426095755994532865e-01
2.678771444650532296e-01
1.864193045108991365e-01
2.686429463641399895e-01
2.226371301008259751e-01
2.444422841540653535e-01
2.826992277821423483e-01
2.295617488913591353e-01
2.543467747989736627e-01
2.306478358971019160e-01
2.716815899653488575e-01
2.768011553536108282e-01
2.205433688947451842e-01
2.399242793681142238e-01
3.070097806467250723e-01
2.821265985859942593e-01
2.690005593035358356e-01
2.911936890588092131e-01
2.356186714653682179e-01
2.464089972611077650e-01
2.273028163950443492e-01
2.053203115957154268e-01
2.252293253832588216e-01
2.416222921426069981e-01
2.561648892397918043e-01
2.706252560986993627e-01
2.318441549206230468e-01
2.421486726431421044e-01
2.454645301296852489e-01
2.412628565951824289e-01
1.880238680026510012e-01
1.797745927504640351e-01
1.946593855153558317e-01
2.496989451176450103e-01
2.088629443673366559e-01
1.623224147353701241e-01
1.687626065975595391e-01
1.701202327763582101e-01
1.186723691387524260e-01
1.260939604519809576e-01
1.562679999803167630e-01
1.581041423111516075e-01
1.260158343258632740e-01
1.107051283547684090e-01
1.297706608925386362e-01
8.319642543121048839e-02
8.030722745207355406e-02
1.896628229154329048e-01
7.399370632699853179e-02
1.186734106412714596e-01
7.642117958890601304e-02
1.019914250867057504e-01
1.074861060369116383e-01
2.849337750250097515e-02
6.906134357671644963e-02
3.236515672515997283e-02
3.706560744183722000e-02
1.028707238009094194e-01
3.487713063664575619e-02
3.458069468374003197e-02
7.275377643499512936e-02
1.383367392668589102e-01
3.623135152838157652e-02
2.409382109538980507e-02
4.026483926592049067e-02
6.526418278909112969e-02
7.345129523501849056e-02
2.602430223406330956e-03
9.279021773063865497e-02
5.603900865266133596e-02
1.369940142313040739e-02
2.992473797382204717e-02
5.020775541728492858e-02
3.558213208696157231e-02
3.039734730163560356e-02
9.660060213008719865e-02
4.982817436791874000e-02
1.987435747895128710e-02
2.262023673723339082e-02
8.471348439891823734e-02
4.348357605092614125e-02
4.846925864867152045e-04
2.545023823006215685e-02
3.157218881889081036e-02
1.423436249217473193e-03
8.151614244956822963e-02
-5.250925187098198083e-03
8.176574977924407073e-02
-2.951279088347122381e-03
4.142321693239911506e-02
6.980118846781097064e-02
2.830027655360155270e-02
8.048158018903250194e-03
3.742597896014596137e-02
4.495978379817221204e-02
7.385195807367961329e-02
-2.448431905255114838e-03
5.991720608375796647e-03
9.532923784704638859e-02
4.067551167041547761e-02
4.673978267479357573e-02
5.668141843892815501e-02
3.861839178388704052e-02
7.272028928079607435e-02
5.556637730148589194e-02
3.790537656772105524e-02
-8.293695893611903458e-03
6.793409397210692369e-02
9.420809074808961237e-02
7.497328455819080029e-02
-2.696767298576010358e-02
7.764131748461611249e-02
6.162943567493250896e-02
4.434785944941872088e-02
4.509846235842211726e-03
2.253456194665831580e-02
6.097112699801292279e-02
3.592952653893049381e-02
1.129126140540696877e-01
5.549678699078450239e-03
5.329254992099972943e-02
1.037623303471166616e-02
1.287425169642820305e-02
3.150495496931302042e-02
1.588099523456643763e-02
8.986696491724482927e-02
5.354510245079815989e-02
4.935087497185339234e-02
8.603970106017924668e-02
8.594832110197994646e-02
9.013001312751953154e-02
9.085221572617496744e-02
1.202691849352680309e-01
1.335470193777064385e-01
9.023631065484719049e-02
1.766930594540810917e-01
1.331608710277551455e-01
1.745727148300259823e-01
1.489094418898459504e-01
1.766335439051977263e-01
1.124324293108743822e-01
1.284825967116070833e-01
1.500357044445845556e-01
1.345267695235834726e-01
1.855483849945335773e-01
1.805474861747339288e-01
1.543269264806530205e-01
2.033553321884045140e-01
2.129421216321662480e-01
1.280168075637746206e-01
2.224579813063974898e-01
2.107731617525798185e-01
1.437507033536795376e-01
1.691425147425432152e-01
1.682941006051257016e-01
1.569501139444625382e-01
2.287927079634307082e-01
1.641515651939815246e-01
1.065609095524976957e-01
1.622757247184396789e-01
1.489189452369679423e-01
1.412561159671095745e-01
1.681782176536071871e-01
1.122650151854204525e-01
2.050923597682604016e-01
1.461913626869284222e-01
1.509708877478213029e-01
1.390889477693841303e-01
2.048101470047071770e-01
1.473620164301246982e-01
1.897272749150188120e-01
2.157764318377604351e-01
2.279271232453588258e-01
2.899914265664625401e-01
3.472998284838655358e-01
4.018379044591430249e-01
4.463069315349275645e-01
5.216982265088846438e-01
6.231033686383619097e-01
7.044450126983152760e-01
7.879288628947243023e-01
9.292474594698224566e-01
1.072147352041543877e+00
1.140846954540679858e+00
1.173276087708679416e+00
1.289009166762324465e+00
1.369221789281675594e+00
1.371091339283381005e+00
1.393376485916769880e+00
1.483222417229144829e+00
1.398476235906786602e+00
1.287598157349633121e+00
1.236116686092166628e+00
1.119821355794267337e+00
1.019479771117077993e+00
9.531292268403639412e-01
8.462062306292937874e-01
7.337189742677872051e-01
6.080445788806795315e-01
5.782610513240945549e-01
4.078813276341096694e-01
3.719483630131659169e-01
2.732634349590562506e-01
2.604874480499991263e-01
2.073721615976486521e-01
2.250623875520546269e-01
1.596682679643888769e-01
1.838368072655143515e-01
1.240616567262168846e-01
1.069993249263023055e-01
1.298226199938824765e-01
5.212183462117517263e-02
1.051712956253067766e-01
1.236821224793707985e-01
1.882073011096877801e-01
1.430352645201605488e-01
7.410128884128724946e-02
1.128378871835312158e-01
1.046864004706975215e-01
1.578144293545778176e-01
1.778982516541632586e-01
1.111816978101497905e-01
1.969836855967589118e-01
1.416383273724935443e-01
1.487971776259015555e-01
1.454768571404661814e-01
1.712317667496025542e-01
1.958333489411376860e-01
2.377566188875327169e-01
1.701497637321251755e-01
1.783308428492349773e-01
2.491078705635736967e-01
2.189244736949892967e-01
2.148071755108142411e-01
2.484438178859491586e-01
2.311774928516441285e-01
2.256094211708943587e-01
2.502591126947595335e-01
2.718192396215468598e-01
2.364286922955314563e-01
3.048825303704886802e-01
2.743323781364587766e-01
2.776683556382806839e-01
2.692841874599226637e-01
2.777873654139354498e-01
2.701512753642435483e-01
3.292659549264056462e-01
3.019007966697734857e-01
2.840695103041037117e-01
2.741487146276689879e-01
2.860435517225815572e-01
3.146586234393810022e-01
2.888136948464353759e-01
2.918160501598009993e-01
3.006614714818805489e-01
2.783302758877962968e-01
2.896286419881897167e-01
3.515278613195205737e-01
2.921344377478071741e-01
2.895203351461513308e-01
2.567265906184184043e-01
3.003434367788556103e-01
2.501670594700305950e-01
2.742524353924740144e-01
1.968104858879967112e-01
2.293811159579358383e-01
2.306438629291706621e-01
2.319974717026015987e-01
2.224990559150723801e-01
2.648430537389935280e-01
2.198736632635804877e-01
2.518800365835784927e-01
1.804033091265122013e-01
1.652622284127684138e-01
2.398957978053807838e-01
1.611475795465142080e-01
1.901289827390625076e-01
1.672443542516427739e-01
1.344792873097890029e-01
1.210521486747092590e-01
1.311428614154021011e-01
1.366341876051009874e-01
1.561698010391109614e-01
1.401315276859659564e-01
1.222219986852576823e-01
1.580675770121178769e-01
1.615536214128521220e-01
1.216104229293329952e-01
9.776556603895669717e-02
1.071054649805590758e-01
1.109488912485058487e-01
5.545603072705074243e-02
9.323485415246814123e-02
9.264778668048095911e-02
5.813259015671178032e-02
6.819363507728555540e-02
5.929981173284670781e-02
1.152767339338410246e-01
3.950586795438954663e-02
8.520712010665686120e-02
1.203338077919568483e-01
6.658469858899204730e-02
1.090721419311529161e-01
6.863452415143805885e-02
7.849878182587213815e-02
2.092612957600241408e-02
9.942228545054487832e-02
5.063145542919010589e-02
5.627687441752571296e-02
4.674092391411341363e-02
3.359401410047341274e-02
7.984832198129797332e-02
4.341766123007085448e-02
2.999976201882574231e-02
3.104110536457768688e-02
2.405975012715308101e-02
9.696749848397615001e-02
5.536384163998665786e-02
2.712433869193657532e-02
2.602819289378771606e-02
8.129688720534591906e-02
5.798174932681535165e-02
4.841465049484336425e-03
-4.041014272300715721e-02
5.334629800566720315e-02
8.993270825562066362e-02
2.524337420947483576e-02
6.677017950790782586e-02
1.016508113110348999e-01
8.895263950755266658e-03
1.895357375376877790e-02
3.731358364636117031e-02
5.917158967768093580e-02
5.789152796924752070e-02
4.388059517788876762e-02
1.248033822181793817e-01
7.209905632048527191e-02
3.728914080655933161e-02
4.177846377636684067e-02
3.629283715777913838e-02
8.506477967631127790e-02
2.115909196552731575e-03
4.065285552537719477e-02
-8.659904080677349736e-03
5.743250850766850463e-02
6.386694409287292651e-02
6.110721441613474469e-03
1.465831172048369380e-03
5.070427481250492502e-02
6.128012529744637088e-02
8.055729525230426180e-03
4.440721720144841234e-02
7.354108064141995360e-02
6.946315781960997471e-02
4.402482354186291330e-02
3.742104630040254953e-02
-1.415557393284336968e-02
3.934127315125451885e-02
7.460763642939896578e-02
6.618997855082124626e-02
9.299591978039331575e-02
1.301058020177951469e-01
7.732576187633852238e-02
1.960728985985825401e-02
7.024630127788038247e-02
1.244002964227448604e-01
1.310150686467702053e-01
4.984931423959541863e-02
7.878312611343166183e-02
1.038326278447794376e-01
1.431846284211177045e-01
9.470227317787807686e-02
1.449903356509487096e-01
5.108233788785084689e-02
1.345912290996844063e-01
1.093003245626069375e-01
1.422245046848916727e-01
1.102828419642551960e-01
1.626006109235799413e-01
1.835607145665028583e-01
1.780916862706950765e-01
2.095095750252641831e-01
1.834872095067631437e-01
1.879868143550155468e-01
1.681660005220149967e-01
2.005056383963162159e-01
1.738629905751286897e-01
1.809104637138208571e-01
2.230279829292967919e-01
2.416196220875116984e-01
1.792818199336121965e-01
1.995161699427993318e-01
1.624639853315168470e-01
1.628406084417266531e-01
1.049583439538902124e-01
1.919192848929173190e-01
1.570731680458481716e-01
2.162081278325266587e-01
1.393991281871643229e-01
1.564705428823384981e-01
1.746056232172633893e-01
2.237232229463495259e-01
1.199939074582440368e-01
1.302539693585741121e-01
1.500453637068215329e-01
1.391731946309542611e-01
1.766997882167541389e-01
1.727330798627488284e-01
2.231756454463967310e-01
2.026963981600977682e-01
2.688838800108703797e-01
2.846997829597661123e-01
3.551082948151426666e-01
4.081379457968602464e-01
4.732333646838288721e-01
5.373153216500422547e-01
6.779359114923352303e-01
7.210408129061410820e-01
8.756289138802098027e-01
9.794203073590965758e-01
1.128270053466442491e+00
1.180988956506236809e+00
1.180860732073473196e+00
1.273716307214132870e+00
1.347885514188787104e+00
1.360624435060859394e+00
1.384886585166221762e+00
1.314647555344079732e+00
1.254551519646151858e+00
1.215904133828114686e+00
1.228276899322201965e+00
1.103234415619198439e+00
9.520562065555041587e-01
8.682424082047225378e-01
7.270182584471802656e-01
6.794485877128519924e-01
5.260011427821633667e-01
4.579143209219291855e-01
3.687541497152232450e-01
3.169627031655395388e-01
2.760416671794041488e-01
2.202064067722430962e-01
2.133857979558114182e-01
1.249242856078719988e-01
5.850980451247651815e-02
1.228194086685383962e-01
1.557437727080608070e-01
6.989390102157415352e-02
1.142272742732094309e-01
8.204191247521874786e-02
7.268857542110902792e-02
7.468602944647438624e-02
1.164253447909639749e-01
1.457057996082015694e-01
1.453369961887789330e-01
1.402709512368570388e-01
1.238151212166790083e-01
1.057828639177458563e-01
1.587772888889298351e-01
1.767860016644991206e-01
1.299832121429524145e-01
1.356464221106523649e-01
1.679526288123465994e-01
1.312619588662268244e-01
1.749107356798690893e-01
1.150044575391300922e-01
2.120786345574626197e-01
1.913825628158512537e-01
1.980886057924071963e-01
2.163937912291806764e-01
1.925085711041766845e-01
2.418965190999590453e-01
2.546280949650334691e-01
2.473710415846422928e-01
2.533619281118753563e-01
3.315832681145322036e-01
2.892015968959344430e-01
2.272217232289738820e-01
2.556766871424348553e-01
2.035903420484222459e-01
2.797523498067928660e-01
2.449323505114455457e-01
3.174870719760219950e-01
2.874255803339808013e-01
2.544419002031580446e-01
2.728767542075927199e-01
3.040303901483730198e-01
2.958680805736619845e-01
2.509688305324749291e-01
3.136953252790115609e-01
2.039027292207038489e-01
2.275246972701963633e-01
2.654816565128424455e-01
2.526616639908090822e-01
2.705141993394513666e-01
2.245270365537435642e-01
2.330818786525734876e-01
2.184943580856216483e-01
2.117512021680655332e-01
2.387637816591176021e-01
2.046708170650602399e-01
2.165443291107789214e-01
2.118483250553611918e-01
2.185757275580694492e-01
1.617301024210043014e-01
2.185573868862270563e-01
1.803950008032525198e-01
2.020300273775132716e-01
1.813238911267001652e-01
1.887128291964022542e-01
1.783860660095279993e-01
2.177281997160581128e-01
1.138722406465806358e-01
2.030713637630135460e-01
1.812408833447773371e-01
1.273689553964283405e-01
1.542258441108027567e-01
1.902904279785038455e-01
7.597678954211793678e-02
1.186101795201059683e-01
7.194012373399363836e-02
1.110174797030569760e-01
1.236163672667979913e-01
5.899740720800458749e-02
6.671100204747201778e-02
7.721141590499594476e-02
1.014912966012643525e-01
1.013639312726723057e-01
8.012455839318077810e-02
6.976102621223170819e-02
5.762814159212661935e-02
8.103210835416038704e-02
6.582395008776686929e-02
6.905586236949737278e-02
4.972649600383828583e-02
2.097669524359083854e-03
2.875879443082637876e-03
4.955365055555042281e-02
1.812239980335747513e-02
4.431744230958443997e-02
1.459959152787636098e-02
2.514605911926514822e-03
4.530097770941540758e-02
-1.735270703422023275e-02
3.797403450312498291e-02
7.993732816451701306e-03
-4.963337419497381234e-03
4.366001280011299300e-03
1.943836897519747933e-02
6.698202592766601404e-02
