1.351105423747895884e+00
1.347104495816547232e+00
1.317289186566591219e+00
1.235502942282002081e+00
1.137589980072217788e+00
1.060066781296106431e+00
9.639927272960038263e-01
8.289407068943651646e-01
7.283307547576310936e-01
5.867632444056322116e-01
5.454866230799696458e-01
4.419436449532695432e-01
3.953026963628967216e-01
3.055472589261404859e-01
3.013953434744670035e-01
2.263323214745392720e-01
7.212542585379186355e-02
1.044740483021823763e-01
1.013111796605057208e-01
7.908196888353392906e-02
6.903176921514095343e-02
2.555099034464031887e-02
7.874860534372542242e-02
5.410077788404012156e-02
3.580213541510467862e-02
3.521663529633019957e-02
6.527010561261487043e-02
1.417902685105567051e-01
6.475174558513478729e-02
1.061582641962076357e-01
1.196797953916438895e-01
7.619738038995946261e-02
1.036862062114963512e-01
6.989958100391792384e-02
4.033942589061949302e-02
1.181576878988782053e-01
1.223185885402767736e-01
1.075736274501573470e-01
1.711775498943312046e-01
1.533366014817096057e-01
8.721617694452848957e-02
1.378080730907591533e-01
1.649754746081037726e-01
1.856505401315283743e-01
1.853710864014351256e-01
1.891622271732320282e-01
2.097288134654236580e-01
1.458465245038768343e-01
1.922937127694155646e-01
1.781696023225465275e-01
2.563993794917040492e-01
2.265291672829745362e-01
2.315346133974856835e-01
2.410324931023370421e-01
2.211046444568074143e-01
2.017233961204984438e-01
2.321093006440145268e-01
2.488832712753607512e-01
2.988260223229463053e-01
2.787885194083065121e-01
2.140249952247426368e-01
2.600632186124525735e-01
2.669202656801231699e-01
2.047700484307272695e-01
2.277342962851040264e-01
2.304249056927999695e-01
1.988935580867889630e-01
2.228568080439915777e-01
2.268317613668647814e-01
2.536695587070098568e-01
2.162045931815682331e-01
2.027320687484774897e-01
2.027778340310008864e-01
2.512202804227325892e-01
2.299637457394069773e-01
1.600991084078992321e-01
1.998769109370532870e-01
1.683867537910004319e-01
1.378940803012830840e-01
1.729111350493673649e-01
2.184337124202152813e-01
1.786168046954290378e-01
1.457533819128896957e-01
1.790606804495829263e-01
1.640851344590343042e-01
1.261287931572588339e-01
1.669567425328323806e-01
9.012560131016744691e-02
1.570831146857835370e-01
1.271212982435148686e-01
1.080430290314332298e-01
8.585982624715791933e-02
3.032736474597513485e-02
5.830056382971334633e-02
7.703169587437755372e-02
5.107594746911940653e-02
3.866524585898491184e-02
6.923969361779282183e-02
1.533019180354425887e-02
4.755948560432941841e-02
1.210002770261189506e-02
5.288277921742749049e-03
7.304968826892692391e-02
-3.137310828317942807e-03
-3.875682004909164480e-02
7.822765368998772784e-02
2.227421127877077245e-04
-1.439794891037971328e-02
3.635398996066059596e-02
-1.035156252065993696e-02
-5.850153345187394591e-03
-7.845729206205631634e-04
1.442092114817503101e-02
1.226896748901491058e-02
3.898395107648695845e-02
3.305713053326767709e-02
-4.475196056049766252e-03
3.235697383093848883e-02
2.212278334390528275e-02
-2.773316778665565335e-02
1.567267042454318846e-02
6.817855626032028049e-02
-2.951377206132575412e-02
-1.399024871168562563e-02
-9.118958298178667099e-02
-6.477800454997757057e-03
1.911958785740276723e-03
-1.181430976736727763e-02
-6.685433182139110392e-03
7.139432939898795322e-03
-4.485302242294567088e-02
-4.964694323654143815e-02
-2.031720753451295158e-03
-6.335653866898292852e-03
-3.850818926557353361e-02
-1.465058626085424462e-02
-3.104379594056217231e-02
3.408019528508266643e-03
-5.094071440157429964e-03
-1.407391368196132114e-02
-4.349165985414717162e-02
-5.755761437996895907e-02
-5.477798200305257492e-03
5.321342880123915153e-02
-2.232133953704734664e-02
-6.188318053206578323e-02
2.512490796862586889e-02
1.784785984063622100e-02
1.497276265563154615e-02
-3.692674172645843411e-02
-3.934935006561731535e-02
-4.340589536862747566e-02
-4.276959211423267404e-02
-2.308818716771954271e-02
-3.434920178912066052e-02
-2.661680794453854040e-02
-1.728844379764220285e-02
-3.794089127873014056e-02
-6.906132883757275243e-02
-5.991676023036290183e-02
-3.023481438090350540e-02
-2.354985569514273652e-02
-7.284063551259201130e-02
-3.349101288945279670e-02
-1.210991227906323825e-02
-3.447502755298884058e-04
-1.161197257677912612e-02
4.040207159732349396e-03
-3.683956004731654688e-03
-7.104538610924893138e-02
-2.583509615825398814e-02
2.010274037701750838e-03
-4.501387319449263319e-02
7.518066451040722464e-03
-6.033565159744738032e-02
3.387346612676757351e-02
2.721708536667227785e-04
-3.575460743022852717e-02
-2.555252523264970807e-02
1.630752815024048841e-02
6.758778872156742668e-04
7.088790936751543370e-02
1.148329123272992525e-02
3.359483738535001124e-02
8.014653022414755523e-02
5.074306704722911926e-02
3.018431060829040308e-02
3.526062656393256362e-02
8.779900312288324571e-02
1.094588104975838527e-01
4.608410483615242581e-02
5.367329825239657709e-02
6.211105220415479022e-02
9.184039043335731622e-02
1.435590099074828818e-01
1.202374681803023287e-01
1.028512613632181633e-01
1.087915870256179751e-01
1.213121942125976183e-01
5.747511837352829028e-02
1.189539969202208225e-01
1.836346427324767883e-01
9.149341560850757227e-02
4.095079817687748841e-02
1.603926448047904019e-01
9.463148173183950906e-02
1.126082128569574903e-01
1.300050284548155410e-01
1.295475606963322202e-01
1.475702271356012785e-01
1.127833580920010043e-01
1.032760841396168916e-01
1.182335858343325913e-01
3.805676816783679084e-02
1.275764869143401758e-01
-2.982584074802160923e-02
7.136144319067155850e-02
7.402937446697052670e-02
8.453418096691570072e-02
-1.464475717606267269e-02
3.035828704525173061e-02
9.749493613303000794e-02
1.346839809954515355e-01
9.545810244977352699e-02
1.191577174387832838e-01
1.557200751865167043e-01
2.434325605296612516e-01
3.111261625537976583e-01
3.273987622659728092e-01
4.115457130069569702e-01
4.705499196247883154e-01
5.781843051531400102e-01
6.909399844106121069e-01
8.080743705058087700e-01
8.595884221804614977e-01
1.005571395217114805e+00
1.041174534479202052e+00
1.079050911948275848e+00
1.241513253146600437e+00
1.264316745992691615e+00
1.323130074919592003e+00
1.238320627184792411e+00
1.273282232208396758e+00
1.188270881614589713e+00
1.169043192096034023e+00
1.057458875378877394e+00
9.502393525510296479e-01
8.322236842879194851e-01
7.665005515226254174e-01
6.513391527049885443e-01
5.342987257459302919e-01
4.890709264856978322e-01
3.915080987397345225e-01
2.406941008232629520e-01
2.126398564271762825e-01
1.944060904561175085e-01
1.155331482045789115e-01
6.634012635823460791e-02
3.219356491488125499e-02
1.730332832274616289e-02
5.347696921825089572e-02
1.873934543607622127e-02
-2.745847923530123774e-02
-5.516925869332216237e-03
4.714555163284443740e-03
3.260477711335275919e-02
-1.331738364389897789e-02
-3.104095588913795972e-02
3.459664017875635489e-02
4.338994047283496747e-02
7.917247357592394064e-02
7.950682794401836562e-02
2.765763607628651810e-02
7.632146134294098827e-02
8.278639436130119655e-02
4.002880667027677170e-02
7.876562114506449608e-02
7.179906049758308373e-02
8.531433007943556301e-02
8.294609095683075362e-02
1.443294522034318794e-01
1.381124664320389495e-01
1.451828514983380392e-01
1.618431169774676437e-01
1.079441882552898413e-01
1.274468370750048984e-01
1.563904919276738470e-01
1.184620185851977259e-01
1.889426885288241764e-01
1.400715723450882966e-01
1.039804375707208961e-01
1.552227686968969955e-01
1.608917149005164304e-01
1.901178115992749884e-01
1.076636430563858993e-01
1.918436173661220989e-01
1.957463172873389612e-01
2.400010477773827366e-01
1.823622107359643141e-01
2.052152947195927668e-01
1.911130130244474146e-01
1.998076353041162712e-01
1.810014958780544470e-01
2.721779155341496059e-01
1.904766857773677879e-01
1.987054079916703020e-01
2.301765915737220003e-01
1.772647775019870475e-01
2.442127964286489317e-01
2.029630040924433332e-01
2.032171410127227851e-01
1.892876575504575110e-01
1.865389275244550005e-01
1.708220181488449563e-01
2.004206669801041618e-01
1.202367695630960076e-01
1.901758948689355744e-01
1.703303928245179788e-01
2.159239960347433818e-01
1.742966581214924759e-01
1.071549292354821714e-01
1.423148644237650640e-01
1.777947822365018304e-01
1.160608160916979242e-01
9.281577959326267613e-02
1.375172482267467966e-01
9.929973513544670949e-02
7.551433012195427064e-02
4.387383122709128530e-02
9.553382923769598856e-02
2.794890212020620379e-02
9.365191457937047104e-02
7.157442951026084244e-02
2.287005982701075663e-02
8.375177616914322720e-02
3.653790711196622937e-02
1.379777587367358310e-02
-8.896808986686800813e-03
-5.594887064570633339e-03
2.901853607675049240e-02
8.303353909811871103e-03
7.159832142129625432e-03
-2.907804997546545311e-03
6.452818440809396372e-02
3.487879386497722001e-02
4.962750280478592235e-02
-2.261658514257797181e-02
1.335155058279854923e-02
-3.418358389857543977e-02
-8.799838976101023724e-02
-5.366214295575931492e-02
2.463544421540422857e-02
-1.397767404228015403e-02
1.004188143762311386e-02
-6.597023413300144579e-02
-3.180356877294740481e-02
-3.811879836612369621e-02
-9.610622931872600527e-02
7.428983889716557487e-03
-1.574896631600657820e-02
-5.424483481797737205e-02
2.021743127611844160e-03
-8.497073314655112508e-02
-3.884982133452171554e-02
-4.643515984627632348e-02
-5.469551679025855956e-02
-5.068639849604754388e-03
-4.295951726673766236e-02
-7.715460423204950624e-02
-3.580091578072702729e-02
-6.519592028389223359e-02
-5.414812758953864436e-02
-2.132811166441795844e-02
-6.994639662100893274e-02
-3.782676885712174530e-02
-6.185784776972862165e-02
-4.036878048325628909e-02
-3.238526615985209967e-02
1.268320684099197987e-02
-2.431045594996768949e-02
-3.989341115537115012e-03
-5.093367638495160943e-02
-7.194973158494026577e-02
-7.039767340169561516e-02
-2.853458498892748677e-02
1.409001209266029508e-02
-4.812706602572665304e-02
1.252636427686901199e-03
-9.255926310905993049e-02
-3.433661444848767896e-02
-5.142620226325140403e-02
-5.670942627801042052e-02
-4.907647329058343472e-02
-6.310651703821774927e-02
-4.100131520936022705e-02
-4.028713754055444213e-02
-2.523431601911383521e-02
-4.508630458398636687e-02
-4.307791702156750502e-02
-3.988725081190666599e-02
-5.464262623559566767e-02
-6.404056328342289106e-02
-4.485704380194891622e-02
-8.567657342199712367e-02
-6.304526321996610505e-02
-8.682763737720974873e-02
-5.789261337593967771e-02
-3.339542420664189104e-02
-7.096156451548875366e-02
-4.312549100302664334e-02
-2.477147456849163737e-02
-2.528562401451556543e-02
-2.017595413955368747e-02
-6.621158056484387211e-02
-1.226466810692065923e-02
-2.547122177331067466e-02
3.076337100699183535e-02
-1.357072333530075225e-02
9.730311289547398379e-03
-1.310192937127793028e-02
-1.069898564929926132e-02
-1.913876274154326096e-02
-8.171110955533869569e-02
-1.553409073937353849e-02
5.160932892822812923e-02
2.371895748747716165e-02
5.987949781321146719e-02
7.982065966859530626e-02
2.389961478244332499e-02
7.635540945004334890e-02
1.164731953693915606e-02
3.280174175550789467e-02
6.964616098255785315e-02
8.072251879276751141e-02
8.737035010551229275e-02
1.392580207339746412e-01
1.343895146618283021e-01
1.028345578900622115e-01
9.618624220885742260e-02
1.402635936307809750e-01
8.664844740729979455e-02
1.175663108973037940e-01
5.977844336707231754e-02
1.129504114163265571e-01
1.769500688654693787e-01
1.419320379644646302e-01
1.138998548913142117e-01
1.266215479982639169e-01
5.134284794157319143e-02
1.183928026051643267e-01
9.879164800557879711e-02
1.283825400364606018e-01
1.005695413017882317e-01
4.734065961663689454e-02
1.260195818041485727e-01
6.720586028172179094e-02
1.249122145700464481e-01
6.150220660041712251e-02
3.665288663012154086e-02
3.051528221598205637e-02
2.317915663265657233e-02
9.742435002241131570e-02
7.108539645972900001e-02
1.241908127532464767e-01
9.773052305324947397e-02
1.694523239961029937e-01
1.870335258861469119e-01
2.409156405741265661e-01
3.207826846316839675e-01
4.055897108440087995e-01
4.692452597405858405e-01
5.887041818954088512e-01
5.905520603334042384e-01
7.119736519499451077e-01
8.279655287687783805e-01
9.630627968519036575e-01
9.943354117709641837e-01
1.091200436600542778e+00
1.202704070236074063e+00
1.227763876297712775e+00
1.218458932141852191e+00
1.291901317281502370e+00
1.257160140187490116e+00
1.187751931224392266e+00
1.173040597642020844e+00
1.005872425392119629e+00
9.789849248422849426e-01
9.612719090371797392e-01
8.321047948983998355e-01
6.977040265204599301e-01
6.131061175549771258e-01
4.624412023208410161e-01
4.615450605683293350e-01
3.396743496112087923e-01
2.680395351847822960e-01
2.126569522057726869e-01
1.621431551255382852e-01
1.215707228600642620e-01
1.351256564001086236e-01
8.361347855748219038e-02
3.775535967228362683e-02
3.775563371899873927e-02
7.284009323792611790e-02
7.309487872358599869e-02
-7.328459825642508196e-03
3.756135778162626726e-02
-1.050890547921323748e-02
4.503664981286228941e-02
2.138972635027567432e-02
4.815964295010022322e-03
9.084380813599732263e-02
9.068375235700168457e-02
3.899781044543042946e-02
8.199232608616865980e-02
7.036127442415998634e-02
7.555204237160748071e-02
1.129552740496628099e-01
1.054859691771503627e-01
1.011965016840062348e-01
1.793953147431045780e-01
1.138429378333730979e-01
1.178040883204447969e-01
7.274153032607016955e-02
2.050981134329119826e-01
1.065940181354429750e-01
1.888256562589432919e-01
1.258917816526388678e-01
1.601414900840720801e-01
1.883425233508162766e-01
2.467404068153882246e-01
1.550867266892423657e-01
2.315249153754756206e-01
1.712049696150290956e-01
2.071183534055459075e-01
1.684511490565457903e-01
2.112976098811039372e-01
2.271102333040860011e-01
2.389786631434029363e-01
2.403938704405666482e-01
2.165721840886732918e-01
2.078817865507690543e-01
2.544170214491781601e-01
2.683979299252648998e-01
1.882733327575467630e-01
2.202149649336485049e-01
2.064394197295314481e-01
2.323512776937268209e-01
2.030149834891712413e-01
2.255264050272654808e-01
2.469832528153877993e-01
1.632025940593039293e-01
1.938680176320628501e-01
2.089315600551175378e-01
1.788040387390837094e-01
2.132919474134931381e-01
1.625022107727107368e-01
2.015062998745502376e-01
1.833061396170552471e-01
1.551487809833944076e-01
1.336898289346477031e-01
1.784675226386893687e-01
2.194575768642180458e-01
1.778331090309357432e-01
1.702460663298619170e-01
1.307710000443371434e-01
1.363218182204796458e-01
9.978910269239241182e-02
9.895582852229810322e-02
1.327215989342127034e-01
7.633127685414674291e-02
9.814769746755100388e-02
7.248220173107021436e-02
8.446377493528872682e-02
5.705288280678080803e-02
2.029733128616796264e-02
8.650895046367999830e-02
6.790007218913125808e-02
8.696871852156004556e-02
1.033930843718426501e-01
6.668590197985396761e-02
7.292782250811537248e-02
6.810041619086323883e-02
9.231444130106461476e-02
1.099126514908213559e-02
2.311510420007072478e-02
1.174416791776827784e-02
2.654464473136311162e-02
8.992961457066628306e-04
-1.126878630929952288e-02
-5.817664399407201925e-04
-1.395795458452308950e-02
-1.117336753458768317e-02
-4.314462348428881044e-02
6.840713083273435025e-02
-1.930290217238304906e-02
3.479372622170299328e-02
3.281586309448643324e-02
3.761862094978262600e-03
-2.915505559295886173e-02
3.058949748606762387e-02
2.535837349143997901e-02
2.233305878804917738e-02
2.262629437066326910e-02
1.007426251889549304e-02
1.354062455882550781e-02
2.223701862386181366e-02
-2.515086090561080220e-02
-9.225711137437911033e-03
-4.800633606641438456e-02
3.692770731534884832e-02
5.856458501771837771e-03
-4.591638208091544660e-02
-7.695128877350153329e-02
-4.397051293748831594e-03
-1.322973323957158526e-02
-2.290343978053079738e-02
1.354471600779243515e-03
2.143433107139827709e-02
2.909070831041313254e-02
3.538483604619182404e-02
-5.890455934844941212e-03
4.426552919262594088e-02
-2.016264112485267879e-02
2.761106376248763199e-03
7.831042682792915821e-03
1.648450228258772562e-02
-3.920839096890129521e-02
1.886632213570281838e-02
1.281640884996097449e-02
-4.771990566438902986e-02
-6.548874701833070494e-04
-1.102635575628993850e-02
5.267302209824327452e-02
7.803940950601434036e-03
-1.479997364057828932e-02
-1.851138083455877020e-02
2.523295009269021366e-02
6.724286250526767192e-03
1.894598268295562792e-03
1.850604922244129119e-02
2.147615258087464014e-03
3.957131426037086702e-02
-6.570028828028439544e-03
-2.805957925683227883e-02
-7.343270183759268918e-03
2.628972331029211674e-03
1.138901445972801546e-02
1.351635698521221757e-02
1.574717078091433797e-02
-8.335605253373642651e-03
-3.184374675467434301e-02
-4.395423679734509342e-02
3.746294386417436256e-02
-5.194574832607452841e-02
2.971396636523283147e-02
3.873515785964448677e-02
4.605092114602428455e-02
4.524009384472748446e-02
3.339132301890966603e-02
6.772707097493480509e-04
2.516371279510795297e-02
9.048459372099514064e-02
6.937535200147106063e-02
2.670995769641785339e-02
3.779808955902603379e-02
1.320865745108210088e-01
4.208204032714107923e-02
8.361626219461587572e-02
9.592159996184196347e-02
1.261331938408592479e-01
1.316446024284356753e-01
1.270491876760266314e-01
1.183105218487322530e-01
1.370671108540111316e-01
2.195281377753833529e-01
2.372580521783324015e-01
1.556294070990913714e-01
1.296880952890726024e-01
1.463960934807953529e-01
1.750825469091004394e-01
1.234553006771546418e-01
1.760583004920571459e-01
1.618419424245144955e-01
1.110979000618407403e-01
1.696006510525318867e-01
1.419218179031428995e-01
1.890710912260664123e-01
1.496569555017093212e-01
1.091025110423076289e-01
1.361524661790896873e-01
1.524936080230067381e-01
8.257086076700310973e-02
1.585293573857895488e-01
1.113125437425549480e-01
1.537691819474060473e-01
1.823997672668298820e-01
1.582013275513088346e-01
1.154904702619827112e-01
1.473275661760450050e-01
1.336402467604885236e-01
1.209504463323577139e-01
2.178118752197060193e-01
1.612535634359955061e-01
1.304654111309697384e-01
1.738293953094026401e-01
2.099905905281709562e-01
2.430243703327278904e-01
2.748731709709707483e-01
3.403674504347454777e-01
3.900897663474784394e-01
4.813161364275655996e-01
6.158007286979283457e-01
6.653765983879168511e-01
7.577325641853358551e-01
8.965128523234355828e-01
9.863964573081239751e-01
1.048631735308405144e+00
1.110020165167308948e+00
1.175226165145301316e+00
1.302964891945866066e+00
1.401977950363695768e+00
1.330520806999131889e+00
1.251177783780468289e+00
1.338467449297654710e+00
1.261147193550969714e+00
1.177164748858315679e+00
1.062350747920634664e+00
1.045749354808220843e+00
9.064187272209308643e-01
8.309504921611946537e-01
6.976894794824242130e-01
6.553199845080169839e-01
5.129015955784270719e-01
4.026554171351659495e-01
3.673341220410686336e-01
2.917662383918928626e-01
2.021370482270871127e-01
1.678117469747014145e-01
1.635362551206559212e-01
1.777654718731227490e-01
1.014255242651311284e-01
1.358656669973417885e-01
9.026742814475355314e-02
1.343956617563760725e-01
1.480294560990952912e-01
9.518244214096586997e-02
7.221183008868112263e-02
7.458731505113186389e-02
1.290227731105435260e-01
7.385748963331832673e-02
5.518316356228056968e-02
1.490812161321042051e-01
9.186261891755287401e-02
8.325072655554674461e-02
1.061534436085677657e-01
1.299535845840301129e-01
1.055881948860071251e-01
1.152689440895334899e-01
1.635586790752422692e-01
1.472475276377058773e-01
1.835507173397292191e-01
1.952437343254579960e-01
1.658541887483483968e-01
1.858694679610800038e-01
2.223349298592691980e-01
2.404723221811818079e-01
1.383737482923070305e-01
1.732103396314214061e-01
2.299566470148481923e-01
2.310275558931223772e-01
2.275629284007875119e-01
2.303913848820548782e-01
2.231608202276381125e-01
2.977340740863593238e-01
2.259684371049977825e-01
2.585585552885518168e-01
2.627674563234503324e-01
2.954209776241791818e-01
2.948699789032439567e-01
2.749436097310832827e-01
2.699138730200285607e-01
2.503362009167987567e-01
3.171613282467719008e-01
2.279897518949776936e-01
2.512070048316969451e-01
3.080794402755119288e-01
2.504868037483187759e-01
2.987371574255999196e-01
3.186564744986743469e-01
3.113020072809750682e-01
2.530942190375149448e-01
2.584713013403739379e-01
2.351567634148108710e-01
2.674728402579964470e-01
3.081255508071167881e-01
2.549982090422391323e-01
2.492677122596079209e-01
2.482313374197724076e-01
2.352672026712048781e-01
2.515398220551108843e-01
1.815357440371829501e-01
2.249925486004986930e-01
2.352089921920353377e-01
2.389991831912411380e-01
2.467258851971865230e-01
1.728452100257921176e-01
1.615981173408366500e-01
1.703534417012377011e-01
1.992423121553204002e-01
1.270754439295166682e-01
1.693758569139881542e-01
1.641043956386654401e-01
1.331024190887452607e-01
1.665449465600092327e-01
9.801769542610816455e-02
1.734860698161619363e-01
1.450794666293888646e-01
1.143092237770314962e-01
7.721157481619804475e-02
1.100926503347523233e-01
1.237724300926702214e-01
8.517646587396053570e-02
3.931370268418333397e-02
6.784124223405998966e-02
1.642185516294960013e-01
9.766582975383406029e-02
7.293687314302652047e-02
1.550243501119359379e-01
1.033267002282362429e-01
1.257798904844631693e-01
8.080156466691122696e-02
9.500422644718820031e-02
7.146853827776775137e-02
3.907623050288497324e-02
5.658765229183249784e-02
6.235759971747142916e-02
5.467356807651242712e-02
3.529019546557222997e-02
4.615549152407033562e-02
4.071930570899506135e-02
3.734656554096029563e-02
9.234881080093300387e-02
5.839684074534161329e-02
9.345761039723107788e-03
6.337245467866625681e-03
3.606214357250331348e-02
1.933381126212287832e-02
3.924867934250488022e-02
1.044771650660197837e-01
2.409704935076207796e-02
1.538213898501174931e-02
5.619278029795441581e-02
2.170089409375499517e-02
-1.159699690626308372e-02
3.579042243204313967e-02
-3.526491381442668771e-03
1.745622064605683796e-02
5.545348381552499262e-02
2.255347781525654516e-03
7.355719327153473208e-02
3.870533484838629273e-02
9.282702179840124357e-02
4.668614668800781520e-02
4.108538186252790742e-02
4.753598354935289344e-02
6.219012835810423800e-02
8.732610262868042983e-02
1.532878365876306354e-02
4.660137485119500433e-02
4.374744295659738907e-02
8.153981890245541597e-02
5.330092515272229214e-02
2.028986427997814257e-02
4.865390086661275371e-02
1.470335639357361890e-03
9.335117351097393934e-02
2.846738617618912656e-02
1.157133448744988163e-02
7.225489665910925230e-02
6.521288256193136235e-02
1.071116322054902203e-01
5.550504523517562488e-02
6.652690803475468095e-02
6.534477133286989425e-02
3.832037855975655577e-02
4.656415986800816614e-02
8.747243733653310704e-02
3.071871497391048464e-02
5.783518713849655768e-02
-8.875051495445679395e-03
7.828967511566209403e-02
8.112501154437348760e-02
1.082405388253675632e-01
7.425720892136553064e-02
3.837863361270532625e-02
7.593142306208067183e-02
1.560420593986233950e-01
3.594440876688773101e-02
8.459133684647940354e-02
3.449444952353553778e-02
1.301105476488444435e-01
8.541594208098043928e-02
1.228133114014863803e-01
5.864462368646006230e-02
1.020244611541045732e-01
5.077500180379571071e-02
9.877423877908503291e-02
1.441179400694905799e-01
9.801454204226325850e-02
1.791256160487132709e-01
1.209255258868846550e-01
1.371719486198159643e-01
1.248972004665075408e-01
2.144466996561909533e-01
1.060520433924604655e-01
1.817509245883895397e-01
1.724874643009860486e-01
2.317408093234554489e-01
1.730701442199178708e-01
1.835702570837353664e-01
1.772426947210074821e-01
1.969837264041990887e-01
2.181394766265773166e-01
1.960316646718539002e-01
1.695178335459028296e-01
1.864080177047915399e-01
2.139253628624113723e-01
2.170312617688680001e-01
2.488194890874388110e-01
1.789771871306580775e-01
1.892855199746867334e-01
1.955536543503604285e-01
2.024168793401970312e-01
1.960983180020328398e-01
1.316242366063695157e-01
1.175639431515434208e-01
1.745871224563810831e-01
1.318868074445201100e-01
1.304432555835876306e-01
1.455363502922610019e-01
1.013057378238115536e-01
1.507146298198159540e-01
1.547528115072596966e-01
1.636024266327117394e-01
1.571797382816871314e-01
2.665954266929234651e-01
2.877535377230749924e-01
3.406282402731377057e-01
3.080658455590257749e-01
4.158387490568182798e-01
5.405308689321646209e-01
5.623330867268444555e-01
6.562113220725047658e-01
7.411685375507193196e-01
8.460251789867679895e-01
1.006868266384146837e+00
1.003549655561397191e+00
1.136126413048436534e+00
1.249781423597769336e+00
1.271466494705729255e+00
1.356776696110550517e+00
1.371675426710026180e+00
1.399663669318991666e+00
1.337040578433403182e+00
1.294285687836965071e+00
1.250573199394720003e+00
1.165944501471265049e+00
1.083101324510732599e+00
9.965507518341281123e-01
8.808162366451975922e-01
7.611189557887280133e-01
6.378340433808060705e-01
5.826683276530248978e-01
4.503664234694881308e-01
4.257991617406904350e-01
3.350821514218761399e-01
2.759143871263697312e-01
2.234805995598355133e-01
2.075901090241373814e-01
1.680731933605557893e-01
1.418656864746541957e-01
1.500444171641249769e-01
1.164613512052606048e-01
1.309531564885292043e-01
1.482594374911637147e-01
1.156348562408731490e-01
1.166145106116878577e-01
5.686209854603409969e-02
1.382206227543659460e-01
7.211420477537616724e-02
1.402660050983945972e-01
1.226590418701370006e-01
1.326150836335781014e-01
1.131186879927499056e-01
1.274659711767832104e-01
9.025275290274947793e-02
1.965226129238191732e-01
1.657711814178121357e-01
1.626488361196950783e-01
1.166107445190950054e-01
1.765004017968586914e-01
1.597446936082448088e-01
1.364049633667006600e-01
2.224686069391189625e-01
1.993792886696418021e-01
3.001685105569426026e-01
2.243559302229347074e-01
2.234232107675663548e-01
2.896586966010470388e-01
2.366858973648698072e-01
2.550017970908955434e-01
2.980865523554638297e-01
2.689263655888740612e-01
2.588764617349532671e-01
3.132165810671446726e-01
3.067059592597961570e-01
3.465586600615151447e-01
3.177167973175643034e-01
2.918382455030289480e-01
2.947041514682301466e-01
2.933471425658398246e-01
2.687282832068162985e-01
3.047296166873433299e-01
3.354773617809280739e-01
3.299567831095064907e-01
2.759749988647538510e-01
2.781230216854212456e-01
3.247622960426513328e-01
2.727113063125825021e-01
2.678396151404185965e-01
2.649205435968421396e-01
2.802156850812834166e-01
3.194016520477985233e-01
2.789380567423841994e-01
2.622745586474531376e-01
3.078160745975898616e-01
2.465109021575337400e-01
2.318824750630947285e-01
2.461376692317167603e-01
2.397497933748937160e-01
2.509161488579157440e-01
3.008951032514351476e-01
1.962281679161960724e-01
2.137368837687165513e-01
2.375361153451578389e-01
2.345601270037556696e-01
2.640587370869942885e-01
2.259159289719159247e-01
1.787118846306031128e-01
1.770233738269531565e-01
1.503769267961845846e-01
1.658465985874623405e-01
1.813180553727852806e-01
1.550190991712797062e-01
1.452842450316663148e-01
1.632556664271053726e-01
1.646764416609473591e-01
1.546547945213205266e-01
1.582561130900718704e-01
1.279165192273068186e-01
8.522786576726693042e-02
9.613267841630104837e-02
9.548539040579362425e-02
1.057491751420149007e-01
1.278332769228206212e-01
1.000094861794391804e-01
5.836901071418781894e-02
1.070345850648832392e-01
9.276477490627216271e-02
9.142113715116684247e-02
1.426606754446093084e-01
1.451212890895887953e-01
8.656169465618956949e-02
6.194661273889601888e-02
8.865692656850163167e-02
-9.320520389475110690e-03
1.831409491087606506e-02
9.586963495167385996e-02
4.052863079336792296e-02
3.846251756239815051e-02
8.615432149636838288e-02
5.926098807453229755e-02
5.330220454283519232e-02
6.135656261115323556e-02
7.444950527659295603e-02
9.576479291609241162e-02
5.438253957908839586e-03
6.237555097828071521e-02
8.675821235983602331e-02
-1.846088805857572235e-02
6.378067214610502744e-02
4.115388915347675119e-02
3.979969074609519819e-03
3.430612910057230514e-02
9.818097847530332656e-02
-1.443307487325062172e-02
6.503359017729751224e-02
9.069577346155890951e-03
1.037706357291284798e-01
1.243511940768455004e-01
1.453685011962418602e-02
3.677231190302383823e-02
6.317371696968207551e-02
7.813805902525836067e-02
5.595780119558642351e-02
-5.573925492842482510e-03
1.094575824880715531e-02
4.257981682673242507e-02
2.239559612652980772e-02
4.030403205769664265e-02
-1.585672643397567638e-04
7.216382530391023120e-03
9.099895682234543370e-05
5.605969462416921650e-02
6.088180909853607714e-02
3.761108451828264893e-02
-1.387767753300775397e-02
4.554965482568999746e-02
3.503857795341651371e-02
7.726093522499258293e-02
3.569915447942102749e-02
7.126426408741982910e-03
4.037674850167717600e-02
1.985586754526052350e-02
2.148571808819343260e-02
2.543913151596495156e-02
2.944733574614221208e-02
3.217002533663351760e-02
2.766632986251250578e-02
6.604949811233445933e-02
7.904210481983420244e-03
4.828894329738255692e-02
3.007708809455576782e-02
3.094662156054425045e-02
7.795243940488499890e-02
7.913829963161439496e-02
6.591691367635332810e-02
8.893161489388230756e-02
1.154258756106567585e-01
9.021966121970045882e-02
7.555155257196286001e-02
1.035270751444016535e-01
4.582380195443307852e-02
6.721713659995048884e-02
8.837113321776732255e-02
1.013811385771571927e-01
6.379092964198072868e-02
5.907833893890267196e-02
1.038143138758477746e-01
1.286506784694792516e-01
1.702866062982547335e-01
1.278030727776734987e-01
1.474678500684373783e-01
1.407587821860466493e-01
2.206604812803170390e-01
1.644304446681269516e-01
1.258477766406633225e-01
1.756172677577640118e-01
1.681480178519311197e-01
1.593065918425963789e-01
1.509724359349723655e-01
1.748189464505681412e-01
1.638978907122438100e-01
1.644997896495976608e-01
1.861886604424878855e-01
1.938911971907983922e-01
1.715852853709264048e-01
1.601573776425185558e-01
1.600553549815662835e-01
1.892339878001265130e-01
1.709173867409231329e-01
1.395118304627684935e-01
9.571660891586761255e-02
1.818843030251968695e-01
1.182744317006782092e-01
1.072322452684230376e-01
1.574991346016274829e-01
8.851695682371386875e-02
1.122884003255827240e-01
1.548291058761638583e-01
1.430186350650409777e-01
1.190760078809370293e-01
1.247467265989229274e-01
1.210734315364138530e-01
1.471987743482312538e-01
1.671767671340349537e-01
2.057997681169089210e-01
2.703565848298580820e-01
3.035162151049733970e-01
3.445452091101393610e-01
3.980884308022200058e-01
5.156701897474458285e-01
6.117825214061866079e-01
6.753956115289218021e-01
7.889244955315787289e-01
8.063161633018612884e-01
9.593823267417819212e-01
1.032569023878782577e+00
1.166453885657674050e+00
1.198755808579780702e+00
1.377459604130020221e+00
1.346983736854399094e+00
1.346263068529552687e+00
1.311074861909001799e+00
1.280911449050162298e+00
1.248539926890986695e+00
1.230810623615350430e+00
1.106715759963303736e+00
1.003668543643388533e+00
8.768051810205905738e-01
7.207662530611376184e-01
6.637441640731103210e-01
5.642917721704859835e-01
4.813932912582801205e-01
4.039265766970451255e-01
3.385838975901648840e-01
2.496413435218344801e-01
2.499870978985480052e-01
2.295812897173756528e-01
1.394397677313942707e-01
1.286427651856750509e-01
7.416310381261984053e-02
5.859747487204045036e-02
1.235321681070034316e-01
1.067147581659429884e-01
7.936164183450059029e-02
9.009980335541310781e-02
9.391821662719330999e-02
4.884455953194087596e-02
4.340040128264216479e-02
4.024661598692619302e-02
1.021715784897653662e-01
1.354346222780583586e-01
1.207204066919439212e-01
8.935286382022060436e-02
5.587725386264363187e-02
1.486691400935125640e-01
1.299044038629557918e-01
1.316679267741557025e-01
1.476828549499921706e-01
1.256970994765966576e-01
1.397503093705405319e-01
1.458880808717177568e-01
1.819719060792444054e-01
1.506761513405691644e-01
1.662696374897509877e-01
1.662686326582757113e-01
1.695613655715455248e-01
1.865613589093410019e-01
2.045039184813736977e-01
2.262167025710258295e-01
2.453748452895508081e-01
3.031960617083649390e-01
2.549113150787241100e-01
2.521982768092315141e-01
2.280518316552862523e-01
2.676359951034988360e-01
2.905576103464222459e-01
2.549447656690263520e-01
2.485036189780538973e-01
2.663627279437926765e-01
3.013868302127367116e-01
2.320693311729277453e-01
2.966496265936497401e-01
2.754405349951208337e-01
2.360236386094247130e-01
2.453391239735421003e-01
2.618616663700252811e-01
2.296860971316383726e-01
2.880331958680621973e-01
2.681481673437654534e-01
2.011582784217066378e-01
2.597309276713105630e-01
2.396117677339997254e-01
2.420973230991015357e-01
2.473813083872903051e-01
2.274101845208003070e-01
2.286451126295525882e-01
1.912319083217171867e-01
2.490907034600213510e-01
2.166359688351864321e-01
1.578292945171500261e-01
2.047379944919917594e-01
1.258254338547963591e-01
1.251000921116673104e-01
2.100226072740203342e-01
2.011875354277292416e-01
1.450062226197268433e-01
1.584695746202339217e-01
1.472899414624379011e-01
1.248375073668278185e-01
9.729719870556582939e-02
7.623638826655693146e-02
1.369962161276138957e-01
9.341728204231680710e-02
4.486201905550830926e-02
8.212791863742588405e-02
7.605641453737986557e-02
1.547039224651375888e-01
5.779176525995436547e-02
7.455917221524432925e-02
7.002612601667809744e-02
5.905687218883382689e-02
3.770359783782892965e-02
5.306751087862081329e-02
2.231558032215813156e-02
6.102834937022465212e-02
3.564179423598624191e-02
8.998562486644764297e-03
5.532543264550394274e-02
3.585584266991922314e-02
1.063121085332159425e-02
5.221313412168433754e-02
2.152228056046343041e-02
3.873753817512368830e-02
-9.883539326878095985e-03
3.917749506417511976e-03
2.885831800263342559e-02
-5.795694002215766305e-04
-9.005023160037279456e-03
3.469675705226629020e-02
3.796538755802367215e-02
2.413896597101863190e-03
-4.615714112231715516e-02
3.032750839898626025e-02
-6.573400297787478086e-02
-3.867976412621747934e-04
3.780068731231270296e-02
-2.753429321176059652e-02
1.223655453026278178e-02
-4.814455824285242963e-02
-2.079719569048149239e-02
1.806363580818468734e-02
-1.054254756571439307e-02
-8.554367539554907918e-02
-2.445786688272268833e-02
-6.340550286120293089e-02
-1.871590158603798210e-02
-3.339230145816268064e-02
-9.048060706461316660e-02
-3.683032690258560005e-02
-4.713364032575799445e-02
-9.582430215800833220e-03
-3.833542604409356097e-02
-7.635531519311202636e-03
2.410226240036925788e-03
2.829418239164662938e-02
-1.023738807547043377e-02
-1.743792084525696423e-03
-2.355899895645757747e-02
-4.377063640399245226e-02
-5.436419911037521091e-04
-1.356177690376726697e-02
-1.674118246914724911e-02
-1.977360564742735444e-02
-2.648790448779854423e-02
-3.643054878628058935e-02
-1.948526576762329640e-02
-4.416003448423868466e-02
1.946781945185364904e-02
-1.109141393389498700e-02
-1.020679359963160560e-01
1.940629453717766448e-02
2.324473830061431906e-02
-2.286735005316399214e-02
-2.796468494435642646e-02
2.023896664653561384e-02
2.299367470920114787e-02
-6.428946477476585319e-02
1.032983400128847234e-02
2.295102208626124615e-02
-2.948376141824469998e-02
-3.592391892726933683e-02
1.203323425753576037e-02
5.550559126971005286e-02
3.924920305083557520e-02
2.221030612853532038e-02
-7.457226561031517209e-04
7.234740977399831130e-03
8.091483210574571677e-03
4.749014028989799463e-03
-2.111264646504785319e-03
4.258188181187730348e-02
-1.461458741136368797e-02
5.628472017278526168e-02
2.127019451936160849e-02
5.634001503065530492e-02
2.469241289836600003e-02
4.040592157423854303e-03
1.022845937679932038e-01
9.410012753457937251e-02
6.041940749870584881e-02
1.379746139377598102e-01
1.310636652981094774e-01
1.046406141353997260e-01
4.908199997926095126e-02
5.714685364866976813e-02
1.074144477210506599e-01
1.372617808751798174e-01
1.613560211441371350e-01
1.210548310148194529e-01
1.407546456274780533e-01
1.540264649272570785e-01
6.944850829333971964e-02
1.028995748406729277e-01
1.333110718577724396e-01
1.373282287722224493e-01
8.620245141570699599e-02
1.377971460605524889e-01
1.385711310278783803e-01
1.182337474329234750e-01
1.277861662303561574e-01
1.143188424715440993e-01
1.142523915902942944e-01
8.819203000970374240e-02
6.758039700373094649e-02
7.918594598222035430e-02
9.097433996243803334e-02
1.384585116947150557e-02
3.974646922550987421e-02
5.038002006873078947e-02
2.867836303122259234e-02
7.607781234741289866e-02
1.366516461245438629e-02
1.084913303253129957e-01
1.040100222990995305e-01
1.448771127096466493e-01
2.061783527789343151e-01
2.378289219356293227e-01
2.301025792820479143e-01
3.015417615438707455e-01
3.779061181401396352e-01
5.683593617753682770e-01
5.257018224194327516e-01
6.674004841902354546e-01
8.120810123718401607e-01
8.790156026294522196e-01
9.720985903095844538e-01
1.113467825831589098e+00
1.097319070708993038e+00
1.228404483128982871e+00
1.234227319919767085e+00
1.285591610652461192e+00
1.311662262728469752e+00
1.237326648532925732e+00
1.206578396932163511e+00
1.177807717571039969e+00
1.017851685880009072e+00
9.957916489592723019e-01
8.558231689329209857e-01
7.970565358374390730e-01
6.591881858473829237e-01
5.483321756370986844e-01
4.751061864200412654e-01
4.205402674253289064e-01
2.957445100740455635e-01
2.284551002893152605e-01
2.240107142954006758e-01
1.405574451632102817e-01
9.729244648748591739e-02
7.119634936779953294e-02
8.795081159874969245e-02
6.857210959131029848e-02
6.478218571922440827e-03
1.189914046453671714e-02
5.260460942521134192e-02
3.963671159795395527e-02
-4.966655408035861030e-02
3.456775261336157701e-02
2.643040261743260372e-02
6.679383013533532476e-02
8.733014382049565649e-02
3.343972662995459144e-02
1.283713015883584940e-01
1.334226679413963446e-03
5.625835531901576120e-02
6.726589924486089944e-02
9.386307767882715036e-02
1.077539165289888717e-01
1.203401622848695451e-01
1.152291281046518845e-01
1.085280813024041280e-01
9.966049121146303147e-02
7.709506368994070713e-02
1.105200476833828049e-01
1.203026367084267245e-01
9.215093679676514271e-02
1.616347424906469099e-01
1.217857000658075506e-01
1.677523195707097958e-01
1.670300420575244194e-01
1.257350738528531242e-01
1.384583329334087010e-01
1.531329126264968088e-01
1.627545649401613836e-01
2.255198416008847573e-01
1.930825757057791914e-01
1.685907074251581095e-01
2.145002044997977864e-01
2.423033468404225954e-01
1.838285852021387390e-01
1.990027944195819631e-01
1.842022935006032702e-01
2.215854090160112311e-01
2.193162508569089786e-01
2.123988829076935425e-01
2.070367667427651104e-01
1.663270122200545265e-01
1.563599689825180550e-01
1.994988757853962680e-01
1.635992961813206303e-01
2.022338787227356549e-01
1.489750226773769448e-01
1.725364017754736912e-01
1.705656952089878442e-01
1.053669056558384221e-01
1.487673595154051231e-01
1.781729465092096454e-01
2.113090172193819727e-01
2.044186196309670522e-01
1.600768697613976776e-01
1.561821671745287077e-01
1.678922230637160673e-01
1.037239640241129912e-01
8.546148583497804874e-02
9.423572140115857310e-02
1.026944862172231299e-01
1.231873752459487492e-01
6.500956664213826397e-02
1.066510468002593304e-01
7.795626875837452507e-02
4.954318590926358457e-02
1.060592481883599059e-01
9.485864326058912610e-02
7.184965157899587951e-02
9.424882961031252893e-02
4.901530093449316117e-02
3.637055629417191432e-02
2.783295914433517315e-02
-3.612276117213604476e-03
2.224334651018766706e-02
1.278170505690887776e-02
-3.639175455240117874e-03
-1.781780511030964589e-02
2.838177177282798225e-02
1.847222431456658348e-02
1.738592747969990027e-02
-3.069432861341308064e-02
1.818907750276566038e-02
1.226069129178219974e-03
-3.462283364930318630e-02
-1.330024739182863319e-02
-8.253692231075004937e-02
2.355754069811024504e-02
-2.453350690264004264e-02
-5.847269232963928087e-02
-3.458353159246418951e-03
-7.030166571905029083e-02
-2.886310533592235592e-02
-2.306107855009227603e-02
-1.876614199452499021e-02
-4.961948759793159691e-02
-4.686909743081040663e-02
-1.757544782608665146e-03
-3.351288343712383044e-02
-2.430428076130919379e-02
-7.163685548234374756e-02
-3.730259394747417051e-02
-5.077502982010032723e-02
-9.643647689212406227e-02
-6.343450724744166547e-02
-5.210077965360122854e-02
-2.689008000399610923e-02
-1.070687965912981987e-01
-1.453584754098154880e-02
1.814285384239700677e-02
-4.167198848158926161e-02
-6.770339581872031331e-02
-6.354790984613634119e-02
-9.452728479395557104e-02
-6.298691513394694130e-02
-1.043999638749228964e-01
-5.566697478053993231e-02
5.170557059368983965e-02
-2.826088842954464775e-02
-6.910862239423243292e-02
-1.070956978149182615e-01
-6.335839547307686725e-02
-2.352210926886048187e-02
-4.929983810841925829e-02
-3.087193021467292062e-02
-2.064582214420455919e-03
-2.509363932152313542e-02
-3.874098974638011395e-02
-5.912318740647144050e-02
-8.181894092585753619e-02
-3.448967970136000705e-02
-1.631317601893399888e-02
-1.021727941336922629e-01
-1.657342776994698286e-02
-2.050086562465458506e-02
-9.120426425148070448e-02
-5.142062516200117395e-02
-3.736623283706998894e-02
-5.615870400967537535e-02
5.879054911826636642e-04
-6.192031993596074091e-03
-5.897211078599438189e-02
-6.136655478343250314e-02
-3.031555706425585750e-02
-2.787403527435186601e-02
-6.436420100167494773e-02
-5.769812509521717730e-02
-7.466783203134055857e-02
-3.391713397884535408e-02
-4.846178886606468394e-02
-6.023422406268959250e-02
-2.383621160463452598e-02
2.199362816779353025e-02
-6.717402789647486383e-02
-2.148756731284505450e-02
-2.677434202987492157e-02
-1.814403741674174703e-02
1.316433416196582246e-02
-1.521643147736948670e-02
-8.411620754285309420e-05
9.149771103539990069e-03
4.380456513055290546e-02
2.094999030467462053e-03
4.688003526788663000e-02
5.631129200405628199e-02
5.966529883580316829e-02
1.404233596119951882e-02
6.426927818512494228e-02
7.507958691976096555e-02
4.879456910471950681e-02
9.978258539680459616e-02
8.795824780508063045e-02
8.696967189156065703e-02
8.991660707459384061e-02
1.054785472352777198e-01
7.167961934796911183e-02
8.069803280420220770e-02
1.110559267102898817e-01
1.310993357211294175e-01
9.839958808080750963e-02
7.836715834200796982e-02
1.029674848482050320e-01
1.209573421846351915e-01
1.106195604899494200e-01
1.379539320443816108e-01
1.190212562425217169e-01
1.179036572032031993e-01
9.673837660297016083e-02
8.844767068644746044e-02
2.614850771730783952e-02
7.418573735600555996e-02
8.072103639572617007e-02
4.122146120752316623e-02
4.412951922198509597e-02
6.030638325482525625e-02
1.381981158214701244e-02
9.581696860861964316e-02
1.244234053315915189e-02
3.870730083144827138e-02
1.054073676294325773e-01
1.611392997475228905e-01
1.678987723059391091e-01
2.158020574574588124e-01
2.354811954732088652e-01
2.820592032829533635e-01
3.306868731757745539e-01
4.469837588406178064e-01
5.738582629689468195e-01
5.831216039396297512e-01
7.358485636433351740e-01
8.342981172683052726e-01
9.924449298734597802e-01
1.046049076194131233e+00
1.113274017478119715e+00
1.214548305466048195e+00
1.220183710161670820e+00
1.306846989826135452e+00
1.224038185496042708e+00
1.243209407978147274e+00
1.223361380084343697e+00
1.222521947394781927e+00
1.057539243548875962e+00
1.028245407244921639e+00
9.175915001686141270e-01
7.703159806639627849e-01
6.924329295710031085e-01
6.168053614888319158e-01
4.870707104355050387e-01
4.234811398207447564e-01
3.412472139977340557e-01
2.679735071604387731e-01
2.336609583491555675e-01
9.936152425176816849e-02
6.278648992492330549e-02
4.570346636030450660e-02
6.020325144922726579e-02
3.034036479543125719e-02
4.683034809552894667e-02
2.399419023153843283e-02
2.773662422408534889e-04
4.541685658608093229e-02
3.045963492925970323e-02
-1.664465566696485266e-04
1.910765192753700881e-02
3.438780497002151548e-02
1.136093740622742820e-01
5.510898732812872375e-02
1.086158587042487106e-02
8.671300764198194844e-02
8.443832516203769734e-02
9.835328670019327646e-02
2.481298185798564565e-02
6.350975379420956135e-02
4.363214932053750827e-02
1.250635344967000739e-01
7.697659198325433605e-02
3.189441457055640361e-02
1.491543610695802990e-01
1.433903200472702588e-01
9.836638473247366621e-02
1.432904716930749611e-01
1.529931987423519546e-01
1.254526901069392131e-01
2.049422054036031393e-01
1.835374744059657948e-01
1.394719399918543379e-01
1.459101359002765719e-01
1.725685821191446367e-01
1.639052277006937675e-01
1.913197902049762478e-01
1.673830245128594962e-01
2.147595791066357063e-01
1.981668080149550648e-01
1.821587829903281719e-01
2.332875322561250298e-01
2.025117924395474778e-01
2.452279745822008028e-01
1.849942407623018370e-01
2.528923776025763792e-01
2.127974794208433718e-01
2.190420754951991622e-01
2.455218603049020287e-01
1.550377971727877058e-01
2.502569908997094861e-01
2.727889893876484506e-01
1.539977048467727760e-01
2.263171019921926819e-01
1.608944606001947719e-01
1.980329475025975061e-01
2.060915203672982199e-01
2.100881179699903845e-01
1.725555796540359788e-01
1.489706213585054173e-01
2.226937732679653004e-01
1.019265277210346932e-01
1.601899365664198049e-01
1.652359297602291055e-01
1.634889453430934114e-01
1.980836149049482742e-01
9.628864649761365024e-02
1.258751264049073060e-01
1.134274637778707739e-01
1.187678617963344452e-01
1.321162370557944499e-01
1.919020928394831182e-01
1.250474577691968181e-01
1.301587148032788410e-01
1.172566532492483049e-01
1.277290604966049292e-01
3.022877605422527592e-02
8.659737038713873070e-02
1.614905768471323888e-02
1.193035776362331435e-01
6.340868993311851720e-02
5.474470579908037593e-02
5.630836072660838632e-02
-1.425782537923553361e-02
-3.546892118398443927e-02
1.878726589206182115e-02
3.880201499318947089e-03
1.283824615901933003e-02
3.012941880859276028e-03
2.388975311377803876e-02
2.404914434492683509e-02
2.200316699103162243e-02
-3.086173981987735265e-03
2.492600785614093595e-02
-2.796804047738124174e-02
4.953908606084549138e-02
1.695551238912067216e-03
-2.559998696003283614e-02
-3.402142867604020238e-04
-3.765591075317263614e-02
-4.026678489867155375e-02
-4.078991486823502211e-03
-3.872443986034435764e-02
3.154528135376823139e-02
-4.113250009959484171e-02
5.342260497762617300e-03
-4.047393916694223825e-02
8.493924828655137482e-03
4.586591274187284961e-03
-8.321202414300646333e-02
6.906314623346860443e-03
-5.598823376378254252e-03
-7.219468326157673504e-03
-1.940295989297743592e-02
-2.775541195094334210e-02
-8.278982074997735807e-02
-2.262320250382989298e-02
-2.222717791478940816e-02
-2.740827694692748312e-02
-5.019082991913158265e-02
1.670879685894329642e-02
-1.155677887007037705e-02
-3.476683600364417759e-02
-7.034902667247643071e-02
-4.526776275261560484e-02
-2.988937205908847802e-02
1.614793894658615378e-02
-1.878159453276346397e-02
-3.032681322169044139e-02
4.960600812546275828e-04
2.471362171650805933e-03
-1.624292535931931916e-02
5.814465646896967849e-03
2.322895688415548693e-03
7.487570494999609694e-03
-1.724528226318724697e-02
-4.129310698429985299e-02
-2.551931059049723088e-02
6.679622146669002974e-03
2.717648668981713714e-02
1.242995141947859233e-02
-1.562996366699241635e-02
1.422925367126456550e-02
-3.270461124123102969e-02
2.320622691595880527e-02
3.892110960105339690e-02
1.935001130787257495e-02
-4.065661570773342059e-02
-3.770464094367857733e-02
2.261939582083986877e-02
9.703816239233518937e-03
-2.745303792218000208e-02
-2.216037085593804828e-02
1.451909112908494545e-02
-2.699529082149400294e-02
1.570580972426622451e-02
4.728314739780623693e-02
1.468734922302947221e-02
6.715566007656176284e-02
3.415048754861090691e-02
2.220747591129787479e-02
5.041843552378317411e-02
6.029771797564438540e-02
9.456434880163957016e-03
3.264935103033737157e-02
1.351683198011565008e-02
-3.488804354372654348e-04
4.960229888847714208e-02
7.221057652898174584e-02
5.658046359467380076e-02
8.006010015539669067e-02
6.821155691817845645e-02
5.822411102638515301e-02
1.004843945670342020e-01
6.587322619964379455e-02
9.941364422401618994e-02
8.081121103143149020e-02
9.584648055254953170e-02
9.652582076481046325e-02
1.716363033437734165e-01
1.328000646411469365e-01
1.115219697577827102e-01
1.211888675805860849e-01
1.631499205755614634e-01
1.470574887813369536e-01
1.640506481727997401e-01
1.601134254451601624e-01
1.751003883380353454e-01
9.882805859252374869e-02
1.433826225848721381e-01
9.710838083122724784e-02
1.962163806853248760e-01
1.319508813506889700e-01
1.729432994294881620e-01
1.518022354994403855e-01
1.083943608713384132e-01
1.643745814879323530e-01
1.135295416439663779e-01
1.493004817778554316e-01
9.008065069705431527e-02
1.219478093757541542e-01
1.022433859532000111e-01
1.117821008871607569e-01
8.343842387090133483e-02
6.509869479358652844e-02
7.964553068118665480e-02
1.730902433553521136e-01
1.197679320468857112e-01
1.656778448489518440e-01
2.022704226803492267e-01
2.862405764365952288e-01
3.580208042376304967e-01
4.212107420349234244e-01
4.109653442182236160e-01
4.956201411459886796e-01
6.025237375516780958e-01
7.540215848678667454e-01
8.491965444908323724e-01
9.740719978974815563e-01
1.000241948844639683e+00
1.101186309314209799e+00
1.212724049532324821e+00
1.240580467860036062e+00
1.334273313528561156e+00
1.276592289105695777e+00
1.380321267071298319e+00
1.286817471347918351e+00
1.191857136880953849e+00
1.238721510293320671e+00
1.060006817744368890e+00
1.025374594543873918e+00
8.864566256894135243e-01
7.542275956431696571e-01
6.794383016095020267e-01
6.288683867723063869e-01
5.152843834629506903e-01
3.728538215721314830e-01
3.605717418733037638e-01
2.711770277604352852e-01
2.564189363604206240e-01
1.334731698896059193e-01
9.162440958353304521e-02
7.589589197541987686e-02
1.375864275644011481e-01
1.001077874118682931e-01
1.578136097437790875e-01
5.892114944150814854e-02
4.885431114091444427e-02
2.372968182677134830e-02
1.111011928003772936e-01
9.335186473493052584e-02
9.760641661578600692e-02
9.808904739720811228e-02
1.424448894910153307e-01
7.200152588623154326e-02
1.444820327671093307e-01
1.246935054769989781e-01
1.007507797604133004e-01
1.169995671948630411e-01
1.091305555282579415e-01
1.578423730930459956e-01
1.840245502694048685e-01
1.786031455249219302e-01
1.972724867748758826e-01
1.621536795882844995e-01
1.458493468101373369e-01
1.818379434397696115e-01
1.503003539531542199e-01
1.974292663355045607e-01
2.125473080903643730e-01
2.191567271511453974e-01
1.654884647531856823e-01
2.191631398011250620e-01
1.839297584496718263e-01
2.052377320385266879e-01
2.416198320308531877e-01
2.420315798571445187e-01
1.800920508152998867e-01
2.401941048464372175e-01
2.452125680243583961e-01
2.489932375502754980e-01
2.505334758959114616e-01
3.106296058868086574e-01
1.753275183123977066e-01
2.549443664826195333e-01
2.030757534081052973e-01
2.564414461336287365e-01
3.000676554241348271e-01
3.582248056199460740e-01
2.896550355619196826e-01
2.700467967209105313e-01
2.915858725940638219e-01
2.462279607003495796e-01
2.814981454937287020e-01
2.697530731819468564e-01
2.925486613724230800e-01
2.516766428335771577e-01
2.601050784624192591e-01
2.319554307584286990e-01
2.402036644219144035e-01
2.372348030997892265e-01
2.445880983898772731e-01
2.270165749068965289e-01
2.110294513031998331e-01
1.908716290600972476e-01
1.995644651260163049e-01
1.855609882926703702e-01
1.913885532022662206e-01
1.499124811810159108e-01
2.266355121905616610e-01
1.525337630053596460e-01
2.133192207890846348e-01
1.261735109691699830e-01
2.076947927516994974e-01
1.699360083004879951e-01
1.076139894851615431e-01
1.437515308544791426e-01
1.426854134706566912e-01
1.690398711925362729e-01
1.142858688998471817e-01
1.418866723964385124e-01
1.056826590777093233e-01
5.956354048355658182e-02
1.119668535605650855e-01
8.327295573262054329e-02
9.140648714583798906e-02
1.091044190417467113e-01
1.257346745381227038e-01
5.144002518008027047e-02
5.916174795074584380e-02
5.731806193368612495e-02
7.675483796692048055e-02
6.351604681556000109e-02
5.643189384863388919e-02
4.191356192252772284e-02
2.541123293728202517e-02
2.989027091265156200e-02
3.519159658613071895e-02
6.932134718768603876e-02
2.363946887750202272e-02
1.020785766220706492e-01
-1.359919777484754760e-02
3.096164930955336986e-02
4.423133862283760986e-02
5.078192759427191394e-02
4.914655698651888838e-02
3.705524701794914166e-02
6.030325447720405463e-02
1.595706624687935615e-03
7.350861039343566106e-02
2.578915710395118799e-03
1.694824497211535122e-02
3.326206201283468666e-02
6.195797310823604465e-02
5.127832537805574603e-02
7.592276627615865414e-02
2.628299304057441291e-02
5.489364880416308656e-02
7.355034680869832614e-03
5.724681226390723743e-02
4.899988892408543850e-02
2.426472632490238659e-02
1.952779246544276634e-02
7.226899363580696622e-02
4.572743102046560731e-02
7.630229682219877296e-02
3.428684441752294365e-02
6.215678210791469871e-02
9.015739826664531664e-02
5.867570601237077910e-02
7.844310014018748833e-02
7.710324056686654326e-02
6.805925657754070823e-02
4.470312953086118257e-02
8.053241743411435061e-02
4.979740700306426598e-02
3.746550724812740957e-02
3.695941267485410020e-02
5.469587174968526533e-02
4.864281712349624587e-02
2.275471861407279972e-03
1.026240744094970431e-01
4.056839491419179239e-02
5.674038883383129839e-02
8.768790798551508170e-02
8.999854734569601167e-03
6.879795817858730400e-02
2.004395767464143066e-02
4.800477063505208947e-02
8.479630065736640243e-02
7.839131266708745938e-02
3.356305688307165136e-02
6.512311350353690298e-03
-1.422607402062309873e-02
1.025586393292955145e-01
-8.442219574170906071e-03
5.648789879961188531e-02
3.594376269104124222e-02
1.100540628792784012e-02
4.336961509365942768e-02
5.931376951201476622e-02
9.826604707167513331e-02
8.667487861918797554e-02
5.920068779734320025e-02
4.543478240380741801e-02
1.268200625272645210e-01
8.463296198362255107e-02
8.176164732078106123e-02
1.419380720925496608e-01
9.787509499556579229e-02
1.177560518170412546e-01
1.472828877194387320e-01
1.471424801212503908e-01
1.139799866623312508e-01
1.183181474005756684e-01
1.650629166097523637e-01
1.338658557504937008e-01
1.699723879688109507e-01
1.375862000302741361e-01
1.943001261037978211e-01
2.205658895863285007e-01
1.960987821920157637e-01
2.011012801681467677e-01
1.486408604741878137e-01
1.350275133809741290e-01
1.767207934976479100e-01
1.626456698274605372e-01
1.983315621767410553e-01
2.309427264971583016e-01
1.196210589529241031e-01
2.057721000595830185e-01
1.924896099821570283e-01
2.010542875769137372e-01
2.297209712019245842e-01
1.665752031503127117e-01
1.874067984675945042e-01
1.637104227517980626e-01
2.156623297005089424e-01
1.582432240539994872e-01
1.726431856134583720e-01
1.432455141941750831e-01
1.553436040820346253e-01
1.673816582770263350e-01
1.478027797116883701e-01
1.302782237919990205e-01
1.363525141145078279e-01
2.278194166555903288e-01
1.824662097173632147e-01
2.636713197046239299e-01
2.573961860698069093e-01
3.075999785283041743e-01
3.190189970979913081e-01
4.274339352884127807e-01
4.891951840164799892e-01
5.993379228632508271e-01
6.153724680002830016e-01
7.460562670037110822e-01
8.873916416161634624e-01
9.177620612744292750e-01
1.017562929903697677e+00
1.152127332104043722e+00
1.212505608989425943e+00
1.291512277559067723e+00
1.308404744329676017e+00
1.363317921908453911e+00
1.394619976492822433e+00
1.348766363592315498e+00
1.344917326339315489e+00
1.197121158344911951e+00
1.188908262939900595e+00
1.096205206187704118e+00
9.848367045157297994e-01
9.364236384254216450e-01
7.826512660014393052e-01
6.616912041916036546e-01
5.920722256034618436e-01
4.466876557506965217e-01
4.020136001054867014e-01
3.223728671518983901e-01
2.276045474766944521e-01
2.219321169483393918e-01
2.211793445204418840e-01
1.757666054602246841e-01
1.899802125909736406e-01
1.230488731219400861e-01
1.002239853133423536e-01
1.272588350636363885e-01
1.414898241044000582e-01
1.230339681327200646e-01
1.115796684684916135e-01
1.387484425784038522e-01
1.129480536249833356e-01
1.481039863487838837e-01
1.054138955107186693e-01
1.278209550669047179e-01
1.322808207621316290e-01
1.925626488707625761e-01
1.664474803331384423e-01
8.712733628594768187e-02
2.159617278913364413e-01
1.963781975774995803e-01
2.206104124944573697e-01
2.160081280858981712e-01
1.634898882501143180e-01
1.759278767946756139e-01
1.721063935723211036e-01
2.141707509452564773e-01
1.630916393289857380e-01
2.339768112590898674e-01
2.336030667510496095e-01
2.139469211778714519e-01
2.984331009496590248e-01
2.734915323695549794e-01
1.620061721140457212e-01
2.817311140929209534e-01
2.553327936940448795e-01
2.657508211315406932e-01
3.041831439575571339e-01
2.799865441270532052e-01
2.740098206840458905e-01
2.528766598153281975e-01
2.932273513286944855e-01
2.790798260395286889e-01
3.122344936588581921e-01
3.090917192502981026e-01
3.660162332304573440e-01
2.757508498514315010e-01
2.785868825864892262e-01
3.164672384229056945e-01
2.754275811644337768e-01
2.703068993586605906e-01
2.610492979078571363e-01
3.433101258791854127e-01
2.772874704497564902e-01
2.881649568727451816e-01
2.571151064843618661e-01
3.017627361891813131e-01
2.890242808152714282e-01
2.858577011887402652e-01
2.511556656860341463e-01
2.689315621629388975e-01
2.603068111123621464e-01
2.525486016100335629e-01
2.742536026290177675e-01
2.335695201739367843e-01
2.500044129291087991e-01
2.035072949209589255e-01
2.348421204135641982e-01
1.862878803078015788e-01
3.155197551128951505e-01
2.219297106237344275e-01
1.634086419612629792e-01
1.862783828109477735e-01
1.772920052067343544e-01
1.766708815386358322e-01
1.418161064761722101e-01
9.733578210988569346e-02
2.007988301738869441e-01
1.455499411157592515e-01
1.653012823042719903e-01
9.979912894759110364e-02
1.541984593020251648e-01
1.237845258383879488e-01
1.169994738069167484e-01
7.640080225440798456e-02
1.092624725185121076e-01
1.309568319129121861e-01
9.954044865412386978e-02
1.530956654516158755e-01
1.087570587135241185e-01
1.436987980416743471e-01
6.439176643494964880e-02
4.778426532235550972e-02
6.419173553399923349e-02
5.400658387831551444e-02
5.942045386211691066e-02
7.921491871576383237e-02
8.015013154059086320e-02
4.968398671552942680e-02
7.183101500354310831e-02
3.243544842574154485e-02
5.580946079871826337e-02
4.332920218631466924e-02
3.706183777335203544e-02
8.140671760311647687e-02
4.470335178597140829e-02
6.600871022899826301e-02
3.149410253490629585e-02
5.605474014298136853e-02
6.640602717524377030e-02
8.337107934505111340e-02
3.704023278790977841e-02
1.651915448613036283e-02
4.817919210897383953e-02
3.265426262765311338e-03
6.983372909861529365e-02
4.349689208839571664e-02
8.759892334955124427e-03
3.223669809418111543e-02
7.263310111104206990e-02
1.528160958079738743e-02
6.551098534257716877e-02
9.458865330341942323e-02
7.782740175153704532e-02
5.783250537274061548e-02
4.465942453465716888e-02
2.167177098766269461e-02
7.325926019218488572e-02
6.440617650958732621e-02
9.559663038220134190e-02
5.478193104737709429e-02
4.908796270304432996e-02
7.935523448114574496e-02
7.820255526796990320e-02
-1.421232420188830309e-02
8.239640849973312031e-02
6.861146932594260062e-02
3.212919824468151581e-02
5.103023656256015783e-02
7.363441277662234608e-02
8.218728209943101937e-02
6.525386994719228895e-02
5.540220468347226840e-02
6.453014533939967212e-02
6.545781782948507932e-02
1.176595187551673499e-01
8.776073537478293329e-02
6.593534616087420863e-02
2.180314136294408262e-02
7.041326292420450883e-02
4.131729207958308864e-02
4.387235864805065499e-02
2.421688427211630273e-02
5.706138113199783063e-02
5.865142392563790774e-02
1.024013790363552112e-01
4.953769777439639976e-02
7.113751413038765792e-02
9.073463128688652457e-02
8.234495559218955874e-02
7.095668019822284900e-02
1.147016514765457351e-01
-1.106597090439537939e-02
1.281441942203709883e-01
2.105235187439677413e-02
1.242583352678243297e-01
1.163218421306204536e-01
1.063999651763165855e-01
1.448518825018961786e-01
1.100961638739967607e-01
1.267585677439111713e-01
9.800545055597897903e-02
1.281685804605592338e-01
1.745574086711754735e-01
1.569925256019758242e-01
1.692559278583992688e-01
1.515174536688634332e-01
1.547593102432133771e-01
1.385679212448056585e-01
1.709855419796595943e-01
1.313271192634754558e-01
1.555645493723661066e-01
1.518771608227910963e-01
2.131950362971053725e-01
2.098479822548199314e-01
2.167869347147709791e-01
1.923310231917970681e-01
2.173994935789235194e-01
2.076890101389979315e-01
1.577489345946614385e-01
1.214431305185070253e-01
1.668570256024945186e-01
1.961798079415356943e-01
2.306034068796228853e-01
1.958608808025268377e-01
1.404746277790743236e-01
1.722636915132432500e-01
1.819520367593610577e-01
1.807118041458762592e-01
1.475759204083806619e-01
1.181243689864412416e-01
1.743651616663259296e-01
1.025284853405353108e-01
1.577375832649194065e-01
1.172438157468052300e-01
6.898405600910413604e-02
1.528945336822414292e-01
1.649478440629944531e-01
1.653503478331702359e-01
2.523206725604048017e-01
2.008939757493220513e-01
3.128119139728072762e-01
3.724094908716565899e-01
4.264365559839954356e-01
4.904360857774716642e-01
5.519054384364886490e-01
6.716457077113616725e-01
7.986457739150725210e-01
8.462624391556622383e-01
9.157925607298353921e-01
1.061951324401933183e+00
1.150162810003951153e+00
1.182085205371185221e+00
1.275766838980305184e+00
1.383912350529539648e+00
1.378996575342692044e+00
1.357388859055640440e+00
1.317061629080799046e+00
1.186299072325528670e+00
1.222480255596196663e+00
1.059382332320181641e+00
9.843165144261712962e-01
8.927062365931348609e-01
8.036391782950484952e-01
6.641755543691496566e-01
5.684681338913879500e-01
5.346241053106883800e-01
4.822506202480164594e-01
3.437108478914543408e-01
3.123588444441225964e-01
2.319823831448585838e-01
2.236967989819164115e-01
1.790172621249409568e-01
1.548267396910120997e-01
9.197320279207138460e-02
9.113932721350870292e-02
9.817726290492831409e-02
8.272313931697822253e-02
1.074296300101566931e-01
3.806496406607386140e-02
1.386716476459955993e-01
1.388158320449699445e-01
1.119723812613461766e-01
9.280151840146341757e-02
9.610235435227523770e-02
9.736011239644226656e-02
1.279467505435804009e-01
1.061001989870531959e-01
1.133363354979720211e-01
8.358640433866286468e-02
1.414288459739885262e-01
1.358800042969898758e-01
2.032326470256827777e-01
1.596181759131461153e-01
9.255026634984984957e-02
1.835415658162291852e-01
1.852479331878418012e-01
1.632837903762865694e-01
2.513227026501707595e-01
2.055667472613967872e-01
1.781776372713882173e-01
2.502899530560679930e-01
2.202911090812816886e-01
2.169212665895633441e-01
2.074811151685212185e-01
2.237425905250376157e-01
1.916546809823051756e-01
2.317738716283604672e-01
2.158513384552483427e-01
2.834860197145872007e-01
2.541877315594988640e-01
3.011083731186589008e-01
3.006845957582717221e-01
2.329064995745851741e-01
2.662888842878047280e-01
2.650891360251879658e-01
2.694604002946014987e-01
2.993497245789847883e-01
2.627056120548328377e-01
2.678415151350396761e-01
2.648089087311292777e-01
2.626881940080743605e-01
2.307731322169077615e-01
2.400306618839387895e-01
1.856839881205145371e-01
2.622328918006044396e-01
2.515806141803321183e-01
2.496471601719015554e-01
2.819869866211450748e-01
2.520252720894410325e-01
2.632457687127678359e-01
2.541070701976910762e-01
2.670428569787980932e-01
2.484650002734752894e-01
1.782077600265495332e-01
2.162147608549898070e-01
2.112777416612505454e-01
1.966828611832715790e-01
2.374070643808486869e-01
1.777502271984762183e-01
1.802632470649034591e-01
1.543259635342044134e-01
1.437733163794323032e-01
1.319614637212126185e-01
1.083681848697246181e-01
1.415609822650701344e-01
1.730753029865123027e-01
1.102820755757898952e-01
1.185893111310872550e-01
7.774194939410998539e-02
4.336640092692279486e-02
