1.305378271408139002e+00
1.209466333508058211e+00
1.283616693832469569e+00
1.169785648376118870e+00
1.105434996387435476e+00
1.004379090647953499e+00
9.364032354284375081e-01
8.148410502427884117e-01
7.295212367611665361e-01
6.037258315766995675e-01
5.440581528443705350e-01
4.405981737175311275e-01
3.789809923365707323e-01
2.960057633187289095e-01
2.967398652337051024e-01
1.947075555289478344e-01
1.814223597366542706e-01
1.279238909067235141e-01
1.319494473322612160e-01
7.291759530685333612e-02
6.806156098305458924e-02
7.162229753165852419e-02
3.779080768868351998e-03
7.512687246439617161e-02
4.214929012254865076e-02
5.496051209967947604e-02
9.510985318297192348e-02
7.255739160562953149e-02
6.169838618041049300e-02
8.872870279029244911e-02
6.835601766708933325e-02
9.140413878371228540e-02
6.938071754134102209e-02
1.319807748117869106e-01
7.360041203621882355e-02
1.285977946510281356e-01
6.336662498494756435e-02
1.262373602300290998e-01
1.463626377369182940e-01
1.121014264587133213e-01
1.612301160826796198e-01
1.542043634408065411e-01
1.488876287772622209e-01
1.715262413919366458e-01
2.126414712555082243e-01
1.875179264175558802e-01
1.513843733261742430e-01
1.640789197977420011e-01
1.711790939581097348e-01
1.893883038924128182e-01
2.203422201710869277e-01
2.320033018764670607e-01
2.314645273400079417e-01
1.264634434958985532e-01
2.366639237132451279e-01
2.173464888762473568e-01
2.505000256490934052e-01
2.685744019404393557e-01
1.911548903125725174e-01
2.327371307820831903e-01
2.631080299198520489e-01
2.515363661311380561e-01
2.738642931616606657e-01
2.752316749081414882e-01
2.316745925208514578e-01
2.152628970373065553e-01
2.124227035305868427e-01
2.618769330164034126e-01
2.521735139081957566e-01
2.377126981561058505e-01
2.249593990624057238e-01
2.366469945223096394e-01
2.210543647686074864e-01
2.005758802838657207e-01
2.442059655280159891e-01
1.668118967342826775e-01
2.220693606199805603e-01
1.566288481031005431e-01
1.936421727699591255e-01
2.123106828651784572e-01
1.952133122225876982e-01
1.680834652488793213e-01
1.049173777289191672e-01
1.201034773492165864e-01
1.565249140238057779e-01
1.284256317968998640e-01
1.133352598465379585e-01
4.100900124479892050e-02
1.059227764386883319e-01
1.104897691517811031e-01
8.508567976936168287e-02
9.559347905769065290e-02
7.667407789206874547e-02
1.027599750360657094e-01
7.183243033742178763e-02
6.320286585734287421e-02
6.095575728422144429e-02
4.296983028423047302e-02
8.373657994314571973e-02
2.948082766667866825e-02
6.446286457023799044e-02
1.385947107364270472e-02
8.328790971274342703e-02
1.025456238669478909e-01
3.904672548075299038e-02
3.893195423666083455e-02
1.682909117488549239e-02
1.785526503986250429e-02
-1.169539237423020128e-02
-2.098417359507842583e-02
2.021367422840048000e-02
-2.194979234316623770e-02
1.894970470818741620e-02
2.425997765593750077e-02
3.393690231737748336e-02
-3.151505189560499520e-02
-4.020538720783485565e-02
1.040511345402608812e-02
1.016470675038004881e-02
7.222815011204562069e-03
9.217846004375581520e-03
-4.194290740574344728e-02
-1.657904801998546021e-02
-2.447115295296307252e-02
5.168903377001040494e-03
-2.750126025631783461e-03
-3.746788508956076097e-03
-1.256617082169877650e-02
-1.776031642054716128e-02
-3.163679385328100474e-02
-1.668370763863246189e-02
-6.361718578727457163e-03
6.252231200385878485e-03
1.224319410959674378e-02
-7.044941908844255807e-03
1.253623529264607031e-02
-4.615207064972648432e-03
-7.109846964210880804e-02
-5.388409944872205037e-04
-5.639356708525503081e-02
1.698553099591218474e-02
-8.661205366947824502e-02
-8.842554211825692789e-02
2.399907588231780728e-02
2.969682238175151354e-02
7.740970287396620186e-03
1.479958605951851164e-02
-6.579900584507641925e-02
3.528181296605394784e-03
-5.431677456080503258e-02
5.380086837307441333e-03
-4.160324029397461515e-02
-3.167318587834421634e-02
1.566550561044564860e-03
-3.007221923103496272e-02
-1.394876551532621065e-02
-4.962676519938394315e-02
-5.087226316556867078e-02
-3.711376696868279312e-02
-6.136302775839633239e-02
-8.616133841178728880e-03
-1.882737931448989072e-02
-6.867676325592045328e-02
1.577447322957396814e-02
1.686607759134156614e-02
-2.846329269582892341e-02
-4.189359581712168157e-02
1.221542601816774654e-02
-5.114472472438057193e-02
2.474581621928768210e-02
-2.219570940402122369e-02
1.986831810249960195e-02
4.138764025136014435e-03
6.415939174506590792e-02
9.142748979082744587e-03
4.661453736558489325e-02
-2.326582387082201664e-02
-3.443904467056152496e-02
-8.970055470179427726e-03
4.832627062226625692e-03
8.262269502177656266e-03
9.775597463663125708e-03
2.421803887964835839e-02
4.277184367869948239e-02
-1.454622875482022848e-02
2.478458452741236218e-02
2.190272124025827855e-02
4.708239449664911730e-02
4.387766626875513193e-02
9.268055530895255578e-02
7.196781444227932922e-02
9.580588540474532788e-02
6.219341948821775767e-02
1.018502120407238087e-01
6.477747786713930478e-02
5.661422117905584583e-02
1.308508075670286597e-01
9.323944744914855476e-02
9.796335365827324448e-02
7.882673032606202224e-02
7.689019413742742559e-02
1.564919047996020107e-01
1.406215113261170269e-01
8.448667619098873538e-02
8.916454940866355705e-02
1.174578373043348306e-01
9.808567381702285037e-02
8.580408824059100603e-02
8.447653992974789305e-02
9.820763352718148154e-02
5.878537015805641863e-02
7.323831019761592453e-02
1.256895211928997225e-01
5.606563289533569860e-02
8.128343348706200400e-02
8.734678907265118475e-02
1.053826583503726100e-01
3.145092878849729129e-02
4.142257257569240819e-02
6.276717466543389745e-02
9.338485116055544877e-02
8.517206430639512327e-02
1.192712861035630928e-01
6.079611610702462254e-02
7.146271725031611011e-02
9.399048387993408360e-02
1.211070703612109056e-01
1.508083566080782312e-01
2.357653963001152264e-01
2.271648626456692077e-01
3.809079570815928628e-01
4.156898425391413743e-01
5.173050401632073303e-01
5.566585688638436835e-01
6.711717611979000075e-01
7.764813654767281914e-01
8.772590768640147196e-01
9.688701306629986520e-01
1.067658911086439844e+00
1.120226555841178584e+00
1.209365058600480047e+00
1.245763683269122346e+00
1.285452255590627813e+00
1.228228588887108064e+00
1.182566964072756965e+00
1.138855792781718002e+00
1.078375212918776249e+00
9.605486129538532980e-01
9.135178201516754859e-01
8.102654816575211028e-01
6.372214489715648522e-01
6.449319658347726358e-01
5.026151067405941752e-01
3.794268064809521723e-01
2.993649245917987534e-01
2.668620954572870074e-01
1.772725864655723127e-01
1.261790597830401151e-01
1.026368589088359484e-01
9.921614735662878659e-02
5.078525900314525415e-02
1.894864127882153748e-02
7.890258293633536923e-02
3.962515681330728429e-02
-5.246024133178567306e-03
2.527657210868078375e-02
2.321788384938203859e-02
2.061220163837492597e-02
2.487707083116733053e-02
2.243819623088198767e-02
4.537680645375380406e-02
3.560644251285646766e-02
4.772308417729340113e-02
6.046427227146707051e-02
5.135640023453216102e-02
8.085539938590777242e-02
1.048649444789377660e-01
6.343728007374918598e-02
6.163788979400221246e-02
4.350786710882387220e-02
1.117741997046579894e-01
9.288354718852631642e-02
6.969809385498239307e-02
9.475003766242176551e-02
1.307858555823818714e-01
1.476367585358028256e-01
1.470741710329991903e-01
1.354236893539735864e-01
1.649217837720851065e-01
1.524390925548720077e-01
1.613611494472809438e-01
1.370675706815816519e-01
1.985718891416710929e-01
1.916820979488358667e-01
1.649003925757912548e-01
2.136324161343481076e-01
1.466946299930924069e-01
1.645254115490150659e-01
1.549508233653719702e-01
1.821701469927360928e-01
1.747814067028807539e-01
2.269200358691570996e-01
2.038043198311661752e-01
1.926238273350325270e-01
2.141381023962764252e-01
2.248807281492690713e-01
2.397792767090882737e-01
1.973239931111891998e-01
1.980699406231246351e-01
1.656972788952468800e-01
1.996146031868832049e-01
1.987913522260518484e-01
1.709154264998693495e-01
1.853588199478439780e-01
1.728210601910052102e-01
1.862226861896357777e-01
1.639280945504255349e-01
1.714249294486328012e-01
1.436185893110847600e-01
1.770964171690798117e-01
1.625928049106869777e-01
1.741826201699618049e-01
1.388392339103850237e-01
1.271067175709349462e-01
7.999011786391191370e-02
1.414467455309738886e-01
1.111699169941604559e-01
9.486350489403691522e-02
1.197462147115611053e-01
1.113582003724754299e-01
7.036041659524940040e-02
8.532333785462467568e-02
7.014313197102996222e-02
9.651221833956197260e-02
2.585068287670364701e-02
8.968004961839973199e-02
7.557057019809126919e-02
2.660059966430979028e-02
1.713514923271176882e-02
3.923023066191146102e-02
-1.772102285095351892e-02
2.424948936883894457e-02
1.776890363580757581e-02
2.349492436288753289e-02
-1.598860510911007116e-02
7.235693659168547509e-02
1.376045570949960273e-03
2.763643507379381914e-02
1.566847852453576162e-03
1.132731639798962436e-02
-5.205257745928844326e-02
3.272746329762833695e-02
-7.049138494422027557e-03
-1.147784774021523568e-02
-9.660943469785597537e-03
-1.544862747978567596e-02
-2.579573364463653290e-02
-3.993129616951714145e-02
-6.705920105172819001e-02
1.471364050314765554e-02
-6.739398662180096089e-02
-8.307467997188566766e-03
-2.576816902289665728e-02
-6.044276231720165093e-02
-2.018609296200649800e-02
-5.468848979119727421e-02
1.275497997045418885e-02
-4.558233347968462107e-02
-1.887025759905647596e-02
-5.914255495147360819e-02
-7.227945625414050612e-02
-4.747992626965606006e-02
-2.089607687359995580e-04
-9.212093275535801484e-02
-6.434472708407054653e-02
-4.854880918792616601e-02
-7.357896261649284064e-02
-8.070633874008389941e-02
-2.034966102468475230e-02
-6.767031767280662358e-02
-7.017751818727359370e-02
-6.508598173556615074e-02
-5.354389199664540133e-02
-3.408482572009480238e-02
-8.166440071876759910e-02
-5.440946366547359803e-02
-6.581086351152229397e-02
-8.465495746937495847e-02
-6.248692178570081079e-02
-2.319170659752084127e-02
-3.930968411727721323e-02
-2.793722420456521555e-02
-1.142404153485955115e-01
-6.762982585003671221e-02
-3.459387870687380406e-02
-5.899226603115209633e-02
-4.636446227542127124e-02
-4.586351259784905710e-02
-9.071145526985056884e-02
-5.951404573881297760e-02
-7.321464405460473279e-02
-3.780195059519016881e-02
-5.730263927706000238e-02
-8.101255571174363623e-02
-4.778617040422723089e-02
-2.043168403041341341e-03
-9.276349388395496720e-02
-1.390613688407317527e-02
-6.180006970738385896e-02
-4.149856825494607770e-02
-8.668847872839333113e-02
-3.075662709577644399e-02
-2.710544246834830501e-02
1.690048009736093426e-02
-1.959149104151128654e-02
-8.368881108298473204e-02
-2.424925952298130974e-02
-1.742496878748985012e-02
-6.248665399452012215e-02
-8.154591981267798884e-02
-6.860707287430317658e-02
-3.932238846598490323e-03
-1.440081756272185154e-02
2.585297905993606815e-02
4.140669982025531326e-02
2.928079382713503348e-02
3.650706276268548406e-02
5.260683373212438757e-02
3.587749577766428249e-02
4.343634139945386913e-02
-2.250629754351778783e-02
2.513176844641897695e-02
1.646261050731989001e-02
9.145541027126877220e-02
3.151536023609970150e-02
3.665471054883417262e-02
6.203839959969068701e-02
1.218556326951629187e-01
1.339344297248986626e-01
8.374867200407098977e-02
1.041041413925957171e-01
9.421185539790657981e-02
1.161927262778353204e-01
4.387423372411927008e-02
1.391214605869521559e-01
1.051274358282433541e-01
9.028334651760142049e-02
8.886543119246130551e-02
1.175232031798211646e-01
1.476531841729946115e-01
1.434590295972178187e-01
7.974112230718144456e-02
1.188847991103538365e-01
7.046884676669756820e-02
7.000948622455095693e-02
8.283962027707536535e-02
9.518030485236569915e-02
9.290602069653070005e-02
7.973096423040143543e-02
2.635323328607228066e-02
8.396166555039077939e-02
1.279896767532593127e-01
8.232328787516679514e-02
1.014431470355475762e-01
9.123842929279771252e-02
1.063657125377531210e-01
5.310113951292768503e-02
9.101317833116839839e-02
1.790416002411950591e-01
2.054214920458951599e-01
2.160689997408285490e-01
2.867997488517775029e-01
3.753988286756577697e-01
4.321925237271629916e-01
5.375727427446679307e-01
5.903349376755708811e-01
7.310700609205071920e-01
8.076487034547045196e-01
8.678251325618673295e-01
1.047590825392583191e+00
1.134322521190908484e+00
1.126448306449874703e+00
1.183547793816800642e+00
1.249348032136657016e+00
1.235222153832034042e+00
1.227764076723343312e+00
1.237521230148384443e+00
1.107619942499522780e+00
1.056850954030728929e+00
9.910433173467991796e-01
9.017432115521326619e-01
8.417195127523974252e-01
7.272488331784158211e-01
5.786233766936210721e-01
5.163736921061218288e-01
3.993946261836581746e-01
3.816936074913256371e-01
2.597488534644052383e-01
1.834246264650387093e-01
1.977314113010994190e-01
7.155168188756844128e-02
7.930674595539602412e-02
-4.386681771737788171e-03
7.196357993382429541e-02
1.638915304058050082e-02
7.614413854852297714e-02
6.690681225559108602e-02
1.513884958550215654e-02
9.802337206338529452e-02
6.581478560306802672e-03
4.405643519666997687e-03
2.534281079137135767e-02
5.007295960322846046e-02
7.238490088410649836e-02
1.034979787794633038e-01
6.625291445364495102e-02
5.798924693469742486e-02
7.248114964582827446e-02
1.024896358777625527e-01
5.788790519569429055e-02
7.378848856907138654e-02
1.569263194490925217e-01
8.303436779997108719e-02
7.774162816644375473e-02
1.715862963147618547e-01
1.405291080850638863e-01
1.724822785812232806e-01
9.546497688072161369e-02
1.931145040300187854e-01
4.962936973483610126e-02
1.607449714195034463e-01
2.198667279393524965e-01
2.146986150564781926e-01
2.064172446425566743e-01
2.350559458142812419e-01
1.879534002386082370e-01
1.607759349383484360e-01
1.872322653196326625e-01
1.663979570410031583e-01
2.024004631212075744e-01
1.693315675632818262e-01
2.427431973566633039e-01
1.630025751451639748e-01
2.085525899543220762e-01
2.019647941148392523e-01
2.128202320907536804e-01
2.170064751960703586e-01
2.714321382877561417e-01
2.112252541929161009e-01
1.892423344536561802e-01
2.354825483495746330e-01
2.173865896132872733e-01
2.139891143379759053e-01
2.054588585296308889e-01
2.016484628401552515e-01
2.127716894499525613e-01
1.817062227057893442e-01
2.232706842725421525e-01
2.676773487099307069e-01
1.724204899882620934e-01
1.827217390981187295e-01
1.961601166689859177e-01
2.002281771739387040e-01
1.857337350175740642e-01
1.345962021153332411e-01
1.066613499206126858e-01
1.062734000715079286e-01
1.667646093180287226e-01
1.252414761211551597e-01
1.101208797410343082e-01
1.130927635463314651e-01
1.352536687329688458e-01
1.601189808331196507e-01
8.439705428544257149e-02
6.751115290995300666e-02
1.034171808943069315e-01
9.644124987776590829e-02
6.550806893034928635e-02
9.648307409126920253e-02
8.033761284081443466e-02
3.480436938832266736e-02
5.264031978906813514e-02
8.741052292140655267e-02
7.863364147424838080e-02
5.144579621833952898e-02
1.170541838844621207e-01
4.747195487803025638e-02
4.313184064083559754e-02
2.077366367404020336e-02
2.077516417843730187e-02
3.814934283092653172e-02
1.982400225906667118e-03
3.883834048544235890e-02
3.679655080268067618e-02
-2.992138648433382425e-02
-3.481926801603343197e-02
-4.863439575517030516e-04
5.941925738465554663e-02
6.026484607865444099e-02
-1.137578119399045018e-01
8.968225215254026217e-03
1.359195809296489740e-03
-2.921091652912465031e-02
-6.577679403906343605e-03
-2.305730956752327643e-02
-1.005844341994816329e-02
-9.377530258275253855e-03
-3.798019253607149565e-02
-1.227555278232070508e-02
-1.370840118939037691e-02
1.450033114214782648e-02
-1.281691436015789179e-03
1.697114063724509958e-02
7.326101360259131348e-03
3.475635147449528811e-02
-1.620028396254636488e-02
2.043393417747200319e-02
-4.926690774739599793e-03
3.860582187482635569e-02
3.837930794034017171e-03
-3.578892982427917674e-02
-8.797143163201615740e-03
-1.282942227766582094e-02
-3.138994324439683264e-02
-2.064414123016006242e-02
-6.919682553813380488e-02
-2.397820298484819312e-02
1.437333104786852819e-02
1.078753579020883327e-02
-2.110081045513626657e-02
5.490307085518229477e-03
3.279276202870561041e-02
-2.707643921292742992e-02
-4.847368183108773793e-02
-3.869483567968622171e-03
3.593980499223064368e-02
3.439803274005117512e-02
-9.415949161727259903e-03
1.910911170177624976e-02
-3.451730092096693629e-03
5.702352768310284259e-02
1.442373284591616338e-02
-4.803564289984003227e-02
-1.272269464550698607e-02
1.816494146696045163e-03
-2.894267184984104790e-02
8.193613333798598769e-03
-1.351771726281832467e-02
2.230170746460931330e-02
-2.677413104419161527e-02
-3.192098272379645298e-03
4.230261724695805886e-02
1.034678540360711371e-02
1.592434986030907482e-02
-1.756315544811070176e-02
3.455217401311161396e-03
-1.050375241745044866e-03
1.331739621838054499e-02
9.044420481246585874e-02
4.409803419391353924e-02
3.507308613864656283e-02
1.744652977728544316e-02
1.752693000117754030e-02
4.144135786585176340e-02
5.957811640142179205e-02
5.011129974467020548e-02
3.185813574328961312e-02
6.145328683654779217e-02
8.435554419876273302e-02
1.051116591992702493e-01
1.071903144016432829e-01
6.810918145701784499e-02
7.190544127690419972e-03
5.657984219505191037e-02
6.195022333866456732e-02
1.107657314222750267e-01
8.063149493439358828e-02
9.613860395975701301e-02
1.121613774879737652e-01
2.237759313892379864e-01
1.810727884254779985e-01
1.278479554422317643e-01
1.987915830550884277e-01
1.513941629379761400e-01
1.289073653874106551e-01
1.671482936688247212e-01
1.275743182295507316e-01
9.881796959309539774e-02
9.627633930501826309e-02
1.925240480073938665e-01
1.539262390735507413e-01
1.247251116633587426e-01
1.666576892509515628e-01
1.088529697942842295e-01
1.179533444492397304e-01
1.606741159369572680e-01
2.000778333130530662e-01
9.931878235895570672e-02
1.020054069121152235e-01
1.252063345207230782e-01
1.457900741150760515e-01
1.324734333425655608e-01
1.060403452411024239e-01
1.133710652127424001e-01
1.243546950448900790e-01
1.721856913742147166e-01
1.516592940608000040e-01
1.094046030808293324e-01
1.030355147496453405e-01
1.884018082491953350e-01
1.587433587496356324e-01
2.454281272507730649e-01
3.007951151826371294e-01
3.651829008309830371e-01
3.670463871948074219e-01
5.001326654047932863e-01
5.937049442448906200e-01
6.460485255776640123e-01
7.241990469727396240e-01
8.506949221307229525e-01
9.524707330909033542e-01
1.070962795089780872e+00
1.128198179631079601e+00
1.205457280196308822e+00
1.269687945942927110e+00
1.277489997439910097e+00
1.297914083894058379e+00
1.257589841707036804e+00
1.252505091243949931e+00
1.193992924545728362e+00
1.127246669534291312e+00
1.014572531728738625e+00
9.537686412646222411e-01
8.352721872440139750e-01
7.519901657832002151e-01
6.584253420504392329e-01
6.139012855750508590e-01
4.568558067171406001e-01
3.734273900726867712e-01
3.221303254308528485e-01
2.413520419051373433e-01
1.578489368128849490e-01
1.728447711689714283e-01
1.487997900738418644e-01
1.336089346149670898e-01
1.048125384899025320e-01
7.839879651422182461e-02
1.030457006561268096e-01
7.595045195115904257e-02
7.152436726880642692e-02
1.067163525342480906e-01
8.690312119557799808e-02
1.331702856930830070e-01
6.631951727217483272e-02
1.552178371146121783e-01
1.217180600657361000e-01
8.128405347399157710e-02
1.116595395608720453e-01
1.070449790074392421e-01
1.477536448220750920e-01
1.196396059531012468e-01
1.181878070156285876e-01
1.649888872845223231e-01
1.516107270988711897e-01
9.849360746903626507e-02
2.055749997429472675e-01
1.729779115172701276e-01
1.802270170403046101e-01
2.215025475863116045e-01
2.153365453266747054e-01
2.719111117482370665e-01
1.924712487784185078e-01
2.426057865375378930e-01
2.056638317992826870e-01
2.434262799539276823e-01
2.698348006282557665e-01
2.280279829705780803e-01
3.212148852292965318e-01
2.716220056745661804e-01
2.479796376799153490e-01
1.781270668528203149e-01
2.684420181857620213e-01
3.149472126696671315e-01
2.841731249974591700e-01
2.959298211864293537e-01
2.735368988344778485e-01
2.772190504050933146e-01
2.795682310608368359e-01
2.690744763980871257e-01
2.794669086126775892e-01
2.785676165811980520e-01
2.964711965003818395e-01
2.765512595824765052e-01
3.079899608572446712e-01
3.396031088458649205e-01
2.606347534411773137e-01
3.211542686743353858e-01
2.859018129713929990e-01
2.463344251046542532e-01
3.010986995277938894e-01
2.725713119905873172e-01
2.709973001584417562e-01
1.739675681944553576e-01
2.574704280022199199e-01
2.302560029433295408e-01
2.384441215357850363e-01
2.385711567145657186e-01
2.264198767992484096e-01
2.217009423846668936e-01
2.247146615850270923e-01
1.863482994375763591e-01
2.402137200427788277e-01
1.998292810384509621e-01
1.524808185541849936e-01
1.786542276796055373e-01
1.305693322358676134e-01
1.794454640310333693e-01
1.186482161882526226e-01
1.381574712980221387e-01
1.282506702100849882e-01
1.561190269124994034e-01
1.027088173763031076e-01
1.332933802108798860e-01
7.476449133085921739e-02
1.420022430750946252e-01
1.043696108626775143e-01
8.898358702535694165e-02
1.027489675569559779e-01
1.009441947447942411e-01
7.373289175000441453e-02
1.328303948001196277e-01
1.131830239927289483e-01
2.926606374998034360e-02
7.730938873434906045e-02
6.454478575771012416e-02
-1.228429976447033972e-02
7.148990379601061207e-02
4.135240981364107782e-02
5.843559106122774710e-02
7.167785317901537168e-02
8.091197218082507581e-02
6.662155943644429423e-02
-1.098058587851755835e-02
5.385755521095553916e-02
1.085732231896618938e-05
1.996162400030940254e-02
1.083017901433672020e-01
5.399563779620555892e-02
-3.696638932373215447e-03
4.323996300442686791e-02
1.133473968938130683e-01
3.142412469945717046e-02
-1.347370487221606628e-02
4.384550739416210458e-02
1.123264022636711046e-01
3.195899027733381526e-02
9.218645632383778987e-02
4.450937569995531973e-02
1.177296764209230795e-01
3.988389628452148478e-02
3.814222610438908201e-02
6.319441093215505401e-02
2.563391895561214356e-02
3.282808107522277447e-02
4.049899118965936962e-02
9.589945131830873715e-02
-1.154638764806551615e-02
9.006211805072154852e-03
9.268788837829819438e-02
4.691550161886674786e-02
1.235242560071784373e-02
6.062688016472170954e-02
4.231212173913933422e-02
2.726875271061356479e-02
1.684628693323495310e-02
3.395062141063378419e-02
-2.157137282224590169e-02
2.861570049909664334e-02
7.622546455311843272e-02
6.523768144373402744e-02
3.282135578113704044e-02
4.783217486490659587e-03
2.998530410444267408e-02
-2.380234271380107791e-02
5.904917384139481140e-02
6.252242952927837549e-02
7.032607929152503989e-02
7.862034988373919897e-02
7.229059110729310622e-02
5.094882046344717530e-02
3.444880447979359328e-02
3.371344282773898471e-02
4.904113755047422724e-02
7.487885198502852724e-02
2.486722531673623074e-02
6.261740891249653607e-02
2.610397891204559867e-02
7.218827029784380400e-02
3.926563684478242416e-02
1.195100617705532886e-01
5.554356984427188948e-02
7.441129723322485734e-02
3.271828956042883985e-02
8.976163039423304402e-02
1.089114663255078691e-01
5.670841464791778752e-02
8.348140902270934083e-02
6.214792296753185452e-02
8.972084700192489715e-02
1.281229355476772025e-01
1.668400395807716763e-01
1.341358054474661721e-01
8.034202504294436775e-02
1.205389842687946411e-01
1.520146382597231949e-01
4.338846941836028981e-02
1.514409548356923096e-01
1.533226652798208856e-01
2.181441467620334473e-01
1.600625572914975703e-01
2.102545880576909276e-01
1.635465799406643495e-01
1.962909802408472904e-01
1.910395975777149369e-01
2.363486192740882896e-01
2.310619903016154220e-01
1.786922399580036236e-01
1.487605222108043801e-01
2.232799831024724624e-01
2.498814671298986434e-01
1.532428529999377287e-01
2.521046550025419775e-01
1.736026493566807938e-01
2.387414678546026514e-01
1.944406484816437464e-01
2.313041753139268297e-01
2.028443007751896676e-01
2.191228575942418544e-01
1.726294707812414120e-01
1.375865569306608249e-01
2.067392923536418847e-01
2.030547488710719717e-01
1.533263894098068347e-01
1.739731689826520822e-01
1.410502634025100344e-01
1.132928514308695345e-01
1.662728939435472175e-01
1.763001858766174990e-01
1.504879551640276869e-01
2.100055030441937698e-01
1.608713678696812588e-01
2.416282026188078802e-01
1.989607000358303845e-01
2.824269188711656664e-01
3.166019531586620195e-01
3.983308256396378422e-01
4.464531380742099986e-01
5.226326440733235490e-01
5.936517713446131106e-01
7.033498668533730847e-01
7.466313077328416981e-01
8.129726854650125567e-01
1.041572952601939717e+00
1.024809842864325971e+00
1.212291040946963161e+00
1.206835767920376279e+00
1.326542593741419473e+00
1.357312516774581201e+00
1.323253383537345673e+00
1.313252216842639264e+00
1.264220717652793313e+00
1.233924247472686364e+00
1.173542756136137122e+00
1.144692383615406817e+00
9.327814611383349330e-01
8.835652176566786142e-01
8.092134887110649100e-01
6.483911187882320792e-01
6.278426610736435043e-01
5.437139544491679244e-01
4.522816752803701101e-01
3.457422181199450439e-01
3.260314676990948568e-01
2.467720088348296925e-01
2.003182837901182067e-01
2.052841896335452498e-01
1.430016518051350771e-01
1.687156437010641219e-01
1.563708712823748403e-01
1.543959180816623644e-01
9.457783997047174152e-02
1.328327405570854380e-01
1.066670818938510734e-01
1.807246482380080177e-01
8.051546680887652907e-02
1.280194016665843759e-01
1.254702216143156746e-01
1.337731719954588228e-01
9.958689224405511964e-02
1.208521408354781279e-01
1.076034375954061373e-01
1.124073763264951675e-01
1.510700368443471109e-01
2.375003760025664601e-01
2.002736939588734000e-01
1.610389492273461842e-01
1.826317539023855074e-01
1.589614409767357295e-01
1.208268928958108335e-01
2.084217569527110347e-01
2.072200938949956828e-01
2.148632475378448037e-01
2.137781422662959341e-01
2.185029304777038606e-01
2.545194650716362528e-01
2.124462665593227217e-01
2.540424168424926243e-01
2.051033536528905632e-01
3.197227439197878884e-01
2.903555607475714062e-01
2.526848656277181360e-01
2.662412114645304473e-01
3.045127641360986237e-01
3.123316690858920497e-01
2.712204348975022494e-01
2.738595839370771001e-01
2.747161969646624846e-01
3.165436508190523357e-01
2.878204096326544281e-01
3.131309618551147422e-01
3.091928581893813588e-01
2.849241737993301604e-01
2.573002865736457867e-01
3.273962042150975749e-01
2.984508161153102690e-01
2.981073038202297631e-01
2.892873607278918513e-01
2.496546047022519255e-01
2.714132701188363139e-01
2.877542722486067794e-01
2.597360738031658789e-01
2.821649815055247146e-01
2.622694932408548008e-01
2.195481051224041080e-01
2.000833889632755158e-01
2.616723763017748117e-01
2.196445643446424123e-01
2.285187809760301780e-01
2.058150657387581017e-01
2.554468867949659661e-01
1.770514321848697392e-01
2.384152614526348635e-01
1.619096958388921426e-01
2.143879481378951901e-01
1.856941340905682580e-01
1.863022699561046047e-01
1.854093031615328402e-01
1.648862405589100744e-01
1.840248690277597743e-01
1.442140597229364385e-01
1.144524730274660562e-01
1.302619842671892680e-01
1.255439140845349411e-01
1.394361155498274607e-01
9.261581360307921673e-02
1.491069452909850046e-01
1.557640196843581293e-01
1.021944288360777525e-01
1.230557082467356317e-01
1.643732133662189066e-01
1.019583963201652205e-01
5.507615614389342606e-02
7.900819769603445453e-02
6.561963150623008334e-02
8.830447521157487600e-02
1.140726986217518168e-01
2.169751801256391416e-02
1.122968894170721654e-01
7.687963776322992437e-02
8.784675708924452597e-02
7.728568571858951408e-02
4.315480001492687234e-02
7.446412378419120515e-02
8.882567181800554712e-02
9.313695918827065434e-02
8.814267837473062361e-02
3.836469078931267762e-02
9.154198988291206707e-02
8.221472320175446380e-02
7.706031275439756412e-02
1.278456212455708271e-02
3.133877291359364603e-02
5.063699229525986389e-02
7.122630409135768947e-02
1.337052535058502745e-03
9.919693096507312818e-03
4.656818477049202987e-02
1.075467405064787357e-02
3.086713276173919107e-02
3.832630404171962629e-02
-1.933328014973145076e-02
4.760291806082339594e-02
3.493739128559418539e-02
-6.597759586504908791e-03
2.153978416558873649e-02
6.202078252393937452e-02
2.790197044341018520e-02
3.822252531055154307e-02
4.583249391967749581e-02
-1.916611323560418051e-02
7.977423768749770938e-02
5.061856140167323576e-02
4.916155845760580845e-02
5.582001866570661386e-02
3.384683085697474947e-02
3.564364356718197069e-02
1.043906630240295508e-01
-7.262993839371081894e-03
5.423740022583924819e-02
4.471397930622449113e-03
7.750116193154096833e-02
3.816099899535749934e-02
-6.576608907723026365e-03
5.137094113523887895e-02
6.739150258925341586e-02
4.574664401540622094e-02
6.209668399392346411e-02
7.851182496532954636e-02
5.952124117903427603e-02
2.321486983110882321e-02
7.714880399650494991e-02
5.080243546727611359e-02
2.255837628300756681e-02
5.108358692839475024e-02
5.071205977792871133e-02
4.348853710793310762e-02
3.116255046629601289e-04
7.735195585139274799e-02
6.551422686781256666e-02
2.668382422888825739e-02
6.139885644317248647e-02
5.837146953639623520e-02
3.721231879310591545e-03
5.053608160579046993e-02
6.532797530503818562e-02
1.083666131972396418e-01
6.494596710342373513e-02
1.167752330759205537e-01
6.168807956034615125e-02
6.765827662835748046e-02
2.936181978553044358e-02
8.174508995663640198e-02
7.676607860795629790e-02
7.713593123724718503e-02
8.365925287450820536e-02
7.625603741948003278e-02
8.348150780696916851e-02
1.167869278640658870e-01
1.409504267191895033e-01
1.693393542303007204e-01
1.452007849565719599e-01
9.204405696390458025e-02
1.540773300099793075e-01
1.897559952122438998e-01
1.632485907782442736e-01
1.958609846972790836e-01
1.533427268366834295e-01
1.494542961560794136e-01
1.537290479105889451e-01
1.876573598766358153e-01
1.466113246903273937e-01
1.660456288535363534e-01
1.872650416729434442e-01
2.155947238468604032e-01
1.493734925994247287e-01
2.157414201933729181e-01
2.156289274672165690e-01
1.362840037430221862e-01
1.507338166001549740e-01
1.442073672714374033e-01
1.271965655374397430e-01
1.600950491551713373e-01
1.736560377663364241e-01
1.450273159753107666e-01
1.366458889727952264e-01
1.821377839255278186e-01
1.150364995045673328e-01
1.320877796657574932e-01
1.242851134199630114e-01
1.076072722941030513e-01
1.098258753821994005e-01
1.516181565918321428e-01
2.040145372923045930e-01
1.889580248179784927e-01
1.721604965823478883e-01
2.172167303266536176e-01
2.887131771236788880e-01
3.179786948564473636e-01
4.127069829564608550e-01
4.943043352551450553e-01
5.514934447201196299e-01
5.878435185768898785e-01
7.500723570836289600e-01
8.805343000752480220e-01
9.610902488033036262e-01
1.088461450389705876e+00
1.148172844079544452e+00
1.180217649884953257e+00
1.231482506443402736e+00
1.273502906063503692e+00
1.281778306216663665e+00
1.289337006425153032e+00
1.217043012346579633e+00
1.177729336218910072e+00
1.121050082224112066e+00
1.047677467462345913e+00
9.775542630122157073e-01
8.408472859754804185e-01
6.891529304985147819e-01
6.832083777464315055e-01
5.505639718027176555e-01
4.639450792482167629e-01
4.148374828231943257e-01
3.556128668148931249e-01
2.762602094121939245e-01
2.155098697327945123e-01
1.677936793333257848e-01
1.133054572427114326e-01
1.282083396803297137e-01
6.782926002069508686e-02
8.975940705665350072e-02
1.399982006443977745e-01
3.598356249220464181e-02
8.900665059167850446e-02
6.454117879516042822e-02
5.501483542419478151e-02
6.600676686822309902e-02
8.724925029302840751e-02
1.574903249629848179e-01
1.173599380591891089e-01
1.163726661571712478e-01
8.729849528022202987e-02
7.677257297086199916e-02
9.211019963851338477e-02
1.576098252347834516e-01
1.110103359888076346e-01
1.399688785854577011e-01
1.402901554589863209e-01
1.497740753929300839e-01
1.486353200025715693e-01
1.735319898205604505e-01
1.427401214244255478e-01
1.903340933496976695e-01
2.384011688251440331e-01
1.851528907263821910e-01
1.804961776223671932e-01
1.918176382314781825e-01
2.250831050693333779e-01
1.720819264685424510e-01
2.502501634967809196e-01
2.220929844602942127e-01
2.346397413862989501e-01
2.253343580635551180e-01
2.325415833059070181e-01
2.092577419504572656e-01
2.126484845666190837e-01
2.054707388216956421e-01
2.029999619936219135e-01
2.846125965832392302e-01
2.448078398660540889e-01
2.620343425404234039e-01
2.634755682660846476e-01
2.556512922408443744e-01
2.732096933432748287e-01
2.910149958176640461e-01
2.533893246124550025e-01
2.275714105067398740e-01
2.816677498945135971e-01
1.997430100907781336e-01
2.596282286626344082e-01
2.408195518970724369e-01
2.517596278565470969e-01
1.957641251898726287e-01
2.440047874056851807e-01
2.093298058843834353e-01
1.966545253808312521e-01
2.537908923100997693e-01
2.321385351700572253e-01
2.091908849061893116e-01
1.974960288601131375e-01
1.578269863449224264e-01
1.530509101918676174e-01
1.849733022823242812e-01
1.271602527703082075e-01
1.881697204216335739e-01
1.853871604692900465e-01
1.728148899194009991e-01
1.525772130122004799e-01
1.008394987377361357e-01
9.270975959222060858e-02
1.529095178891614060e-01
1.185106540731754865e-01
1.226799885541562662e-01
1.321132002945523964e-01
1.494674218100584262e-01
5.776165333592450657e-02
1.143246672708358308e-01
2.133868230960372925e-02
5.574067952368691459e-02
2.426159177744274809e-02
7.048082980433133249e-02
1.036339912836783950e-01
2.416612342046607978e-02
-1.002809947777353987e-02
7.729197782699053290e-03
-3.011293316622932689e-03
-4.575093594169470090e-02
4.149240109001597898e-02
3.316903213602537259e-02
1.883169416027992080e-03
3.090720254892539987e-02
3.375206566825404708e-02
5.874938519227579370e-02
1.829983304849846018e-02
-2.411886105521883136e-02
2.724458158430673876e-02
-2.714449782718145882e-02
1.169185560242728961e-02
4.927651826422383557e-02
5.467021650269021649e-03
1.854441882941591790e-02
-4.948270098074061124e-02
3.482217736298572758e-02
-8.724970649039236192e-02
4.446423071700923019e-02
5.391212322614797464e-02
-1.814715838996617051e-02
-2.399664544354656454e-02
-1.516618115919233373e-02
2.341474408157541431e-02
-5.950161497291326512e-02
-1.925306538147043486e-02
-3.217342642546076881e-03
3.391779623116032705e-02
-4.409684441444013114e-02
2.861670445512384114e-03
-7.268572811242992107e-03
1.463683921006867644e-02
1.218786251065606327e-02
-3.556146677290994429e-02
7.532752045803857432e-02
2.832104555831906761e-02
-5.028388305954246962e-02
-3.910396090509516559e-02
4.413293631813131751e-03
-3.276534506135833635e-02
-2.273168025419610230e-02
3.285351370499832446e-02
1.528238993903825726e-02
-2.961512469210025866e-02
-2.627067780437246369e-02
-8.119432506571078179e-02
-6.252377749764144801e-03
-8.419924438755105323e-02
-5.131465913212475416e-02
-5.657096580378771777e-02
1.056256026066664661e-02
-1.036168688693745767e-02
-2.333474736530737753e-03
-6.227827170760149439e-02
1.854184122081676059e-02
-1.908646337960967845e-02
-5.788509112513532534e-02
-3.209808742913010382e-02
3.365491772589643271e-02
-4.071781561181046089e-02
-7.583469366822404717e-03
-1.531412490051489370e-02
-3.670105527528924605e-02
1.867908049598427517e-03
5.434853668753666933e-04
-1.617593930350779557e-02
-1.571477992654229244e-02
-3.799200829857856537e-02
-5.456681078070134416e-02
2.152428690933494426e-02
-2.143478237836922776e-02
1.578299096922758729e-02
1.493808281893749951e-02
1.192706547100648440e-02
7.276813418573692405e-02
-2.298154301298739946e-02
1.353649709588403138e-02
2.493236006428722895e-02
4.724236991166540223e-02
3.271227960223492548e-02
1.890837155777074646e-02
4.753100871895031554e-03
4.352168518401462738e-02
2.252856284643918808e-02
8.816353233688109525e-02
2.879544512570900855e-02
8.281837372749260850e-02
1.281035799472267089e-01
1.239328882791951997e-01
1.009924876228881219e-01
9.272772089578897037e-02
1.274781474947333515e-01
1.568817382020857576e-01
8.014221579215755065e-02
7.036779339325555105e-02
8.330748329445475386e-02
1.015646285747392047e-01
1.105551896803948220e-01
1.708392267920304519e-01
1.239595486795609103e-01
1.039329553403981476e-01
1.663096727527656749e-01
1.095508001156007549e-01
1.380300070602052676e-01
8.024995479945395971e-02
1.419005819010102087e-01
9.385754717991348639e-02
8.706777399403289874e-02
3.616681317622865571e-02
6.844788476762625473e-02
4.153492545426443888e-02
8.287838331523755819e-02
4.389081479205939745e-02
2.096769871612723379e-02
8.826571814860581511e-02
4.969014903425931357e-02
5.286546410036801341e-02
1.618808032021758492e-01
7.965873451778657244e-02
1.485188219344691918e-01
1.096504122195420816e-01
1.899797678935470080e-01
2.437765756395056660e-01
2.262644056781313029e-01
3.055522592672079707e-01
4.563373201255098710e-01
4.921379445708466416e-01
5.989280957568452468e-01
7.260969666771843745e-01
8.324680397598512860e-01
8.727908045542249749e-01
9.838914600452303150e-01
1.052434521429806313e+00
1.132453054632275746e+00
1.172960197716082620e+00
1.212951810475808578e+00
1.297614793127433330e+00
1.212563864406638325e+00
1.115851305598432486e+00
1.137508049042712521e+00
1.023000701235440735e+00
1.003358936762789311e+00
8.945864759645636433e-01
8.644382586614811625e-01
7.298201704945170842e-01
5.356113765538439431e-01
4.657125129485706894e-01
4.078702578374120979e-01
3.457840861672776822e-01
2.969431459334521128e-01
2.273634553338679531e-01
1.769014476067166108e-01
1.064214040737646860e-01
7.980036191665956791e-02
7.672575313962576304e-02
5.924003453277575104e-02
5.119492514784679260e-02
3.000514393441885974e-03
2.318256748469112172e-02
5.219751003909012949e-02
5.093557476627902370e-03
3.974013018877592396e-02
7.109745117230698019e-04
2.915322639671133476e-02
5.391988579536623888e-02
6.450985419652696673e-02
1.889796702635504477e-02
-4.305195017337086483e-02
9.707377748677695206e-02
1.003135481103503424e-01
9.541337912873718019e-03
8.921194653476559322e-02
8.374961484320017635e-02
1.284914155442409833e-01
1.321249380793728390e-01
1.284138920086096147e-01
9.739437142843439255e-02
4.152770711210060361e-02
1.333996098416978526e-01
9.280251487501708918e-02
7.906093769379432534e-02
2.264290205213403406e-01
1.243269492860105824e-01
1.677529729758263644e-01
1.838641182407004249e-01
1.765124939184855857e-01
8.309454069511437724e-02
2.185735570509072800e-01
1.771088929070279427e-01
1.963299074171718506e-01
1.649636503361144868e-01
1.633203910591622399e-01
1.681910183208750742e-01
1.725477746158940451e-01
1.804982995255277334e-01
2.373968008256139572e-01
1.892150319811782277e-01
2.192437696769660160e-01
1.859062912670095824e-01
2.155754326875891358e-01
2.017548426012737428e-01
1.833922609331581910e-01
1.582752593739732427e-01
2.099346335155795884e-01
1.663375152452035710e-01
2.079017791138753624e-01
1.423923191323731852e-01
1.644299925001689866e-01
1.161098960575070865e-01
1.464903440035112137e-01
1.581606684242921612e-01
2.067310358019124328e-01
2.045600169007630864e-01
1.861728531925791186e-01
1.669791754853941768e-01
1.489485698713290396e-01
1.185249949559309124e-01
1.234928690615222369e-01
1.033065007364772636e-01
1.492721092466073596e-01
9.783313509603860925e-02
1.371268865023295147e-01
5.497958847748191102e-02
1.359474220561984747e-01
6.116421775191425991e-02
6.361229589411718233e-02
7.806919654406516140e-02
2.204013925564179965e-02
5.691870889975997327e-02
3.750329418100738915e-02
8.098619478195795418e-02
2.011272009953715689e-02
7.600910341868359621e-02
3.211926536625189788e-02
-7.443531277861181739e-04
2.646624718832002454e-02
1.796576105044678240e-02
-2.297643015277622824e-02
-9.190669524786823641e-03
2.826708944922824707e-03
3.353259505436516352e-02
3.319980249797052640e-02
-2.044921581218833023e-02
1.254856352084383897e-02
3.358913025599321450e-02
-3.342233265616965932e-02
-4.022359774740677518e-02
-2.992879297448528680e-02
8.877892206593171465e-04
-9.800093230191778138e-03
-3.472873957989684734e-02
-1.609775732415977267e-02
-7.812909926151864748e-02
-7.061313341775130037e-02
-1.597833436796402412e-02
-9.889781183164768341e-02
-6.227134189000700648e-02
-5.873872753403751312e-03
-3.319781586574800658e-02
-1.627787576653130092e-02
-4.635172664266109382e-02
3.026612500622413715e-02
9.226180572151514159e-03
-6.236277400054039688e-02
-1.220959768218577018e-01
-6.234031714600051649e-02
3.415115883220937176e-02
-4.584056139534142815e-02
-8.874439546871010220e-02
-3.930035963892253292e-02
-6.048455942859632534e-02
-8.130394107971504469e-02
-1.029723437252683116e-01
-6.608431222390853677e-02
-5.364064804426451477e-02
-1.831418693594718400e-02
-5.014067433054555933e-02
-4.434874179729509508e-02
-8.453786554517134233e-02
-6.444354957677296547e-02
-4.817740376270619740e-02
-5.637692975975711757e-02
-3.930293448565896908e-02
-7.417749695761675921e-02
-2.835375716411657823e-02
-7.782800257772344577e-03
-1.063432054303529717e-01
-5.482711424855912785e-02
4.006696470899635820e-03
-1.037639085017074414e-01
-7.343234445723409443e-02
-1.728781110244121538e-02
-4.349083799459980970e-02
-5.006663040696132660e-02
-8.919638293750291325e-02
-3.287100222208970413e-02
-1.221632098819617346e-02
-3.678634716359698020e-02
-6.423503919542515594e-02
-5.165932061619500637e-02
-7.288636981626825384e-02
-5.642016208416555934e-02
-9.109570527006471963e-02
-5.745333555359970895e-02
-1.891228861085769014e-02
-3.935258830546126130e-02
-4.450605519918877234e-02
-6.375610856642953406e-02
-3.159457062644568937e-02
-2.328599729505643340e-02
-5.351936756415822533e-02
-4.377708237960716009e-02
-7.128426730052028759e-02
2.575796601250748830e-03
3.189910943834729784e-02
-2.981288320903732053e-02
8.758112470955710382e-03
2.476340620571840234e-02
-3.726738291215551946e-03
1.874184363321372560e-02
-1.502575021947455403e-02
3.950741508495372173e-02
2.790821563720277676e-03
3.516747725173705735e-02
5.003315425589476700e-02
4.624773295360512515e-02
7.031583401282023860e-02
1.446459781524381955e-02
7.303656658111831734e-02
5.759028362267470252e-02
6.880246408454426810e-02
7.148816484904560453e-02
7.380377654667531762e-02
1.266843759559802551e-01
1.066953070730278785e-01
1.508253143442920413e-02
1.179076637170737574e-01
1.139583167078495329e-01
7.851964073824801993e-02
1.121444058934439048e-01
1.018323391099660163e-01
1.089188174978036605e-01
7.872699545427207235e-02
5.850884643494719956e-02
1.387637019623942647e-01
8.229074394180443952e-02
7.395862534024373602e-02
1.055632501600846235e-01
7.309584739434048239e-02
8.971611548490378285e-02
5.478970824256056832e-02
8.801240193834469761e-02
9.863573097445954563e-02
7.101028389613411873e-02
3.088446268057835203e-02
7.167647037934640752e-02
3.719367593918352505e-02
6.779646002534581162e-02
8.342944778976214837e-03
1.028045310961032549e-01
9.698116560218987547e-02
1.146249750424247760e-01
1.659137946603571057e-01
1.206658492423783730e-01
1.918164479120143262e-01
2.594856453456849676e-01
2.678719517629271629e-01
4.187566253749168688e-01
4.635863931759670598e-01
6.249281889236573129e-01
6.588111514328918172e-01
8.183748072519994032e-01
8.538186310551068026e-01
1.012143627283766723e+00
1.053549481291264911e+00
1.110863353644164331e+00
1.239519210002937077e+00
1.248740458090901173e+00
1.228234597526268290e+00
1.173296173138180576e+00
1.164114480509173433e+00
1.145783001768508447e+00
1.056275050119257264e+00
9.622062684347327810e-01
8.939044364050739988e-01
8.261218656022170093e-01
7.528540099227128968e-01
5.720236681683809055e-01
4.851235360903671245e-01
4.486949639752471630e-01
3.068736112039983643e-01
2.532007577299354439e-01
2.144960820373934263e-01
1.953211872084744949e-01
7.531677964109853574e-02
8.555380623552069630e-02
3.620689989287190907e-02
8.570043837042948254e-02
5.014415178889208846e-02
2.456964098878788860e-02
1.958809791306859172e-02
3.963366213245602537e-02
3.903321862082739790e-03
1.878476794582980419e-02
1.659618474168424868e-02
3.217000902283122243e-02
6.954581089713467168e-02
1.935009526766390958e-02
6.855506029065784601e-02
6.090634939388391705e-02
5.398800848547349873e-02
8.746174882275434270e-02
7.309917917784895802e-02
9.085126884163143013e-02
1.201247140826028070e-01
7.998078300348661351e-02
8.541824300874636955e-02
1.217601774226305666e-01
1.108444564141758543e-01
1.496477537895839482e-01
1.880127338762180023e-01
1.792577126829860978e-01
1.124399828213778763e-01
1.672114996360553885e-01
9.953943394393439947e-02
1.697055377354345085e-01
1.587531612207195575e-01
1.857023977631712119e-01
1.764889796115804432e-01
1.691427129247201067e-01
1.930922653139804102e-01
2.267703338837647742e-01
2.640301470327874322e-01
2.394612760812125929e-01
2.281977694256975830e-01
2.342045433923383713e-01
2.054018285219336715e-01
2.102118767468154070e-01
2.354599978418493444e-01
1.656918005603569832e-01
2.283265287795580856e-01
2.121238612277145386e-01
2.091184114382194648e-01
1.830180953412882672e-01
2.199702396418897199e-01
1.911182922700227216e-01
2.164091321126300205e-01
2.099005957301461611e-01
1.852496417428545206e-01
2.335878985112602724e-01
1.904687354783909103e-01
2.086272994363293221e-01
1.574767022515978776e-01
1.757688361827753343e-01
1.495293716920402805e-01
1.736502523551312904e-01
1.768078367759076674e-01
1.706254461998850669e-01
2.049832435279312914e-01
1.758221208924583834e-01
9.857244256465970411e-02
1.602994518985390304e-01
1.082990221248799345e-01
1.462752850920550629e-01
6.601469911785393108e-02
1.044536537830285522e-01
1.139212512853507719e-01
6.886651289061748726e-02
1.304449237856112331e-01
1.445860690616858069e-01
7.635256720839592171e-02
9.628992185087290046e-02
9.370362805832110897e-02
4.304339066763090971e-02
3.697274299265786157e-02
6.155329879270392268e-02
9.009757653292096991e-02
7.157788872098910793e-02
-8.192714276983627253e-03
6.843788085207477834e-02
6.323154956860621567e-02
-6.098061713407010309e-02
4.339176460906410404e-02
1.871484832166245629e-02
5.346740986337760598e-02
4.112983782431163526e-02
2.540717270330876063e-02
1.114034310651679932e-02
1.458131468809675813e-02
-4.470291063331872927e-02
-4.922595541531911423e-02
1.562769438438072964e-02
-8.279213788175386612e-04
1.349350232207306363e-02
-2.098142208729868868e-02
-3.038643815037793752e-02
-2.443296419337776665e-02
-3.490474724686633279e-02
1.980937951028815744e-02
8.515046531808984076e-03
3.102136941684156130e-03
2.853710672423384956e-02
-3.766848595506891439e-02
-5.403395320380750128e-02
-2.238093661971533518e-02
-3.627269792966802270e-03
-3.704512875488692042e-02
-4.885610007529783694e-02
-4.136261624463107023e-02
7.966414230860613399e-03
8.864957121707921217e-04
2.532739316709616342e-02
2.642769860825777001e-02
-7.842729236779810709e-03
-7.352063451580577447e-02
-8.611871341946200631e-03
-1.412937764937998233e-02
-8.123510431394845646e-03
-3.563666687533544736e-02
-5.177587239535919039e-02
-8.233627677249513721e-03
-6.131703006706666625e-02
1.370417955668723486e-02
-5.786057003387379272e-02
-7.477534960280413090e-02
-2.564994968968135891e-03
-2.530520643875542111e-02
-7.215594169791947343e-02
-3.573434505202435774e-02
6.242533339735763590e-03
-6.741389070573200470e-03
-2.530291767682312648e-02
-1.374410224837012591e-02
-1.919550710699628043e-02
-4.695168077992307315e-02
-5.932331291959570818e-02
-1.712137581061028146e-02
8.150265377817033155e-03
-2.049122458824335913e-02
-2.285248706176551403e-04
2.379031492442345436e-02
-4.850962542522951892e-02
1.414373472289130913e-02
-5.386877232242291702e-02
5.969956229983584828e-02
-1.989938198516642137e-02
3.017326451683814692e-02
1.748090080243720409e-03
-2.882521961214897649e-02
-5.938243150448423158e-02
1.300705416011023637e-02
9.915552252570096134e-03
1.771004560214890083e-02
-6.053063086802137546e-03
1.674893471167751904e-02
3.438760524460814094e-02
5.080993603596881125e-02
2.691421877687182052e-02
-2.440494441742510623e-02
3.190767458727314376e-02
2.238364622680124455e-02
5.324288980459371962e-02
5.655831442301057638e-02
7.703232681263691428e-02
4.229939267336519509e-02
4.815697600697452924e-02
1.057708569462369047e-01
4.981477523935712304e-02
8.428465276764200709e-02
9.486559197924190889e-02
3.842149138060140662e-02
1.081239709958455864e-01
1.130153276978411031e-01
1.206144024625134814e-01
9.568472446001030640e-02
9.311752051333105351e-02
9.299487677930197427e-02
1.711463814573367936e-01
1.466789157073886685e-01
1.225413776089638168e-01
1.098854631880702704e-01
1.079689704976158765e-01
1.487899957393816475e-01
1.458315998646254608e-01
9.869413644958036080e-02
1.121419293094329250e-01
1.210920461708466928e-01
1.682001584043357756e-01
1.138544197744157799e-01
1.339949156847979883e-01
1.620091563163957304e-01
1.570470893282842895e-01
1.434746348614964473e-01
1.636816068971898852e-01
1.228997485075213336e-01
8.890692054183675641e-02
1.581987604119578783e-01
1.222438583731358525e-01
8.378911370371369682e-02
1.249457255994703697e-01
5.655913541409188228e-02
1.272514622493303160e-01
7.131250751561973855e-02
1.326700958691428012e-01
1.658548237952432447e-01
1.849875334280404460e-01
2.637977590777776382e-01
2.951054345759465680e-01
3.845038230361350062e-01
4.944190843212613595e-01
5.140996794521924818e-01
6.565339041307530765e-01
7.998391323558365906e-01
8.351677935332617597e-01
8.837892998896098584e-01
1.036553148836956595e+00
1.102811377724453035e+00
1.222674959205669820e+00
1.200660659999038815e+00
1.264071956494991600e+00
1.275539706048974375e+00
1.270009872338588419e+00
1.225816279761233307e+00
1.193712999174843192e+00
1.148985213602849331e+00
1.043182036812545066e+00
9.704193817126920418e-01
8.835621050492438178e-01
7.408257638245109300e-01
6.002759183614040372e-01
5.452420736302580062e-01
4.332214744861689892e-01
4.226765750323768778e-01
3.222885119226110429e-01
2.811334993589461040e-01
2.321789441900542483e-01
2.088035055244815419e-01
1.724208566029989675e-01
8.774148161702488569e-02
7.804962483151973995e-02
9.003607302793756317e-02
1.302796075351225213e-01
3.720068532609703549e-02
7.793678237434230327e-02
9.900849879036500989e-02
6.988882011731725741e-02
1.349229682007484221e-01
6.587121612725488351e-02
8.073273969407952777e-02
1.157527394928756087e-01
9.231498032423436639e-02
1.240350804949239133e-01
1.551174996588131905e-01
1.094550328717959764e-01
5.266499348872870356e-02
1.743012716891784442e-01
1.802012621831906025e-01
9.181582812765357038e-02
1.516494119996729950e-01
1.624087856399640262e-01
1.555598861521043652e-01
1.859014901901074324e-01
1.834460891995290110e-01
1.857475777088579416e-01
2.038360690217008164e-01
2.582808275612392124e-01
1.835484471342971324e-01
1.920922308005697521e-01
2.470885966957740432e-01
2.506639268335486559e-01
1.994270602854202323e-01
2.167672475368770668e-01
2.297125110470095988e-01
2.306522082052981371e-01
2.201205748070478307e-01
2.994678473772688920e-01
2.385725706489941478e-01
2.725883809595692764e-01
2.660161584454506789e-01
2.709650763569261267e-01
2.806874339013993858e-01
2.526928089846561254e-01
2.743947101268760513e-01
2.055944948678332662e-01
2.337924958548023846e-01
2.771530760146424521e-01
2.616885377151398351e-01
2.315549550871548456e-01
2.543502268131889177e-01
2.902600301281222928e-01
3.232409760023035594e-01
2.129280179174825316e-01
2.183811155940936222e-01
3.070016329152530643e-01
2.400291237219674689e-01
2.588560902632059957e-01
2.415476944474464482e-01
2.410368537255010712e-01
1.944372130374645569e-01
2.192556773327445085e-01
2.040923076028571814e-01
2.301582222473238792e-01
2.463863491337364153e-01
1.750198980047988073e-01
1.973037244806365165e-01
1.835872397677652257e-01
1.861193228407837796e-01
1.782554573380447926e-01
1.886508311932787729e-01
1.373575180938809703e-01
9.702793784111979347e-02
1.208047590304332369e-01
1.208587226830504513e-01
1.652096886746400317e-01
1.476468162828556419e-01
1.693220118059614310e-01
1.125360374665698715e-01
1.353986073033106030e-01
1.041265150939149065e-01
7.127130651984453502e-02
6.453409647311850184e-02
-3.031005304233270331e-03
9.976860525850857198e-02
1.274761691603079616e-01
9.848828184832503219e-02
8.485250887355919036e-02
1.037266593061545450e-01
3.945174492111475084e-02
6.884457715268464673e-02
5.471517824920422990e-02
7.662329880596774334e-02
4.410483443014994592e-02
1.094908991163480450e-01
9.725957848951327644e-02
6.224968914265074232e-03
1.140859054640201986e-01
5.591021248847065361e-02
5.146648146433220605e-02
6.477625971394987414e-02
7.167101951735901921e-02
4.237195802990714744e-03
7.113325142280428615e-02
3.189888237764098439e-02
1.076624538398363029e-01
-2.418947948904057871e-02
3.365000386890919931e-02
1.966354960513991973e-02
4.622867962625887978e-02
3.271558081393258210e-02
2.531589747797599946e-02
-1.144801908276521507e-02
2.612733583027960355e-02
6.212961504916146571e-02
5.068087502252653642e-02
3.408305398836199152e-02
1.818238569312426514e-02
1.713010840038172236e-02
1.002045570620134843e-02
2.450054873592863447e-02
4.856479465106924853e-02
4.607079745154610273e-02
1.837768245132967784e-02
-7.905032770155057120e-04
8.415598294568479854e-02
2.534088786492485687e-02
1.131212287441183892e-02
4.413441486223702859e-02
2.779181735331612280e-02
7.597912074902103685e-02
1.768762394485790326e-02
6.360617539137060350e-03
3.876324787153294371e-02
3.593588376852523136e-02
2.203549779458912478e-02
2.745804792054493820e-02
5.689102687865743579e-02
7.678014229059992868e-02
4.233015544187514190e-03
3.431202805171591763e-02
6.178670748449640454e-02
7.170884353825766888e-02
8.052749429703806583e-02
3.444606240486980386e-03
3.761623491735959640e-02
5.668154581401510517e-02
1.354220710302676475e-02
4.823975895345133241e-02
-2.338971742744479221e-03
1.948507972473742869e-02
-1.294513607330571858e-04
3.059936833050506955e-02
-2.770695099015262758e-02
7.993320510467737117e-02
6.542195510533591052e-02
5.692097492283097748e-02
3.226888712912213270e-02
3.250482119968367556e-03
8.101619754763236814e-02
4.345710428535171782e-02
7.153599056715070903e-02
1.043580578645629808e-01
3.309157856880545062e-02
9.454703937097667932e-02
9.622743697769850502e-02
2.079717453716570519e-01
9.110358478377042490e-02
4.996401876575593676e-02
9.951460275477742867e-02
7.371290021088411359e-02
1.728693101335383175e-01
1.854096218452162548e-01
1.361743184597841994e-01
1.658070226835821614e-01
1.617753892499795842e-01
1.563323105154657555e-01
1.286215688785042055e-01
1.915401561136976794e-01
1.823527773774598071e-01
2.553438357887639065e-01
1.834886261155487808e-01
2.025308608260256160e-01
1.974007048112045581e-01
1.785935203706427443e-01
2.004583426519241096e-01
1.903414386790264479e-01
1.591315631880452774e-01
2.273892890782958087e-01
1.775108716706000345e-01
2.175762262524506552e-01
1.908515562195450821e-01
1.985554893571367108e-01
1.890901430376729919e-01
2.228883634279796300e-01
2.150579243900847537e-01
1.736269996811858340e-01
1.951513792339299169e-01
1.660575892608413540e-01
1.688835902549025714e-01
2.149697798700524465e-01
1.475171287358832406e-01
1.837727510466341807e-01
1.698682316563489003e-01
1.575254316707636604e-01
1.752850504831530709e-01
1.890214405542562370e-01
2.092249028850755588e-01
2.397977217296490826e-01
2.686043267054091799e-01
3.184810628487564355e-01
3.925172544078078807e-01
4.584607847795473257e-01
5.213377628066759861e-01
6.383952465727855685e-01
6.689606203455877864e-01
7.426783344081706595e-01
8.781139537642064230e-01
9.538073374523107217e-01
1.106452794384425120e+00
1.071015868672786198e+00
1.207127505290527036e+00
1.222383562215853203e+00
1.317852849659512104e+00
1.291450991585507024e+00
1.318595695732342366e+00
1.333219906709236069e+00
1.233224682295448238e+00
1.199828284278539048e+00
1.118367632737173434e+00
1.020288346684652181e+00
8.431248365720649396e-01
8.364344037209774374e-01
6.851535728561396477e-01
6.170215130620788635e-01
5.162806242207033103e-01
4.079316107697200655e-01
3.342514266170153459e-01
3.719220227467134321e-01
2.222977904889124334e-01
2.149102241420677573e-01
2.390629744743153484e-01
1.432389129602594235e-01
1.861858233833478815e-01
1.470696899638615773e-01
1.648448171543144269e-01
1.708082424367608210e-01
1.156752487699859999e-01
4.829508489620766565e-02
5.654649559207670234e-02
1.244714457845650935e-01
1.030511122840701288e-01
1.183870451029182952e-01
1.590431289695806716e-01
8.819158150861944323e-02
1.324400648524637902e-01
9.456963277524028932e-02
1.005726735176987463e-01
1.879582894349144939e-01
1.784223277748492875e-01
1.221284557925973041e-01
1.978495043009949605e-01
1.036872769921109577e-01
1.716869290584479568e-01
2.387761370725035581e-01
1.685466746775166613e-01
2.237344380820820988e-01
2.371679275642560314e-01
2.089334423288699005e-01
2.191237606621053713e-01
2.096899857376022525e-01
2.727543218351200505e-01
2.296980343296279869e-01
2.371440057569477178e-01
2.334536547191536082e-01
3.475029979196722074e-01
3.223718040150051478e-01
2.907954907031038427e-01
2.890768240157274294e-01
3.287375800264017434e-01
2.671988803503371201e-01
2.612844285965348901e-01
3.295184889579529930e-01
3.542539676525766623e-01
2.789059270167869586e-01
3.094704095997243276e-01
3.178682296038954358e-01
3.052302892645745724e-01
3.130898391727772179e-01
2.944834012331449258e-01
2.194088947149150925e-01
2.922422151884958019e-01
3.161023986943031772e-01
3.052612268446295851e-01
2.731292948765676187e-01
3.133245677703040966e-01
2.791318115607794303e-01
2.862539850512088035e-01
2.512779545958032101e-01
2.523563819700725963e-01
2.668482430090055590e-01
2.545725401641297791e-01
2.375718458284900025e-01
2.261767107180163439e-01
1.652057711792389583e-01
1.911195279745222242e-01
2.174431325013919114e-01
2.107865217936765456e-01
2.188729413930776413e-01
2.390547807143034720e-01
1.793880559188159585e-01
1.503791205725782398e-01
2.252544250204057963e-01
1.874118162084814909e-01
1.506534339979971326e-01
1.081996234037635313e-01
2.261650766261537326e-01
1.414271062080308394e-01
1.543803068638745779e-01
1.085378533818049940e-01
9.840194493448647939e-02
1.630523119098121199e-01
1.064353508097477530e-01
9.820418829933628968e-02
1.117936004744025241e-01
1.069642348567968748e-01
1.332353153374625232e-01
9.362934908218989438e-02
1.113749762281320554e-01
6.927458354441613786e-02
5.770605366208883535e-02
5.477422706323951951e-02
5.698172162531665169e-02
1.265319083004308454e-01
5.735631453282032111e-02
5.471421909584499310e-02
9.138728871159521039e-02
8.800959246268437453e-02
3.193135152738293958e-02
5.633764729810400440e-02
-1.370681895539274664e-02
7.504077815813428587e-02
7.825165797463304318e-02
7.592069827142093608e-02
1.158187278807403242e-01
6.807567107467574208e-02
5.595442530109834972e-02
5.759811549044646650e-02
3.360534663679594358e-02
1.132102926353884265e-01
1.035866371159366861e-01
3.260652844945403916e-02
1.393175517482709083e-02
5.012249642292927743e-02
4.620722785690493245e-02
4.915166860725449227e-02
5.273832535517854886e-02
-5.526735114749256605e-03
3.884733700741077600e-02
4.973535731329606357e-02
1.467485508089942658e-02
8.201588045533217408e-02
2.718501074839865458e-02
3.661944761870696702e-02
9.576060473277964169e-02
-5.448413368072134444e-03
4.091495153322467077e-02
1.319632095979514363e-02
5.463349906917172594e-02
5.702053696499592012e-02
4.440280300452632140e-02
1.524667833045190851e-02
1.531722826436565307e-02
2.533010287810642802e-02
1.263012674371746108e-02
5.627050237632571367e-02
2.545440317795331225e-02
4.669089946395421631e-02
2.574568729300500541e-02
7.929062787130347623e-02
7.146263379944035876e-02
3.983616565125462639e-02
5.650088021140818595e-02
7.178734050088236840e-02
4.246321340412966688e-02
2.092238223695163518e-02
6.288514086360601218e-02
3.957725933708299698e-02
-4.943341670314106706e-03
3.176243795687389015e-02
8.087160622015374112e-02
5.049417822158697861e-02
-5.354604565129379712e-03
2.840078284669763503e-02
3.689853891642809469e-02
1.960521245514524474e-02
1.109325279531103020e-02
-5.607107925376990376e-03
5.297557388876174278e-02
7.050583956453077006e-02
-4.853427227158008117e-03
1.245256534771578272e-01
3.678505024379814803e-02
8.299331085757583049e-02
9.121061094167358385e-02
3.801248163560816407e-02
7.754277861287248164e-02
1.190755522350457063e-01
6.115126097146435236e-02
1.399455082241913562e-01
2.579462222523466047e-02
1.108348506416767659e-01
1.336722796563975801e-01
1.080665421204526633e-01
1.533866042170775046e-01
1.165941676172521646e-01
1.427488598543398823e-01
1.721063471967863578e-01
1.131112369225066028e-01
1.710895976790440254e-01
1.451217427490614775e-01
1.859505444538503971e-01
1.436079296453473542e-01
2.033708331714143280e-01
7.472066781474959174e-02
1.481351591387140565e-01
2.414483535678847437e-01
1.991175779202143947e-01
1.529851530678807414e-01
1.502054748634586989e-01
1.667854073351273114e-01
1.761141847950058736e-01
1.716207102880191737e-01
2.120430432268520793e-01
2.359416492516972497e-01
1.649438312812342433e-01
1.743562675318656718e-01
1.506616958337704260e-01
1.265385071646630555e-01
1.723430381375672671e-01
1.488424966266405636e-01
1.795256234847052434e-01
1.174970892180192406e-01
1.353725453402182810e-01
9.156762782421065672e-02
1.367351242881796325e-01
1.505389130325969493e-01
1.303872477583217782e-01
1.656335583181498816e-01
1.911824750495849934e-01
1.545385276520240270e-01
2.049056336977120307e-01
2.839459130153076383e-01
3.254517220379841702e-01
4.372511275345682402e-01
4.933038943973928059e-01
5.693672595019496629e-01
6.751350746714998019e-01
7.733586075737861609e-01
8.321218112816453072e-01
9.677565501556966154e-01
1.095890237067419282e+00
1.151302098725022649e+00
1.189275677281472765e+00
1.195517335159735239e+00
1.246774361475553539e+00
1.306867629464345315e+00
1.267137554184517123e+00
1.226139297078838730e+00
1.236847744344839350e+00
1.179551263845567410e+00
1.030605680465199292e+00
1.015760307257304040e+00
8.531254796813899643e-01
7.751988268660894299e-01
6.174614858288340891e-01
5.998801089307987944e-01
4.378819100095672212e-01
3.601459648169769712e-01
3.416921539357150039e-01
2.288033913064900782e-01
2.223317311560121246e-01
1.456280873511867080e-01
1.841151790415775369e-01
1.554475012602423156e-01
8.794328031798712142e-02
1.210503231529655860e-01
6.953468091974529530e-02
1.120437372358426970e-01
8.937994341663457742e-02
1.232979136020128097e-01
6.745163151718834571e-02
8.658001812401769359e-02
1.053615640987315416e-01
1.435815612854312306e-01
1.038788134306505989e-01
7.713800267148145096e-02
5.953462802500174983e-02
1.087154346342141670e-01
1.226592463057029903e-01
6.548940463009286783e-02
1.360204204632654845e-01
1.650971091930062973e-01
1.060045338353234057e-01
1.339300600961205456e-01
9.191427032261872965e-02
1.514106366600519171e-01
1.534780756498028975e-01
2.054999767929820143e-01
1.819895622059994611e-01
2.071726334362470612e-01
2.234080234700603629e-01
2.719685317303720540e-01
2.151262151915946108e-01
1.876924496193509706e-01
1.943999583762775207e-01
2.388552624162548210e-01
2.486841650579457164e-01
2.457370091439113613e-01
2.205049427667838680e-01
2.884326285701664383e-01
2.465361467510838733e-01
2.249827840635626464e-01
2.945978912079532663e-01
3.125932299315964946e-01
3.074600220689640562e-01
2.218137266443211686e-01
3.155066106884956145e-01
2.459161011058073609e-01
2.403938459889721213e-01
2.704000789523964832e-01
2.499233141024696514e-01
2.396046315386446690e-01
2.418138133867638317e-01
2.568061575626364723e-01
2.372466045430904336e-01
2.688159671246072580e-01
2.372399932693869395e-01
2.123964257483268725e-01
1.970211731486458950e-01
2.411959018347872574e-01
2.267137361246667759e-01
2.300819094536976639e-01
2.140321999733722780e-01
2.185756480822312053e-01
1.780616423817238114e-01
