1.250054787439522253e+00
1.268720810620817874e+00
1.269746721393285149e+00
1.184330160399078125e+00
1.078368107215741833e+00
9.789314956687270586e-01
9.146291581823363659e-01
8.235692944147986472e-01
7.046947531660564534e-01
6.234802337351129653e-01
5.273005714852545545e-01
4.917128133328479422e-01
3.241213325707868464e-01
3.062798579940720356e-01
2.411234656187829506e-01
2.117668394816163702e-01
1.741042141204733606e-01
1.697515424765032588e-01
1.057950705004365027e-01
7.786692152154429947e-02
8.980576367872099286e-02
1.210650755378181453e-02
6.812063114062225089e-02
7.446924633366909518e-02
6.830918685117275124e-02
5.340500399183548824e-02
7.905246832555751224e-02
7.987977425964974676e-02
9.555632343330665301e-02
9.705732197863224664e-02
9.466919000205395451e-02
9.575916017955714288e-02
8.550738083546055579e-02
1.192152568123723555e-01
1.686935681286080291e-01
1.463092504599801391e-01
1.096766034334981516e-01
9.761968519662632404e-02
1.456786549194981351e-01
1.698223888567926276e-01
1.398246860332591213e-01
1.493708773241058385e-01
1.493456589679181823e-01
2.311726321155352926e-01
1.792226131088174301e-01
2.029958451383871154e-01
1.549365646379451122e-01
1.834103005305684764e-01
2.618745196047840285e-01
2.017264676062705264e-01
2.301090208245417656e-01
1.774446189868590651e-01
2.186761379143100092e-01
1.620682906281179503e-01
2.109049369608278768e-01
2.289355765407855015e-01
2.630049164302789011e-01
2.302884450051434773e-01
2.350096183445666009e-01
2.109312569136488347e-01
2.356656357940871138e-01
2.633998189285870484e-01
1.629680100056839775e-01
2.667576060417995998e-01
2.292317224071758197e-01
2.338065065669267528e-01
2.243575518404415936e-01
2.160609228161468887e-01
1.959120630534800234e-01
2.023524323014954662e-01
1.924871416589918338e-01
2.401419250709116993e-01
2.617728187861319000e-01
2.006247065529963014e-01
1.907309016791545186e-01
1.982705692430701550e-01
1.625650403945279598e-01
2.015502957139157503e-01
1.805946965486005251e-01
1.135017868830862087e-01
1.884293160486617824e-01
1.247187545810211073e-01
1.511089922788155515e-01
1.392970342658482741e-01
1.649075391086846087e-01
1.218957942580789211e-01
1.714785217750167123e-01
1.565338045124161637e-01
1.141401618971166904e-01
1.710962113093854320e-01
9.047401543539314306e-02
7.302807666541660803e-02
1.442795185867109808e-01
1.076984393684053687e-01
1.043046480648979341e-01
9.428380322339316444e-02
8.934221421935145679e-02
6.738542766979380150e-02
3.066919715848796107e-02
4.620258802033535422e-03
3.034867466945629852e-02
4.734844069594314198e-02
6.863885943889320995e-02
1.788138292818415229e-02
-2.569314682071818096e-02
6.501810427205434451e-02
5.645506825923569949e-02
4.657361968652365403e-03
2.273260357468002632e-02
-2.705320522154774920e-03
-2.725668522223284942e-02
3.114043863856538752e-05
-4.583229560578645778e-02
5.144978829692954669e-03
7.718979310543442468e-03
-3.021548555353445811e-02
1.978343611551778777e-02
-5.120862249283891082e-02
-4.430095642289735847e-02
1.106161244198337890e-02
-5.930879604520919446e-04
-3.027841545921769462e-02
-1.199669057361144389e-02
-3.210974795406461996e-02
-3.445143246056592279e-02
-1.030855396820214501e-02
-2.630053596126205595e-02
-3.289815700691057360e-02
-3.220313657222674542e-02
5.079101086541347454e-02
-1.108625240899815956e-03
-3.870127690165700574e-02
-5.333786015296167887e-02
-2.643827624809482607e-02
-7.546602168162681867e-02
1.502723740162087776e-02
-4.492783506194904242e-02
-2.807428862563741967e-02
2.749262089754237609e-03
2.039061990369070085e-02
-4.554461733908193172e-02
-6.178908125896671877e-03
3.358329969326316611e-02
-7.430550989714307386e-02
-4.973669383652445930e-02
-1.845403727622432766e-02
-5.372046969537595112e-02
-4.442910318118750701e-02
-1.072434055102569270e-02
1.336146480246112184e-02
9.192518810270448176e-03
-5.222261235920907380e-02
-3.436374473975054022e-02
-6.166810837203765688e-02
2.000288765756195672e-02
-1.651886022620860373e-02
-3.306055739852070685e-02
-2.947930253996892611e-02
-3.451647477518642038e-02
-4.564961160033641219e-02
-3.778275644024698537e-02
-4.628831920341433537e-02
-1.435121736393222061e-02
-6.426571425816229866e-02
-2.081998315737258742e-02
-8.177489872202944876e-02
-8.778794068714262933e-03
-5.955803599679067306e-02
-4.418031843996823860e-02
-3.547982111938021571e-02
-3.859670614186018478e-02
5.093826307628035455e-02
-4.835939703561225461e-02
-2.709884878539250974e-02
-5.765975401226513392e-02
3.708814386733362556e-02
-2.126147979864861579e-02
-5.150747866109957329e-02
3.480991495006794528e-02
1.096529131578480309e-02
-5.728694642636113915e-03
-1.736245096176966540e-03
3.912341313846219581e-03
3.916208167147517544e-02
4.900331192366162020e-02
-6.022432316359362103e-02
2.052940671084406421e-03
2.717570976563363910e-02
8.409802084662319765e-03
1.071019661141129481e-02
5.769744383554926970e-02
9.476971677596621180e-02
5.474656461799712326e-02
5.005527839570875215e-02
2.881013457296131147e-02
1.165640516459508919e-01
8.886552136047874695e-02
9.021807393762062977e-02
9.475811413702228680e-02
1.223103424247030668e-01
8.614654154949631659e-02
1.198823968137038287e-01
9.431378203695095497e-02
8.591674205756077987e-02
8.160382599840235174e-02
7.928951833342588740e-02
6.052824749016989109e-02
1.590518138774034140e-01
1.435037776069947035e-01
1.002182421180875804e-01
1.069070229593323679e-01
1.078884792858386676e-01
1.205825899606586121e-01
1.283702961077509141e-01
1.127823050746277755e-01
5.800106509967777046e-02
7.548182206144087025e-02
6.809886895364039572e-02
-2.845070503891278940e-02
7.587561425799263515e-02
-8.283183762147594553e-03
1.118498376253091731e-01
1.943943475418648259e-02
6.174440048202607667e-02
1.062379540868140237e-01
4.542051141752571214e-02
9.366675723555889510e-02
7.134283938787402968e-02
1.189996499033882105e-01
1.364840089024229597e-01
2.170639954112953129e-01
2.579548181981451971e-01
3.234653537224999043e-01
3.815225751449191627e-01
4.393933087153885086e-01
5.647698159702921883e-01
6.516625367933309709e-01
7.029853463527702129e-01
8.636598466337681579e-01
9.549308772401239320e-01
1.049415879300586107e+00
1.108718364951692736e+00
1.128255917356062010e+00
1.197827316123029950e+00
1.176925388668359496e+00
1.235449685096408956e+00
1.231582652319172633e+00
1.212009723898477276e+00
1.076128996499144064e+00
9.570135410104807505e-01
8.986778559771223529e-01
8.026732260895053095e-01
7.076165417560511539e-01
6.786642099440695075e-01
5.368176977284131457e-01
4.830218881311827972e-01
3.866345842220310081e-01
3.113666592074309514e-01
2.405207962094311758e-01
1.580762599262571511e-01
1.460169534583091733e-01
1.596407470178606292e-01
7.267863193405391109e-02
6.128315779558644177e-02
9.702641775569377514e-03
1.831912809676532194e-02
8.788393126272255051e-03
7.026643712166902311e-02
1.359691796066606062e-02
2.663848165383872479e-02
7.070092755314880129e-02
4.722222442519474761e-02
3.425557332835385549e-02
4.252870039976733296e-02
4.331205883419076558e-02
7.734199893576579332e-02
3.758614925929956718e-02
4.931919898175542855e-02
4.740472752972053894e-02
1.018029005779368668e-01
1.113427179908500486e-01
8.337585144804357529e-02
9.554766567530485755e-02
1.429769590226644405e-01
1.201870537394023608e-01
8.467718174457605773e-02
9.427000764235426988e-02
1.294685370404641545e-01
1.704642180007631680e-01
1.504221988699444845e-01
1.243675974024014697e-01
1.827803150270346511e-01
1.377612428257151134e-01
1.576499105215866947e-01
2.372312718464766046e-01
1.547447340790788495e-01
1.780388837227360743e-01
1.890714264367924780e-01
1.468446420755032400e-01
2.172229880118449752e-01
1.916597410120605693e-01
2.044999556247785177e-01
1.950078407377678069e-01
1.638150469613678939e-01
2.235747370716599514e-01
2.398105056799733070e-01
1.686842871716501269e-01
2.047584739104184592e-01
2.334009410805192031e-01
1.927674197161207414e-01
1.968245096757794133e-01
2.083161297135807666e-01
1.870863408433782182e-01
2.037471854245324343e-01
1.715882892402788851e-01
1.940803671058705937e-01
1.738497336085811362e-01
1.830298365426583362e-01
1.880768182673309974e-01
1.468332483777063935e-01
1.451157581447052591e-01
1.581745787469905906e-01
1.148104125139850773e-01
1.290506276230451999e-01
1.078136394031099787e-01
1.299696064996588574e-01
1.451976886907603015e-01
1.474837309440358013e-01
1.532873918384842771e-01
1.107742591468290350e-01
6.403796190217016238e-02
5.618453287644433608e-02
9.771055303496693767e-02
6.779806284677336592e-02
4.624777489218847432e-02
9.342500326492603202e-02
1.064928454492688747e-01
6.688488543800076569e-02
7.422685088164703016e-02
2.698555319617181036e-02
2.312958810088631273e-02
-6.062043012796906882e-02
5.747938827160292696e-02
4.152428134924953523e-02
1.546971691804718829e-02
4.957748209989115695e-02
1.954366616373364590e-02
4.224496446416231565e-03
3.279158442762663411e-02
-1.932148768102818354e-02
-2.293672714791163136e-02
-2.530712843344001817e-02
-4.999858810144993532e-02
3.626244965999927267e-02
-4.953258135553241515e-02
-3.155067789726508087e-02
-1.608753350969428092e-02
-1.202474892782422894e-02
-1.168771526666412958e-02
-7.741008387849193650e-02
-7.270377069249123192e-02
-2.336296670246684401e-02
9.974811377467286688e-03
7.294641805025613157e-03
-4.639211164319256842e-03
-4.574194511633897231e-02
-5.422586149799227956e-02
-7.717851973907401131e-02
-2.651451799217827837e-02
-1.737324163678997946e-02
-3.638972478576250891e-02
-1.164922113867330328e-02
-2.417356102800558015e-02
-3.200648602707203971e-02
-4.626931492860835576e-02
-9.584564390536880196e-02
-4.623690735443815314e-02
-8.660879565600912433e-02
-4.729865576012943357e-02
-1.264276934775403483e-01
-5.471689947321108083e-02
-3.040094242354570223e-02
-9.488456581495560704e-02
-3.177711239508568264e-02
-7.353288034624130831e-02
-3.862335249254508773e-02
-5.366279249034711096e-02
-5.399491578937842123e-02
-1.129538076210626768e-02
-2.704640715043375374e-02
-1.042086942822214868e-01
-7.337498274345342908e-02
-6.366452124566303328e-02
-7.460892498755623825e-03
-6.071980032135316369e-02
-8.074689020987121935e-02
-5.810182154321957143e-02
-6.402716039080962040e-02
-6.486960429006324858e-02
-4.614328190420629444e-02
-2.518344826037444140e-02
-3.009016511343848635e-02
-4.495140421684890031e-04
-3.285241743825008387e-02
-2.931007682663475111e-02
-3.959644998385410120e-02
-6.406282011155126077e-02
-6.119743621952417056e-02
-7.652842009466019613e-02
-9.712093698755114302e-02
-2.705889291495026244e-02
-3.495730519335649156e-02
-7.778778219896230472e-02
-3.177339629801968768e-02
-3.150492297895673283e-02
-1.809550616505870360e-02
-4.880246547766369652e-02
-5.673885762272033728e-02
-5.322901459858079415e-02
-7.853528878773038957e-03
-3.111214576496809658e-03
-5.241994067292199411e-02
-2.345763821358329629e-02
-3.224958679629211927e-02
-3.440215793980014314e-02
-1.790853849561506450e-03
-5.611741342540783883e-03
-7.739021433487450197e-02
5.317615444922291212e-03
4.756089317663850929e-02
9.587390684010377306e-03
5.657761495094058152e-02
2.880791599247854023e-02
8.521278209329605224e-02
9.165003235266906689e-02
9.769192258206232937e-02
6.435230368742655971e-02
5.730546378618131542e-02
1.896400484937159348e-02
2.143145471519902062e-02
1.100535958026826466e-01
4.839853720990600072e-02
1.253522333485709295e-01
6.222156310836946674e-02
2.725062626746443256e-02
6.774622987772274674e-02
5.493613796025943047e-02
1.441199954525831384e-01
9.501405636655539666e-02
9.614144030136292929e-02
9.089651309890039999e-02
1.067754228111589820e-01
1.161211897946653332e-01
9.006712875690178755e-02
5.698729483240767835e-02
5.675117410937378232e-02
7.308202036520827782e-02
5.384269560827263656e-02
1.338882612442599540e-01
7.734255517048528594e-02
3.501824548111215352e-02
9.514502103139726996e-02
5.549852670378275371e-02
1.037953349250859136e-01
4.930978311158314142e-02
5.461334171090582307e-02
1.324138339209472159e-01
6.780779835804254252e-02
6.761002830443912925e-02
7.616438100817390922e-02
6.272024804015294275e-02
1.590504810483651665e-01
9.037309855671615821e-02
1.829763841405132596e-01
1.708318457588428596e-01
2.138726288074695447e-01
2.650816594667808612e-01
2.883752986510206284e-01
4.130647269652125697e-01
5.348794295565759693e-01
6.009841479924922236e-01
6.648565229985652358e-01
8.166028001528528035e-01
8.919659064010631022e-01
9.783418147416385047e-01
1.020296957379099201e+00
1.117032728302440381e+00
1.183105280874720000e+00
1.213592153187289524e+00
1.252812863345645233e+00
1.156821281364537768e+00
1.154752863580111644e+00
1.118039820529908468e+00
1.071401109622778458e+00
9.764715341609244703e-01
8.755879756383722068e-01
8.134876114681541814e-01
7.948903550513906069e-01
5.797081035112302549e-01
5.363401497144453245e-01
4.611935456422657231e-01
3.124301771964646535e-01
2.693059163585718174e-01
1.488359610890672979e-01
1.504283656589032181e-01
1.416359254158416070e-01
8.320981479109122725e-02
7.612172884969876929e-02
7.021956574535308249e-02
5.283171649043491569e-02
4.488828558487393400e-02
4.184386108182367586e-02
4.343020272334021520e-02
3.838241156831638523e-02
1.463188696886828788e-02
3.532953504588660920e-03
4.297540634799962289e-02
2.743759604726977303e-02
9.482643190524608912e-02
7.325859332185338801e-03
4.834059862307193284e-02
9.086082593149781561e-02
3.437606215126251530e-02
5.942081637038831854e-02
7.771247642688021429e-02
1.485758458312074759e-01
8.870013773914538213e-02
1.222312393251687723e-01
1.100784848564091423e-01
1.097990441727649813e-01
1.692181871801799187e-01
1.037256919264870070e-01
1.452641981095812718e-01
1.551556442971444294e-01
1.950467380903281867e-01
1.570285402114333373e-01
1.264367907200804608e-01
1.377098984795525616e-01
1.526633771088975466e-01
2.129492199618382431e-01
1.807932877175568720e-01
2.147992096013935093e-01
2.538134669131628107e-01
2.289467218723241215e-01
2.363313587267559523e-01
2.228325643998970151e-01
1.884756088942578234e-01
2.809465231649616590e-01
2.023291200438605830e-01
2.512454064482527172e-01
2.536230240565573446e-01
1.855743677316708806e-01
1.807933148650585908e-01
2.416895191760931594e-01
1.946594962130709650e-01
2.654175282845397388e-01
2.043123675308557430e-01
2.537599667722018060e-01
2.493093843281127819e-01
2.225032792162987549e-01
2.078224365269237262e-01
2.216490098255380625e-01
1.968652420689006310e-01
1.888670508084676902e-01
1.546711270447877207e-01
2.126488195386658231e-01
1.691665655164016069e-01
1.938874122156278301e-01
1.851906512036073926e-01
1.228378197590613424e-01
1.696731721853150243e-01
1.723802210150966463e-01
1.457286798649421455e-01
1.513231246841371946e-01
1.425745663926339946e-01
1.769214386814498274e-01
1.216374141715970830e-01
1.427569940477061150e-01
6.247490745720553351e-02
9.179948033273939434e-02
1.114349968231058835e-01
8.067922039553400426e-02
9.794297690183353944e-02
9.295315204848769719e-02
8.612210711168502564e-02
3.941584388785934062e-02
7.436889028992527129e-02
3.491382251918218049e-02
3.982414526506667524e-02
9.861152835765084335e-02
6.912589516520635524e-02
4.014306419857351788e-02
3.266163257387635910e-02
5.608429808083454510e-02
6.309619257378444590e-02
3.731502696986125495e-02
5.575048411722387243e-02
1.751885329896919405e-02
3.268564478150633168e-02
-3.748976735927590787e-03
1.268081234501883953e-02
-4.119435213298940079e-02
-1.178004728796224095e-02
-1.021250655359160625e-02
1.623299128963862081e-03
-9.043610344961922412e-03
-5.618127417748584873e-02
3.469433008234315552e-02
1.650212697972256240e-03
1.655543949915482677e-02
1.559357022152859512e-02
-2.855261345832457026e-02
-1.173722679014117462e-02
3.472484084686686123e-03
8.700090049467069930e-03
2.833376008649591063e-02
3.294150744819203391e-02
3.942474871796316366e-02
-9.427245058068975739e-03
-5.677346039108820824e-02
2.140144412457881118e-02
4.441505594671065968e-03
-3.769462041614413117e-02
-3.245419562977297501e-02
-1.755608267316346310e-02
-1.051240533945391187e-02
-2.934897436387543662e-02
1.599484707015857293e-02
1.325830573455317324e-02
-1.061224035810963071e-03
-3.727947225700988659e-02
5.354537093217630155e-03
-1.368225934256999884e-02
-6.128425589385379235e-02
1.191114957208922430e-02
-3.083895931577669558e-02
-1.861475025221109858e-02
-1.116390294931035587e-02
-5.372332029813829679e-02
9.428707814170675036e-03
-2.402461632624422732e-03
1.230161522923141869e-03
-2.254367421398638729e-02
6.327017880588245435e-03
7.968308674986270337e-03
-2.169491770999207141e-03
1.517862101212525891e-02
-3.194971045942265192e-03
-4.935054618175677837e-02
-1.501076091762098413e-02
-1.197508470563818719e-02
1.099363761202246798e-02
-1.376062486217220424e-02
-6.318300002920983552e-03
1.748872758158795740e-02
2.513639587539303472e-02
1.692050174217277561e-02
1.363378879822101791e-02
1.716737986349016129e-02
7.592599089436655180e-02
2.188361700988764036e-02
5.372779057965463428e-03
8.660638897476466425e-03
5.807682484085744529e-02
-3.225998410054041390e-03
2.006651057159677259e-02
4.202543718505885595e-02
5.266564345225622362e-02
-2.171788339304060733e-02
4.331694604959764050e-02
1.093379438216287268e-03
1.280646472264124480e-01
3.838232055131190340e-02
4.061829685372377041e-02
1.196998899959247492e-01
5.078618149524823100e-02
4.266113529518335279e-02
1.153457965175600924e-01
1.521209487456941511e-01
8.642619053157930831e-02
9.295294107475056411e-02
6.339379299551603508e-02
1.497759837459275989e-01
1.006877017814556963e-01
9.474135772300837366e-02
1.574513440274089293e-01
8.453290652486940282e-02
1.518429767415462317e-01
7.606034168930719819e-02
1.655900558425665581e-01
1.470503601161248508e-01
1.782140783878858326e-01
1.159695129887635540e-01
1.535182794701577536e-01
1.292931051436037870e-01
1.212695723209215176e-01
1.756073854149155511e-01
1.883252428328869577e-01
8.572184432412166544e-02
1.924746274879468311e-01
2.005499909515049972e-01
2.167078653023192802e-01
9.022126762486741558e-02
1.886772735284200087e-01
1.490248155099886396e-01
1.304819947709648376e-01
1.898262969615643336e-01
1.274673665663524913e-01
1.266170116729534723e-01
7.153568218756589658e-02
6.443631014721151740e-02
1.227268447485296010e-01
1.800776576409549856e-01
1.569607776290578571e-01
1.608007924122000221e-01
1.003948184921163583e-01
1.792593714461298560e-01
2.198193761968897375e-01
2.303879063236447255e-01
2.065005396316497155e-01
3.664362936132788406e-01
3.840684509021171644e-01
4.021232495576368415e-01
5.752721276346407508e-01
6.076818025087428188e-01
7.298855718957717453e-01
7.898324703970611704e-01
8.796089355704261870e-01
1.025896130468177736e+00
1.047558349007962519e+00
1.215478758769322987e+00
1.218990712688160949e+00
1.262561805131422021e+00
1.281582105531115845e+00
1.295285462871579529e+00
1.230153674326517343e+00
1.210645790705935809e+00
1.212083938288003093e+00
1.096129234796413554e+00
9.697915575427999979e-01
8.594551539764627712e-01
7.408885165403141793e-01
7.107856808990004049e-01
5.647123207270901002e-01
5.310459753298151231e-01
4.253931112787470159e-01
3.572397255621225232e-01
2.822287987339176518e-01
2.197591477598413445e-01
1.752511193039333337e-01
1.782599250004679448e-01
1.101584210487882992e-01
1.034412622819251559e-01
8.126694208273720077e-02
1.444039208560760346e-01
3.255548539270125552e-02
1.086063325580639560e-01
1.537483951275148419e-01
2.957684839743656216e-02
1.097994262728230475e-01
7.116796168077063611e-02
1.273113540920065567e-01
6.959125232178314802e-02
1.422666979561848788e-01
1.009170829378405881e-01
8.665729222776553942e-02
1.280203425304025089e-01
1.144142691649823462e-01
7.164243877796355742e-02
1.102745254919994811e-01
1.981898071334633749e-01
1.561814935386445502e-01
1.889450520516487986e-01
1.483404544124692914e-01
2.007679617412615469e-01
1.951175976952956859e-01
2.381398446137577563e-01
2.073260451483710520e-01
2.046572358478975784e-01
2.097772062466134457e-01
2.187425158953056892e-01
2.448375447721209963e-01
2.506597852425344053e-01
2.065533180744535680e-01
2.899467930012690209e-01
2.196762202237758643e-01
2.512124931418894813e-01
2.587355262598221017e-01
2.610975713969762024e-01
2.728227995859256461e-01
2.455676915133135074e-01
2.792987820443393887e-01
2.681400153150909071e-01
3.240111211069956476e-01
2.740362906270930599e-01
3.290220175062522623e-01
2.924237389148404143e-01
2.723988060335624795e-01
3.272710690195311800e-01
3.340696885921262682e-01
2.668570546925034814e-01
2.839798306658550819e-01
2.975067355603367436e-01
2.760553582590817845e-01
2.584375578697999942e-01
2.524589912691441174e-01
3.063338005113019902e-01
2.986562355977359640e-01
2.386098705413312870e-01
2.396442733748735954e-01
2.237368115699094606e-01
2.817982301972735693e-01
2.200326335537271805e-01
2.342940423307814657e-01
2.516004408680607707e-01
1.525408773494613401e-01
2.056778468683874428e-01
1.482167801117267314e-01
2.394088625079964228e-01
1.330801156721402867e-01
1.165173586364722236e-01
2.242559984481837798e-01
1.466836996089418421e-01
1.202715120908210977e-01
1.083512108177790839e-01
1.581667928898048692e-01
1.503393411203684527e-01
1.521897737725428079e-01
1.235303739247004540e-01
1.845619552197416136e-01
1.220427482808100206e-01
1.062678834469300004e-01
7.337282483290341606e-02
6.005460321470324631e-02
1.635770682399487197e-01
5.079480435606596039e-02
5.631862044724195160e-02
8.698187674957842674e-02
1.312212555750932041e-01
4.886092541177543963e-02
7.171969821343104901e-02
8.620893392036216296e-02
7.859834298365560301e-02
1.090468406020409092e-01
8.245747395635763533e-02
1.361769994858438027e-01
8.005122889534246888e-02
7.267617213183510949e-02
2.070936128453816291e-02
6.865223066078476877e-02
3.039297548144236083e-02
4.899990946923269558e-02
6.298586425180734139e-02
6.957612765699003332e-02
5.659245540652130951e-02
1.914118504978085458e-02
1.788919326798834794e-02
1.361440958055601391e-02
6.548611705652357395e-02
4.246278488171140175e-02
5.648849682437850211e-02
1.292602483051093556e-02
2.738688305311080817e-02
8.464296791881709137e-02
3.621311514048732028e-02
9.450248595896654225e-02
6.572370307363668840e-02
3.164020411313719916e-02
8.075507686695081178e-02
5.393769667800170364e-02
1.252517710281256941e-02
4.684296460052889827e-02
4.738837664755576190e-02
2.317895863310179272e-02
2.993010805884022130e-02
-1.062666334440098143e-02
4.917639476091584250e-02
3.159292199782250121e-02
2.978825664163885917e-02
6.808896783547128961e-02
1.332777543164231082e-01
3.322696153229778848e-02
5.722191881267260638e-02
7.766907559100363900e-02
5.879793767682434114e-02
4.773523451963486430e-02
5.898709731450287735e-02
5.612388019891275531e-02
3.090340262906788454e-02
6.929784668432231731e-02
5.068266845166155554e-02
4.635784662316411175e-02
3.984812303082557738e-02
6.607846477709211630e-02
4.412975732803128132e-02
9.081764986850118793e-02
2.485239406857951694e-02
5.622932687399088969e-02
1.153978292834525465e-01
4.724672758846790166e-02
1.293575244225291659e-02
7.393322403311106128e-02
2.031784363990495751e-02
1.032379487058128764e-01
4.900915781428866885e-02
5.154849864110509772e-02
5.304851197265056384e-02
4.744756259736299109e-02
5.708975698096216411e-02
5.573454022255152490e-02
6.468017543714386919e-02
8.253686385839902051e-02
6.576690910067786722e-02
1.673204459540530986e-01
8.498027647977493548e-02
1.112652808467674281e-01
6.587738226347748804e-02
8.848603105690391879e-02
8.553332494146666243e-02
1.600834541301694725e-01
1.200144609975956345e-01
9.815931062991935241e-02
7.180762383564166795e-02
1.448991269265508808e-01
1.464593282593209533e-01
1.734957698673584847e-01
1.354232204627367209e-01
1.604154586017194073e-01
1.796062765335937061e-01
1.335797095477649354e-01
2.034703866889881474e-01
1.239740437943681467e-01
1.938952252489659356e-01
1.688105111341999531e-01
1.787307183900707641e-01
2.137970170698590966e-01
2.336492196362838503e-01
2.052519708062647275e-01
1.909971006550615358e-01
1.791605271123399290e-01
1.578470880397059295e-01
1.818958864945608989e-01
2.169170221613381799e-01
2.112761771292794299e-01
1.907671761434526769e-01
1.860010900650113652e-01
2.241122540251912210e-01
2.073808946458622626e-01
1.941869671600807146e-01
1.409144479979846931e-01
1.661334165221215464e-01
2.130675521437195297e-01
1.778507400672726946e-01
1.036629868062210746e-01
1.617030743639911727e-01
1.803807611295111524e-01
1.446168480923175348e-01
1.685906155011660523e-01
2.333546404674360086e-01
1.268156729656179371e-01
1.488124398826130845e-01
1.871119408175307142e-01
1.950778678194158844e-01
2.856603454884324433e-01
3.290969037913871187e-01
3.738039449129938463e-01
4.375690111235783775e-01
5.205379004423447142e-01
6.044338481330318036e-01
6.714033409145823139e-01
7.962021245327619567e-01
9.273448571737623602e-01
1.001417050887171367e+00
1.052346010131272713e+00
1.160341297382206038e+00
1.168064737150839916e+00
1.208661031526352181e+00
1.300690759870116286e+00
1.334260631731972513e+00
1.322931746850396273e+00
1.176965222565971247e+00
1.288547467214760323e+00
1.131186755438697844e+00
1.058639717825699655e+00
9.556367347132352918e-01
8.844121466280903121e-01
7.347658071673585090e-01
6.189658701629495718e-01
6.412419882151243478e-01
4.937472886029549701e-01
3.887330679965825819e-01
3.495745148202861197e-01
3.457046126243527584e-01
2.802454085314024512e-01
2.328506218183517273e-01
1.441820309462808480e-01
1.320718930780754308e-01
1.439081484824595303e-01
1.442055514307346575e-01
1.752173123196735793e-01
9.883964569345603246e-02
1.248107572271653365e-01
1.383286286765412210e-01
1.227160925074146092e-01
1.527073177984635266e-01
2.062180300521792298e-01
1.527445283392118713e-01
7.650386742286260922e-02
1.633418141057926543e-01
1.760995976606457847e-01
1.273597468218890805e-01
1.617266494751301853e-01
1.333665677879103673e-01
2.137972540314236336e-01
2.121096962233813277e-01
1.725031186128775651e-01
2.050521281809885299e-01
1.685429513439133109e-01
1.493092704396067893e-01
2.299189490434377370e-01
1.735446243425019519e-01
1.865662854630099066e-01
2.218371494698156421e-01
2.190095956756012707e-01
1.740773662635876351e-01
2.355120065027433429e-01
2.378102888101343571e-01
2.801547203924603102e-01
3.060811697374210549e-01
2.920651762775086646e-01
2.452056475472663977e-01
2.958246395087521519e-01
3.037450032894506990e-01
2.769530468874067952e-01
2.691222105428571210e-01
2.469111677364403401e-01
2.545720511795213081e-01
2.966883620122852117e-01
3.143777876919665037e-01
3.028697567555281855e-01
3.243110255628872118e-01
2.794149438948717035e-01
2.700819794171164245e-01
2.988819830436051372e-01
3.161364937031520550e-01
2.767751346787084010e-01
2.489216283994261092e-01
3.217780975553509171e-01
2.659246742910168493e-01
3.127489602552188108e-01
2.938762568853502954e-01
2.567167769244396158e-01
2.449361263807492972e-01
2.590217083044125124e-01
1.796979538057688341e-01
2.993858124475641258e-01
2.469219455115531647e-01
2.585020080940480525e-01
1.873624710961668827e-01
2.719375749046105684e-01
1.995182814089915546e-01
2.022671977597585435e-01
2.014690853478099675e-01
1.672736640111004702e-01
1.689193720498588513e-01
2.150954916274907258e-01
2.011834725346497710e-01
1.757407068268087014e-01
1.296801992752072974e-01
1.405317445777679308e-01
1.555773335184810202e-01
1.513228284977610472e-01
1.604739572863983221e-01
9.451028508914080528e-02
1.294384144005663040e-01
1.644178524869031877e-01
1.194491301102886815e-01
1.362278810044023347e-01
7.527871281900760936e-02
1.215999534128865411e-01
9.102471749591789507e-02
3.272468599810010592e-02
1.648682589117330677e-01
9.520435609371180607e-02
1.232608935636737013e-01
1.019551376776776791e-01
3.770763882365381348e-02
5.628804149970439985e-02
6.889365745728853740e-02
1.558203889283704957e-01
7.272049787960130351e-02
2.392250864558535806e-02
2.945246843909499548e-02
9.952497704639701182e-02
4.314447037407023733e-02
3.244057212368006704e-02
5.371042179567121766e-02
1.246102602460097963e-01
5.432326460987928207e-02
8.407228491079618560e-02
6.261411372753321325e-02
2.827687831926888745e-02
3.696565088629961277e-02
6.587679540047317039e-02
-4.054431214735303851e-02
1.469815903746320845e-02
1.123619631542203262e-02
5.779020950668727757e-02
2.065501357688858536e-02
2.413850749451815908e-02
4.575061746077997010e-02
-1.888037263969355450e-02
-1.472865282733454295e-02
6.297554913600188209e-02
2.063775421301001015e-02
-1.368878970550811702e-02
4.842596459300234357e-02
2.861549568711364497e-02
7.499190181949826062e-02
4.691935276191574328e-02
-9.955929085649906085e-04
1.912007167176207889e-02
5.108950039914267327e-02
5.502391414180907159e-02
6.382574284064899961e-02
1.393487799195906179e-02
5.765163590449096792e-02
1.026765417550262460e-01
6.500000934842366240e-02
5.379873483671183260e-02
2.290543541799077917e-02
6.124441018133260084e-02
-1.083803253137680805e-02
3.883512842441693563e-02
4.853535854405982564e-03
1.643706237328368056e-02
5.623415463584308799e-02
-3.782687635755237893e-02
-7.530133149336294685e-03
1.393624177692434629e-02
-4.500156870397711839e-02
3.802873685484176036e-02
1.659233687643803246e-02
5.499270619329996168e-02
4.232437779169122283e-02
2.712903864322047456e-02
1.113486769866996531e-02
7.234409449856861463e-02
5.504460191801165830e-02
7.356206736243732502e-02
3.379477825369862909e-02
2.700630946357362311e-02
2.736225053236562843e-02
9.968277976495795722e-02
1.036471867863081320e-01
5.784945465455973435e-02
8.126262889689140484e-03
6.161923707371240455e-02
6.875142525505896496e-02
9.157088302299348781e-02
3.149910456579807505e-02
8.284203282618884945e-02
1.765042953759728972e-01
4.185370145386021340e-02
1.055197533621024669e-01
1.114673844639014477e-01
6.079545658382726203e-02
1.221701291742095102e-01
1.054585829382314044e-01
1.314282160842706049e-01
1.121443601686402392e-01
1.332918085551264842e-01
1.394576239883919544e-01
1.274018214250791925e-01
1.332222542869307413e-01
1.430447802300883753e-01
1.394575062007556987e-01
1.448785931208809719e-01
1.170824289528759193e-01
1.409276966533222486e-01
1.180989481365346261e-01
1.998723674808645379e-01
1.845479160027915788e-01
1.867018746247609551e-01
1.574620764416967411e-01
1.454218813195609639e-01
1.579637332327906152e-01
1.477347793905448847e-01
1.170209684778787118e-01
1.650710972784080743e-01
1.433714940554965955e-01
1.606330009124057323e-01
1.256921827005074155e-01
1.092790249439758166e-01
1.456418992339628682e-01
7.864812763076685365e-02
1.694336451586218595e-01
1.354264188031563398e-01
1.147410523325645137e-01
1.204746997364345290e-01
1.645239632743589475e-01
1.199831460501102620e-01
1.296644044114240168e-01
1.132535307021984156e-01
1.891674153045062035e-01
1.762338961519774039e-01
2.282761515384382767e-01
1.606926784092345128e-01
2.293696791678004332e-01
3.150542078786716105e-01
3.986116678125534163e-01
4.780003420569818307e-01
5.275323134081397747e-01
5.905503157253916280e-01
6.859805089520227828e-01
8.505017131329005720e-01
9.242293010210159698e-01
1.031699271705938337e+00
1.144477954372646655e+00
1.068603810186598446e+00
1.188060030002156431e+00
1.220700805538730949e+00
1.212879330810922696e+00
1.287290612560046954e+00
1.213185692014222550e+00
1.181982669872543967e+00
1.138045046127548199e+00
1.060089043061450909e+00
1.016082108381417104e+00
8.861155437754412167e-01
7.085515350663585954e-01
6.528101401488777267e-01
5.527030097063408975e-01
5.463841471922417092e-01
4.512183120537830994e-01
3.334757616378720146e-01
2.521446077390254170e-01
2.364981471338283014e-01
1.962285859938509014e-01
1.448212782061249204e-01
4.753586452973686260e-02
8.933163995310171301e-02
7.315045225127490836e-02
6.012379301363353357e-02
2.408954880005535759e-02
9.865431721329306902e-02
7.207262813257075962e-02
5.185366163693241187e-02
3.488230040993296754e-02
5.746096564976180959e-02
9.164971218610418191e-02
1.221921131336353716e-01
1.280982013860127444e-01
6.996398853830608500e-02
1.790033379750265718e-01
1.788026683742777179e-01
7.524476322344179902e-02
8.782842085245021191e-02
1.224656245687156531e-01
1.675625255851812545e-01
1.810481502554693589e-01
1.599352459869390064e-01
1.753242134195541480e-01
1.630490776503597805e-01
1.778259304046223843e-01
1.860593215230968434e-01
1.602722241196217479e-01
2.517605333820421287e-01
2.249245311642553424e-01
2.229063456698802959e-01
1.957315627033402172e-01
1.903592933900775663e-01
1.647650028680729684e-01
2.103899623741835867e-01
2.306583819514615719e-01
1.909537990795838747e-01
2.199726952262287538e-01
2.242604420628289130e-01
2.614354592486295426e-01
2.622045601977520124e-01
2.194789564579174568e-01
2.346473544839782488e-01
2.326351069423537310e-01
2.169253656658310103e-01
2.328413195202170549e-01
2.550992735723602856e-01
2.011468896364508041e-01
2.611201482743361058e-01
2.161428403394515807e-01
2.007116493740088159e-01
2.207996112474499562e-01
2.324008343625511563e-01
2.474762447676000510e-01
2.112886662766350343e-01
2.398106323365483961e-01
2.269921275151513818e-01
2.517543804577165867e-01
2.038441741609854363e-01
1.886600118959061712e-01
2.792694492221078906e-01
2.235360722406393164e-01
1.645463261023049628e-01
2.108308408973408321e-01
2.351527408582218259e-01
1.727606068593325883e-01
1.656448941745969905e-01
1.323093445000638191e-01
1.807387553596731256e-01
1.541172464532073183e-01
8.573401362221355626e-02
1.214719260351089930e-01
1.163460737661293903e-01
1.040173261250639941e-01
9.819625264807303744e-02
4.808657055691226839e-02
1.564878422749382547e-01
7.959474083119216781e-02
1.267137921628462283e-01
6.065527349109268995e-02
2.555043560387405821e-02
6.572243914696949962e-02
8.673096673509114729e-02
3.231516824194816118e-02
8.299069052258267742e-02
2.865147044084240605e-02
3.247657332899056559e-03
4.451094104230192416e-02
7.309710313165559969e-02
8.966307912074601705e-02
-1.822151250373148235e-02
6.210968159338706163e-06
1.121891613262929882e-04
6.288959536685824470e-04
1.679523995776289330e-02
7.630726378791777287e-02
7.467249654482298327e-02
8.541145985923175032e-02
3.322702961507777858e-02
-1.784077070198437573e-03
-3.729930794513116460e-02
-6.277736118708510116e-02
2.521818418191932448e-02
-2.883771217414822507e-03
4.910954523302650532e-02
-1.499074161921049031e-02
3.309338765183462289e-02
2.377027324277323009e-02
-8.834179277346110304e-02
-3.667893236979934135e-03
-1.696000782724630535e-02
-5.415610533764134149e-02
4.730899428134769519e-02
1.723952365641944623e-03
4.521415748605282781e-02
-8.260869572321027920e-03
-7.799657982661942907e-03
-6.556162954188090447e-03
-1.203890523030446552e-02
1.357659995629355992e-02
-1.190926107288589782e-02
-6.521754908174731691e-02
3.901774850829471675e-02
-4.660584828000116642e-02
-2.994892729949036325e-02
-2.273200240302934716e-02
-7.066599801994324914e-02
-2.708249018755264775e-02
-3.984976604253649690e-02
-8.528837602038064417e-03
1.091344037835827868e-02
-6.781896019786831653e-02
-4.156470718365379291e-02
-3.165244817526165905e-02
3.956020635112392214e-02
-3.453400439295301050e-02
-9.634480115797650068e-02
-2.141242005444897803e-02
1.042451791739163608e-03
-5.092250814352884680e-02
-5.463398291038110838e-02
-3.347465441294240202e-02
-1.589372994284932519e-02
-3.919125948823930228e-02
1.048830738276924565e-02
-3.117264806124640797e-02
7.486208246854829385e-03
-4.675824052917518930e-02
1.169363721061255149e-02
-5.716827665028875738e-02
-6.164265148209210898e-03
-2.753669871652427575e-02
-6.823999152516202482e-02
-3.626047671392417654e-03
9.408670657477108401e-05
-2.429039347617782674e-02
8.623513636261410931e-03
1.222853095385851435e-02
-2.151227662664589521e-02
-2.023272003769193556e-02
2.771824644617007158e-02
-2.890407098154692753e-02
6.866392199027676613e-02
-1.743986775651007459e-02
5.180240898270051242e-02
-1.036045707540479699e-02
-1.971124486263284639e-02
3.862206290009921605e-02
7.108420515147220731e-03
-4.923462973273302901e-02
5.874939561761013257e-02
5.204687183292458497e-02
-1.230788041289614457e-02
8.893988485000614563e-03
4.784625810012461261e-02
4.438102513199276844e-02
9.578919607962430027e-02
8.521963212985947389e-02
6.300855944422917299e-02
4.744095345480151688e-02
4.372470643001647589e-02
1.173214698942487422e-01
6.170527273416603897e-02
9.339778354181524356e-02
1.022248754959454720e-01
6.602249865857751088e-02
1.188460307802963745e-01
1.404560996589069299e-01
1.130074905828922505e-01
7.602142902701314320e-02
1.386484908950159911e-01
9.495637428755848708e-02
8.683848775075483917e-02
1.775568179979965244e-01
5.674326539983315376e-02
7.193970721043857486e-02
1.151999266654867987e-01
9.604577911872952400e-02
1.030388170654250313e-01
9.787778136480887459e-02
8.276538386095977362e-02
1.145864402333812704e-01
1.030072670016836112e-01
6.759022195427680235e-02
6.338729700965242686e-02
7.785852316323244038e-02
6.275577465652196207e-02
1.095212013693328268e-01
1.045513075777503853e-01
1.016022062117374614e-01
1.414768900023621045e-01
1.375674210484298943e-01
1.539997765762673443e-01
1.865425561497914553e-01
2.393722817424672744e-01
3.361910439040399767e-01
3.660126734596837461e-01
3.940988433543248237e-01
4.983555907696660126e-01
6.403649099658048627e-01
6.860959532428682062e-01
8.133990993660554780e-01
9.209432449009727906e-01
9.990737223104123599e-01
1.069807073835360223e+00
1.111569198934615477e+00
1.208542847293959666e+00
1.185689080750454316e+00
1.237335892020244410e+00
1.148217397480464808e+00
1.149355272626293001e+00
1.119167040632604859e+00
1.042337829368080282e+00
9.826912672261454151e-01
8.107758958981723385e-01
7.441319895948069751e-01
6.360063161410455246e-01
6.010671181841502619e-01
4.505483877685552141e-01
3.861308487698016378e-01
3.217189128808492504e-01
2.323441798362153587e-01
2.095415021283320578e-01
1.295270245572933132e-01
5.669200717728604955e-02
5.238006834256529048e-02
4.276908256506582739e-03
4.832614409139752987e-02
2.927652690402766933e-02
1.792089948832924912e-02
3.794298089430657439e-02
3.855246214817945744e-02
-8.454397401736438167e-03
3.302853571499894669e-02
-5.584229362564800681e-03
-1.813868055257106260e-02
6.983770026775934503e-02
3.543411562092804723e-02
5.973160979874790610e-02
1.379199164168196101e-02
6.651508023155941474e-02
5.459556482139427125e-02
6.601445244112214006e-02
1.230631208212328020e-01
2.425704002566217432e-02
1.037107313230112848e-01
1.286439637715010575e-01
1.152738102854562324e-01
1.386013689207849231e-01
8.968094848925162177e-02
1.192398931236050424e-01
1.520429487931890533e-01
1.153037302272984232e-01
9.552011271961656502e-02
2.161928743548555132e-01
1.716297424158830520e-01
1.799748910985735084e-01
1.640219583013655391e-01
1.864431298980528395e-01
1.589677534164364026e-01
1.815209356454245970e-01
1.880333925373181003e-01
1.984813274978890207e-01
1.780177162815760883e-01
1.846315513105060702e-01
2.161251340902727303e-01
2.078758228594912993e-01
2.263366731262388687e-01
1.657300463795779999e-01
2.215023993607572184e-01
1.733688415015637307e-01
2.452189044805065665e-01
2.035852306367359199e-01
1.991820202387249439e-01
2.047450791821352478e-01
2.081818460520877268e-01
2.218851970612068791e-01
2.280173220671481427e-01
1.364575423413054711e-01
1.771293412691187508e-01
1.656637190343654698e-01
1.542264958267136055e-01
1.321012942378901323e-01
1.664507881178879656e-01
1.223439429784208832e-01
1.823482496035123412e-01
1.256446417736781507e-01
1.534259502239479767e-01
1.115738694559608168e-01
1.035662213932770220e-01
1.101307501044353071e-01
8.618899840002269830e-02
1.410658728549899210e-01
1.110164623947302864e-01
1.172660159550746040e-01
7.785505815438850674e-02
1.132987933977546713e-01
9.164355463175898053e-02
4.204142909447226850e-02
6.606923046319219950e-02
7.807549795114068769e-02
3.546014762578963281e-02
6.504627157784961811e-02
-5.318057183690216849e-03
2.820360332373417211e-02
1.463443513198859486e-02
6.527643021135196011e-02
-1.040601354082935220e-02
1.458575376724562112e-02
4.943122827018811560e-02
1.099354640981659026e-02
-2.595645582914029095e-02
1.790657937950740353e-02
4.777759817064637649e-02
-9.139934712386776905e-03
3.447200216381106352e-02
-5.167007238389489943e-04
3.864714495263509020e-02
-6.281428245811522537e-03
3.910622636720444828e-02
-3.943360831983752646e-02
-2.434632407815016941e-02
-6.080448945191753440e-02
-9.728369097206548965e-03
-2.811472777442048168e-02
-1.539648275498142066e-02
-2.112763408871669996e-02
-2.407117373730641510e-02
-1.407125950920663088e-02
-1.137785010169225369e-02
-2.895818579794420811e-02
-3.412975174529363220e-02
-6.759457389874162780e-02
-1.175566371208165012e-02
-7.019750282319332790e-02
-5.105324105600860668e-02
-4.373719985053706877e-02
-8.550737189970414320e-02
-8.371994376728178477e-02
-6.900506754997498549e-02
-3.222113775546423670e-02
-3.709544454171249950e-02
-6.457142330966318677e-02
-7.194916727077733942e-03
-5.943777699770649153e-02
-1.950094605586934204e-03
-5.683815895017005348e-02
-6.859994260400008315e-02
3.092308056677968431e-02
-1.099261805865601460e-01
-3.921757980124946502e-02
-7.142653032261211954e-02
-8.545915730531408738e-02
-5.021851007140313433e-02
-1.112015750020088622e-03
-3.191448249027105388e-02
-9.656421226491324061e-02
-8.419875078778574218e-02
-6.520757095561047212e-02
-7.743660319349096599e-02
-7.080236320203402156e-03
-3.196780374754217002e-02
-6.277406589727915764e-02
-5.038801407480282546e-02
-7.642007020625242453e-02
-6.398489282485103624e-02
-8.431263468591182475e-02
-4.493407486275292212e-02
-5.971686402439900510e-02
-4.724510242418566291e-02
-1.498607915911610855e-02
-5.119760286369721275e-02
-1.188495182743257994e-01
7.158925396438857447e-03
-3.802246141782342909e-02
-8.109099337966566012e-02
-4.786301271958308401e-02
-1.454582012640415895e-02
-5.121642575842365319e-02
-4.176738327104648207e-02
-4.355993167294072016e-02
1.261293587037417424e-02
3.874908789219912164e-02
-3.559717288231137311e-03
2.114323407737692812e-02
-7.168354357656295250e-02
-3.531621373099043393e-02
-4.621050056369401665e-02
3.136635900093977247e-03
2.255917997440871903e-02
-1.563619388079916933e-02
-1.346214460660487278e-02
2.622403063833225745e-03
-1.769383542973111678e-02
-4.021241989723271792e-02
4.473605814248970275e-02
5.808942751102455504e-03
1.926373696989445994e-02
5.331037495615958965e-02
7.146615688254379095e-03
1.010688679526650369e-01
6.584113750310555124e-02
3.645811388958623139e-02
9.747361125115637515e-02
1.179132519849523802e-01
2.126780537425991546e-02
-1.831359429367723779e-02
7.841194764000797290e-02
8.970848666683545192e-02
1.008641790163506136e-01
1.421513577690051988e-01
1.081450853515303068e-01
9.490146864292345330e-02
1.297760060180354613e-01
1.485627873763980533e-01
5.264689223412481051e-02
1.417792969599133146e-01
9.354145041161170127e-02
1.347623714233720793e-01
7.451172385721163693e-02
7.025330214117737893e-02
1.167640138134940220e-01
1.242041529757041962e-01
1.296095774513204846e-01
3.579640924310319161e-02
8.828318952341882020e-02
9.810156180254908653e-02
2.154464384118554010e-02
1.628803269085368766e-02
7.098187376537930249e-02
6.707831757428983632e-02
7.093155788158227171e-02
5.320968454930739139e-02
5.802129443192750174e-02
1.428473617195775425e-01
9.325987043964444057e-02
1.360476721195939542e-01
1.306332936827921121e-01
2.362127160439868034e-01
2.576833621390172691e-01
3.368080470843490826e-01
4.365438093479750981e-01
4.725280661751988243e-01
6.392363999991427237e-01
7.031536023014729464e-01
7.558226715443880916e-01
8.359546592945471533e-01
9.189039847599392852e-01
1.016332273146234755e+00
1.064419102023868025e+00
1.195279411795981739e+00
1.225663843971884548e+00
1.225062604647014775e+00
1.243662668077219813e+00
1.190555835651229133e+00
1.134228389123381975e+00
1.105074093747101305e+00
9.891721046891363001e-01
9.477940967330308331e-01
8.219526109839051520e-01
7.837091686967119220e-01
6.283123202818341468e-01
4.950747090391272032e-01
4.408978569105931333e-01
3.650935698934714146e-01
2.806562946014551918e-01
2.479693084307987572e-01
2.108279915615973443e-01
1.380237734714724607e-01
1.273016658412596258e-01
7.878735229003981655e-02
3.658227977947592358e-02
-1.235918607543331355e-02
8.531106118887020473e-02
7.989554835290735291e-02
6.782954394664170161e-04
-2.221759373682182653e-02
2.141889161162353200e-02
2.914437507453932624e-02
1.199786135604466453e-03
2.898722002628354583e-02
8.688155211470653672e-02
5.396541343001334812e-02
3.392184696868056487e-02
7.706323553123448078e-02
5.834816292405068522e-02
4.618449922521373346e-02
3.295240765692927093e-02
1.066484407477803764e-01
5.369754543991071827e-02
1.109763835372467589e-01
1.706804904874338891e-01
1.403838284395196312e-01
1.271495592880387826e-01
1.717909972420122444e-01
1.727733181821451969e-01
1.969216231654120630e-01
1.313454224236503265e-01
1.274737441585800102e-01
1.179717231544723383e-01
1.956967454707324028e-01
2.083175594128844343e-01
1.063162637466472660e-01
2.200451020126886759e-01
2.033854379681620805e-01
1.736523706303863823e-01
2.311747098032704284e-01
2.141489300330814971e-01
2.259580108092794914e-01
1.813508044626416238e-01
1.846744925372854895e-01
2.150876042811842304e-01
2.100926485481576789e-01
2.118684127422101882e-01
2.617312714027338338e-01
2.324373512690085797e-01
1.998585610477732200e-01
2.223478054203636978e-01
2.766480499913018809e-01
1.963987372338638626e-01
1.749504578021099099e-01
2.066997200387056810e-01
1.898109603897448483e-01
2.147785375516592377e-01
2.003291151753747168e-01
2.117642264165428556e-01
1.825066518830971152e-01
1.721447804616776378e-01
1.816207420803745420e-01
1.392272393675584585e-01
1.982635372871451862e-01
2.526884082220094974e-01
1.524075263784663847e-01
1.986837864029064038e-01
1.854026518974823123e-01
1.531298871792044491e-01
9.049553644556350418e-02
8.717804297197623287e-02
8.532666962419638290e-02
7.062406395658761549e-02
7.675813354000156352e-02
6.100115096455634850e-02
8.658473283623792371e-02
1.386116129209936931e-01
4.730274700990220321e-02
6.363770808666137369e-02
6.278003318195028715e-02
4.811367133039967658e-02
4.964633302030461992e-02
7.663361719499352243e-02
3.041225703706340946e-02
2.264820675016258542e-02
5.151338718065376354e-02
5.414162697993266105e-02
4.088345210728038664e-02
9.622996401325644572e-03
-1.931928463050632677e-02
-2.335202945102794400e-02
-1.033870843911561047e-02
3.050825024948861444e-02
3.114220865031522290e-02
1.597601297142853607e-02
-2.036962614082597073e-03
-1.774948942753017470e-02
-2.723922345105366655e-02
-3.621811333116974063e-03
2.157000718019181501e-03
1.372776747320777341e-03
-1.830945837296842765e-02
-1.310291245774631262e-02
-1.030078013656829383e-03
-4.769276940688292263e-03
-1.982889487457948491e-02
-9.051313538254156590e-03
4.403440452691104873e-02
-5.296708785070522452e-02
1.515745483147172210e-02
-6.777560937655139478e-03
-1.969457896060026331e-02
-1.361802835299473838e-02
-5.410004051103056710e-02
-5.072992488700693581e-02
-1.518279443216058629e-02
4.405934595394134928e-02
-3.887354721144854752e-02
-1.673362793583951097e-02
1.416639313374158486e-02
-4.633817761307450211e-02
-2.981587561568573713e-02
-1.549907690301620053e-02
-2.148263164146467161e-02
1.135328873671082039e-02
3.345202083525074949e-02
-4.248655914326025795e-02
-2.070026081884454583e-02
1.760013482309184807e-02
5.355509429557924611e-02
1.868467197485531445e-02
-1.008145271012568511e-02
1.547409105580064594e-02
-1.590999618082807737e-02
2.193615808714591969e-02
-1.295573808208814667e-02
-2.109795985530687340e-02
3.797443741848193291e-03
-2.443091149232793496e-02
2.661198648153551699e-02
3.012385211746903407e-02
8.424459269850432391e-04
1.009668408601340460e-02
1.700459975838862492e-03
-4.642802609763808930e-02
1.823872405256284773e-02
-5.794472686905185327e-02
3.023540795124426972e-02
-1.146117134613290275e-02
-3.465648559099601678e-02
-2.591676773376609504e-03
2.495257448027947411e-02
3.270740093384161273e-02
3.226674235216782372e-02
-2.249019462228329588e-02
-2.784555021729894983e-02
-6.180776635451977301e-03
1.071641443165143384e-03
5.456884834165364774e-03
-3.368874313124226028e-02
1.073689950140483546e-02
3.230089542025912919e-02
1.989012682129151412e-03
1.984671685387377066e-02
5.531941170875868258e-02
-1.381901892495270012e-02
4.114967668751828844e-02
-2.100789771582738108e-02
1.129488360221496835e-03
9.377076785506315015e-02
2.586523941191278680e-02
5.922651008409800244e-02
1.439115134964859960e-02
5.574452556823786958e-02
8.258925711387374302e-02
9.779909414825230241e-02
9.946845409675811323e-02
8.333263618592069710e-02
1.199685000349896558e-01
1.087275301877511507e-01
5.865696866299217188e-02
1.066843248148350715e-01
8.901926242695464009e-02
9.322603666171194736e-02
1.299703645921106987e-01
1.063445371176552773e-01
1.553983127526038510e-01
1.627967383623397657e-01
7.107593607744254471e-02
1.796208228486730618e-01
1.504944805849367517e-01
1.666611964901658915e-01
1.826840054907792055e-01
1.178523913935367040e-01
1.540666395812152478e-01
1.710375761030892561e-01
1.536114552285725854e-01
1.965017844805697078e-01
1.199964863198446086e-01
1.423560402552824233e-01
1.369790912576943354e-01
1.846231081895149950e-01
1.426672528324755551e-01
1.258391531052133749e-01
1.853744118003342323e-01
1.429191838453925389e-01
9.856245346093951698e-02
1.105865357558745016e-01
1.391532441772936612e-01
9.149939443929633320e-02
1.480250281660527578e-01
1.704259999711259799e-01
1.656240952288953738e-01
1.527295975202678791e-01
1.894376369355006140e-01
2.569222847842886348e-01
2.970471340897823387e-01
4.148783932955432685e-01
3.861148368064856173e-01
5.063258150807907754e-01
5.656168200307272187e-01
5.957667762074070339e-01
8.026261718273092205e-01
8.558353201383191999e-01
9.992014909923504495e-01
1.074968114486982707e+00
1.154295307646212132e+00
1.184909187963788302e+00
1.227264166681914848e+00
1.335703677151228508e+00
1.289693340786909781e+00
1.325627195109421175e+00
1.227298231191922051e+00
1.184463857818843557e+00
1.117446119836632334e+00
1.048663967641722872e+00
8.520910086000907935e-01
8.088083295206744960e-01
7.388999485260715483e-01
6.705281807128422589e-01
5.602812865822220934e-01
4.364270610969095965e-01
3.870206029734243325e-01
3.897615339512383592e-01
2.606192241070465765e-01
2.015616006809431149e-01
1.952868910005194636e-01
1.386687181518191370e-01
1.310304827015867368e-01
1.229194085318064955e-01
8.008248901975491274e-02
7.405573380612889833e-02
1.450355635515369612e-01
5.394178890768130952e-02
5.760843294486176630e-02
9.346590250764104379e-02
6.574592899256556655e-02
1.151855713052931940e-01
1.105458923249266479e-01
1.298496372157564582e-01
1.478073277790896700e-01
1.311940382435875796e-01
1.598768660523769702e-01
7.698306080358639780e-02
1.366386750659000782e-01
8.964011421804110591e-02
1.606455443889885648e-01
1.979173875269220062e-01
1.255791438283558603e-01
1.128425001866153049e-01
1.568111426011750131e-01
2.095408964070590851e-01
1.977833509250508104e-01
1.816040644543920612e-01
2.119487018891028085e-01
1.670432193938360399e-01
2.236383945262486184e-01
2.035022758199356574e-01
2.553132760586721561e-01
1.936932067939396152e-01
2.444843631894578762e-01
2.380278315850546667e-01
2.838248178824820389e-01
2.335965391833618177e-01
2.007670848638400951e-01
2.833696177839509223e-01
2.300848745703387710e-01
2.669338990470382367e-01
2.849854549169079654e-01
2.077784250773330454e-01
2.429859542689362106e-01
3.103126485575088411e-01
3.071695362891022629e-01
2.752093478579312191e-01
2.456623496707396326e-01
3.563784531165397063e-01
2.859304813048648142e-01
2.998132269801170313e-01
2.524711788479224728e-01
2.369408434921427553e-01
2.972109246133223248e-01
2.564396702878604661e-01
2.651900517549378722e-01
2.486083823281619032e-01
2.928244858551292684e-01
2.382483222269380918e-01
2.548020013700021402e-01
2.378859276943605938e-01
1.837226788542546674e-01
1.962310763480810405e-01
2.239873947935992204e-01
1.964579343261982913e-01
1.948945498419195066e-01
2.403593946117391078e-01
1.799646883865882729e-01
2.481690127069073604e-01
1.692649717224593009e-01
1.519530917410118753e-01
2.092605266201783276e-01
1.657593755437768157e-01
1.924060693138633371e-01
1.091120823253716871e-01
7.693889316375940313e-02
5.378574291318535816e-02
8.319191270326165011e-02
8.015067288978008908e-02
1.320204543407716702e-01
1.044458947814492777e-01
9.571156433235489258e-02
6.169362910362959779e-02
1.228372968330813386e-01
1.130538760404305870e-01
3.968299874545709593e-02
7.281335297981639254e-02
5.603994702254516680e-02
1.294914722134478668e-01
8.036134095696775836e-02
7.040762972996296443e-02
7.426578393077461204e-02
7.110516042161679762e-02
7.113913696793339181e-02
-2.989548956472048991e-03
5.872277900928053740e-02
1.446799762292702018e-01
2.629733397785159743e-02
8.134546187743289802e-02
7.029134686579813218e-02
4.775295401125272815e-02
2.133838121225298951e-02
6.470374079093967057e-02
3.611302974277644240e-02
4.359274834117800312e-02
5.910142337121911116e-02
1.669375177397382920e-02
3.351612515557250011e-02
6.549842685489319638e-02
4.255915014966125953e-02
-1.151389234182688404e-02
5.471875253353435109e-02
5.998657458805675691e-02
6.293449576545821766e-02
3.595609256747156479e-02
1.346630222005889763e-02
5.165673287862902752e-03
3.009046147687637757e-02
6.369177858771390977e-02
2.075199490814530826e-02
9.601708234053074609e-02
2.410493287615714589e-02
8.381195334748842152e-02
5.387862939002211610e-02
2.592035635672901989e-02
6.868629155894666327e-03
5.733964431150999352e-02
3.816755793630721705e-02
1.982904950210335679e-02
4.397105588035071788e-02
4.941500942775407107e-02
1.586361840668781137e-02
4.585056268834165200e-02
-2.280853702786783677e-02
2.208568941061889168e-03
7.055711585247113893e-02
3.154950380953552846e-02
6.295957581533750957e-02
5.963562025426882851e-02
7.255843510515549988e-02
6.420604645219948892e-02
7.034836772082650458e-02
-1.101355613893628682e-04
9.364174049662443711e-02
6.295357402747969733e-02
1.202751627932659023e-01
4.125369546773993007e-02
2.113003859791480130e-02
8.130340203082267458e-02
7.361717804965402234e-02
-2.557572704731392310e-03
4.765522750368969551e-02
3.210256073742718402e-02
3.686381440614623639e-02
5.587070042196094072e-02
2.756196746882530468e-02
8.960668359366172342e-02
3.505154650011398781e-02
3.726935363586880712e-02
2.575642850702727915e-02
7.560782947998274939e-02
3.425414779205981919e-02
8.987044161564740341e-02
1.096921210551599357e-01
6.509083360488475412e-02
1.279209849316333969e-01
8.052977711126543814e-02
1.283816258953201783e-01
1.234386072804385115e-01
8.487986703471361860e-02
1.127278709809065305e-01
1.221321639405409387e-01
9.460414598276624398e-02
9.391900299333477697e-02
1.160230706860955890e-01
1.179935213769701119e-01
7.149825408292047324e-02
2.164162511175519721e-01
1.431247352329529932e-01
2.020991666795683706e-01
1.864722313521042785e-01
1.512783865706808228e-01
2.035632766237155666e-01
1.575162628723961178e-01
2.450827703981420247e-01
1.708013367220186374e-01
1.703954432814565045e-01
2.316213632067368744e-01
1.951345775329854371e-01
2.459231359823418339e-01
1.717386067978665110e-01
2.605288752933341834e-01
1.619366575334644232e-01
2.109815722233359947e-01
1.717567069256325518e-01
1.884293253503699084e-01
2.250489315332374063e-01
1.590525070977806821e-01
2.314318669962193153e-01
1.965865836940554612e-01
1.134032420683365877e-01
1.547310111352823148e-01
1.647154342202682142e-01
1.630844756371340742e-01
1.252910099117700293e-01
1.357104143851418643e-01
1.180971633522893416e-01
2.055588603170218631e-01
1.147007027536797730e-01
1.279449718148532034e-01
1.728572595832653380e-01
2.062838479944142378e-01
2.379207608802153262e-01
2.927435615554561665e-01
3.866980815757152801e-01
3.891583168085331890e-01
4.696614723636599042e-01
5.901943538561190694e-01
7.071813278380142398e-01
7.788752215922484234e-01
7.877973131912414662e-01
9.534417905906941160e-01
1.084021310665362892e+00
1.068705843977705072e+00
1.203020723483464227e+00
1.249681859960106722e+00
1.359826035390422794e+00
1.323955999003823436e+00
1.325673182993253763e+00
1.315796679348959941e+00
1.150545794651490095e+00
1.185673493383018418e+00
1.066381676980556081e+00
9.650261782363378504e-01
8.892288702474528961e-01
7.946547624494112450e-01
7.124500553172832262e-01
6.335092840788213442e-01
5.650667909231623653e-01
4.157966568828223020e-01
3.685596779551965629e-01
2.284434893178546866e-01
2.322535708850530511e-01
2.308074754494935654e-01
2.091186558542403873e-01
2.430257572130121446e-01
1.368401088793222420e-01
1.063686833150760819e-01
1.183657780633622092e-01
1.109799447457509303e-01
8.367464952954806190e-02
1.293202307264663120e-01
7.578817411131878734e-02
1.332231069088889441e-01
1.272281174741308196e-01
1.363975988713577447e-01
1.524066150269638431e-01
1.818541565048435449e-01
1.440491143430935317e-01
1.496394780982563677e-01
1.643869792447477385e-01
1.498506939574588692e-01
2.013453808416767465e-01
1.328464285470400130e-01
1.926148991208954386e-01
1.774899575061689438e-01
2.103187915213648729e-01
1.753689009519787678e-01
2.716824330939348053e-01
2.323415327787922147e-01
2.108461399907549383e-01
2.329020587307287227e-01
2.365388559628256449e-01
2.539522781666957441e-01
2.460098687363294068e-01
2.859753129486881096e-01
1.740594182688769698e-01
2.427747345044197758e-01
2.692613947562834120e-01
2.299704482882249379e-01
2.899748727775993129e-01
3.083048470083806780e-01
3.421283581952957453e-01
3.166425939831253311e-01
3.061410385251272515e-01
3.127293004262498011e-01
2.831627394154416222e-01
2.805832936555571200e-01
3.000922098789326475e-01
3.172927636481145952e-01
2.727864174354870941e-01
3.268257347207085273e-01
3.087266907086413936e-01
3.074465900263175788e-01
2.719517849258364928e-01
2.991968938094120567e-01
3.308332644533154010e-01
3.161867441699591774e-01
2.935953177753902743e-01
2.578824584603800485e-01
2.630147303616605647e-01
2.689606482514074193e-01
2.544275990444876401e-01
2.856611074109112747e-01
2.002853405411217369e-01
2.235940536153174230e-01
2.459022941027149689e-01
2.038527110377073293e-01
1.966267457950079123e-01
2.431094120342243703e-01
2.000528061324177709e-01
1.736550779754629237e-01
1.834030064229209278e-01
1.738190484896167676e-01
2.363519315156568934e-01
1.442862309215240391e-01
1.915022902947368655e-01
2.015377384753749834e-01
1.553537358716362005e-01
1.148704210972251727e-01
1.864617111465462773e-01
1.428204088755189449e-01
1.409052380041473651e-01
9.956517593152502954e-02
1.246249577712590512e-01
9.203783954943881018e-02
4.759233782601949431e-02
6.739563436062398494e-02
5.027743320646022723e-02
1.055072992032460300e-01
7.611360973992514767e-02
1.347855485408612497e-01
1.052294813661798084e-01
9.277500017876388894e-02
1.325918495933387231e-01
3.420286559794669806e-02
1.392863781134682510e-01
4.429492667432515657e-02
1.073651037314202333e-01
2.383179704317826483e-02
7.172918377087393604e-02
1.043422676990352627e-01
7.814021840746679382e-02
6.173701171756953987e-02
1.159798242973971716e-01
1.980300172199880859e-02
5.654517691186342065e-02
1.683858291012003267e-02
4.838319003299934584e-02
2.262373880375732546e-02
4.578725371677114936e-02
2.555923786120756908e-02
2.694410745441689486e-02
4.009525811725579009e-02
6.377426595193913528e-02
3.111487596324988281e-02
3.153996206831891774e-02
2.390088911899735519e-02
3.694044870717273776e-02
-2.663437729665455583e-02
2.646096724904424199e-02
5.710254046718842708e-02
-5.843335604586913368e-03
5.018090245766531482e-02
8.432057084902168376e-02
4.611782843036653368e-02
3.717882830445723430e-02
7.293218136201362611e-02
4.556790610699559818e-02
7.626703107006846394e-02
2.535965665958753862e-02
8.899065694745321442e-02
3.912553552104595933e-02
6.104814393176838383e-02
4.423485375559748495e-02
7.278950879650043781e-02
9.227979230973336333e-02
3.186708292520320368e-02
1.412908823261924476e-02
-1.813311096194839683e-02
4.066477009050856184e-02
3.946447571892613970e-02
8.270349373687421735e-02
5.147770166315045193e-02
-2.028105768289594629e-02
2.199474842401235447e-02
2.839956947855337005e-02
3.670231858020801818e-02
5.559296846165548422e-02
2.325382364872533719e-02
6.411453014251286553e-02
8.236172083125849197e-02
1.250748348106996838e-02
1.150380574040448245e-01
6.455316742752158221e-02
2.857139888135493827e-02
1.956671517252803194e-02
6.812540700038127728e-02
8.620298507829314560e-02
5.058060763624299544e-02
8.505978661854016187e-02
1.003177681831436407e-01
9.295801813666720870e-02
9.466043954660519066e-02
5.051956841317538360e-02
4.538836634209533760e-02
4.802601922009147595e-02
5.038240164411451200e-02
4.923718476095128443e-02
2.854618379848811172e-02
1.363671960153644558e-01
5.800024350410036555e-02
7.565127773712015946e-02
8.579818742729081182e-02
8.973577131335423729e-02
9.000482451623556535e-02
1.157795453537424080e-01
1.207027947690060415e-01
1.276820185645150818e-01
1.058002782604825776e-01
1.103529904477917323e-01
1.748382083789726260e-01
1.566003510204144744e-01
1.641774959874017781e-01
1.527301979009989541e-01
1.441089499101302907e-01
2.023841058773738211e-01
1.869156016178826207e-01
2.139745251023205952e-01
1.524928090077855847e-01
1.826682940339910410e-01
1.838779609440393537e-01
1.839118777282371942e-01
2.126394327230061720e-01
1.346509133886590881e-01
1.018248724118339388e-01
2.107784992354198583e-01
1.768548716135143195e-01
2.052078190172724192e-01
1.681241965765952195e-01
1.353723982780025148e-01
1.621165623186643368e-01
1.524519594129939981e-01
1.424944320113013807e-01
2.007508438900501013e-01
1.621694995553211449e-01
1.197173270694515401e-01
1.250825929370481260e-01
1.670356164254307718e-01
1.220521033113540210e-01
1.433584571158365017e-01
1.656321036646948297e-01
2.027652440743957507e-01
1.318971456218792915e-01
1.931964215548249153e-01
1.887588552536972886e-01
2.222636132555969868e-01
2.611190924463883123e-01
3.161632456145201941e-01
4.186761826832116062e-01
4.323901784551979488e-01
5.368451339583186765e-01
5.782482727960202018e-01
6.903991786016832055e-01
7.206359971045219748e-01
8.055891282385277963e-01
1.046596744654390454e+00
1.095985840563950431e+00
1.119727778652001904e+00
1.221385710437191907e+00
1.278121182904432551e+00
1.299347395662086013e+00
1.212390927380748940e+00
1.231185200969974414e+00
1.219427093536024520e+00
1.146319447834650340e+00
1.086155763542529629e+00
9.780039438763723503e-01
9.423035996751049082e-01
8.234911765211135881e-01
6.959987945357846151e-01
6.114844228614303434e-01
5.320421411708726733e-01
4.892685448905830792e-01
3.533966848904601110e-01
3.147758028648711126e-01
2.228973888008661253e-01
1.607754354866863244e-01
2.234351530297087607e-01
1.151991365422973812e-01
7.792198408367023710e-02
1.100127822602700728e-01
6.398872913443522104e-02
9.593304576028235942e-02
4.534049771144443852e-02
1.206601827813544442e-01
6.728848662218675503e-02
7.567982984849291883e-02
1.166903189260503487e-01
1.148763532595927783e-01
1.046326828352481531e-01
1.514197343449192046e-01
1.153476362583048254e-01
5.889171735797985030e-02
1.146267605521873456e-01
1.177397996187219548e-01
8.724487479550679936e-02
1.522251089167666327e-01
9.669107489353036267e-02
1.370254992365824709e-01
1.233708699964557454e-01
1.836708471857553260e-01
1.145594762046956844e-01
1.801109248979486377e-01
2.154988745041443998e-01
1.510166778189391545e-01
1.957367095346600472e-01
1.466616732746568452e-01
1.743786118217273418e-01
1.781480652484772054e-01
2.760112346500367408e-01
1.916922918034685286e-01
2.021602188052366023e-01
2.341572658496673398e-01
2.131919389235041040e-01
2.687723557808787134e-01
2.429122705588966924e-01
