1.288375732980551636e+00
1.350400951540283057e+00
1.223179945621531539e+00
1.235300853899942819e+00
1.181451648750406536e+00
1.087665467442349154e+00
9.582811269064136495e-01
8.348693968087430584e-01
6.807602751107387773e-01
6.522991030772542498e-01
5.469545322387275865e-01
4.493004357445805619e-01
3.772977051047160524e-01
3.286906220520498523e-01
1.803903338176741644e-01
2.296195109247956556e-01
1.602519691485195519e-01
1.438435890772925274e-01
8.129390748016236679e-02
9.995332259436459643e-02
1.370344654114961924e-01
1.081356616875081139e-01
3.367719817754906420e-02
6.325661777883288817e-02
8.254131232585185107e-02
1.036528667641698209e-01
6.070345315451906171e-02
1.090035540305182710e-01
5.291099330813426455e-02
7.931997606969612424e-02
1.289065633962600266e-01
8.444795954368825019e-02
6.694020645437871730e-02
1.160387240802297076e-01
1.091788220251262431e-01
6.809492012793838533e-02
1.461923706831823322e-01
1.372349996468479050e-01
9.193753726048925490e-02
1.708725544878973157e-01
1.555070226409124290e-01
1.972759077846896747e-01
1.710741075543391054e-01
1.580995331144430804e-01
1.757783690138556842e-01
1.798293499955859742e-01
1.946283725739247072e-01
1.978211404855897693e-01
1.700051536550459264e-01
2.028148417960282668e-01
2.373512017100219973e-01
2.226332841742836299e-01
1.748665738850141149e-01
2.579921961301483435e-01
2.108221300281453159e-01
1.656382836660170166e-01
2.702697855096905521e-01
1.874381941467386792e-01
2.132029641654769880e-01
2.132766603414232021e-01
2.035886133669448372e-01
1.829759221900765231e-01
2.395409885581116782e-01
2.615234377489848994e-01
2.882174471558291984e-01
2.536009394909808368e-01
2.309049834494551201e-01
2.444213522137531902e-01
2.719326571889292832e-01
2.101804250168736454e-01
2.144688744703955874e-01
2.853883212451436280e-01
2.200083281936529023e-01
2.329850821892683888e-01
1.510048796564674167e-01
1.644542943121751755e-01
2.481629984267387512e-01
2.051890679377845195e-01
1.105442602510650907e-01
1.677390668996831258e-01
1.899157426321855524e-01
1.254262300225414684e-01
1.336200962917831470e-01
1.378443732951495082e-01
1.441137986348378364e-01
1.258438580182817956e-01
1.522271792022305559e-01
1.726664092381800519e-01
1.218874066213276736e-01
1.042254299177232391e-01
8.459792511016513139e-02
8.776515219474144425e-02
1.006212768748489111e-01
7.739083044257250021e-02
8.914702062489750223e-02
8.665240613912228440e-02
8.970718232737365239e-02
8.691302420693751418e-02
1.043418060506428879e-01
9.503191344951773117e-03
3.358513171251384377e-02
4.627965797462746389e-02
1.455826954717217084e-02
2.412514820746891608e-03
5.787478189213692698e-02
4.922607741592616160e-02
2.737809842947753342e-02
1.722044750953526798e-02
4.109286483100946241e-02
3.973304711792050026e-02
-1.505837098107069838e-02
4.789299409101933219e-03
1.047761012959689403e-02
-1.157239849506751933e-02
-3.302723048376620535e-02
-5.334020174148567522e-02
8.134072701914112774e-03
-2.786172816364661242e-02
-8.301617763887205945e-03
-7.213056767011664927e-03
3.270938899017118706e-04
-1.697477802490839766e-02
-1.300731269751719335e-02
-4.826493361622125056e-02
-4.056859211511049113e-02
-3.266675344269026615e-03
-3.438386822639159790e-02
-3.576477669318042785e-02
2.777308566974781914e-02
-8.064241598127974003e-03
-1.889765959227172540e-02
-1.468479181851020665e-02
-1.108323780843561285e-02
5.204673153622014353e-03
9.941370402092322700e-03
1.887767946448063935e-02
-3.505996890134499555e-02
-1.432450165280738964e-02
-1.157049668375792657e-02
5.136628232703077668e-02
3.459085712728966755e-03
-2.273133026992810862e-03
-3.810124879368744638e-02
-5.701401513152423717e-02
1.510456010079090639e-04
1.228946461286437725e-02
-1.303902308239294518e-02
-6.178156101954383750e-02
-1.314032224089128724e-02
-6.384174929616865529e-03
-6.157550418119406288e-02
3.664881709684490035e-03
-2.368758195136426783e-02
1.525421682727289702e-02
-7.872568074874546074e-02
-4.862490765752592453e-02
-1.797771498162144960e-02
3.712454827555371206e-02
7.493904147795538845e-03
-6.328363455926558356e-02
-6.122447847251362429e-02
-1.491744802845453022e-02
-4.620747683025429320e-02
-7.854071181226600362e-02
-3.347835180272466793e-02
-1.296266155614004753e-02
-3.925262305992342077e-02
-2.697326703265576914e-02
-2.802850502993247533e-02
-2.524982498552448551e-02
-2.998969141618841594e-02
-5.837300872577840666e-02
-8.841229266342794102e-03
-4.872800581408781584e-02
-2.966524256861397674e-02
-2.055462827903686146e-02
-4.977313412079836796e-02
-6.169154357586838222e-03
-3.357262154689275024e-02
-2.730770015168227510e-02
-1.480856902261757854e-02
6.949280146498029720e-02
1.283294073145356540e-02
5.706060612963909789e-02
-1.116056991394932113e-02
3.818429521857093917e-02
4.017020594652809251e-03
3.214428336963568583e-02
2.193384965108263751e-03
4.847817319941194469e-02
6.183874388649845955e-02
6.486236251173255196e-02
6.188606466501250791e-02
4.880950223123542431e-02
6.070919379251811521e-03
2.091667048788573013e-02
5.519158208149800571e-02
9.324374716061714641e-02
5.996669236107444317e-02
5.247841101841716621e-02
1.278948288624861818e-01
7.294781902733921131e-02
8.912462487085107132e-02
1.162228893104931271e-01
8.316100432774067852e-02
9.645099147560041997e-02
1.114396766366783365e-01
1.177463106552648214e-01
1.446935301993107770e-01
6.192520629844618790e-02
3.951704097741445820e-02
1.079035932627494254e-01
1.348346602533502803e-01
8.911014014429008423e-02
8.561160153567870523e-02
7.153317429454821019e-02
1.048092482881832765e-01
6.566127438446592302e-02
6.101074336273368953e-02
6.829351915065472178e-02
3.245203283266967498e-02
7.066285991781698361e-02
2.170521507674244566e-03
8.414624445742786840e-02
8.138015516289007212e-02
9.485659554203348942e-02
6.791552312519485990e-02
1.411120693249849345e-01
1.430521415146313591e-01
2.059262603050209250e-01
2.277176035861274428e-01
2.926944572629513464e-01
3.359242607586271356e-01
3.837519943205283113e-01
4.967597032158825865e-01
6.127454015025289857e-01
6.949633584006800202e-01
7.784717515247112640e-01
8.965218023563006344e-01
9.810485240558861619e-01
1.083334784595957556e+00
1.194276920020859833e+00
1.257148847620155996e+00
1.226232062198077788e+00
1.251337309938977516e+00
1.171689487757247683e+00
1.203353729511055681e+00
1.125108973849529015e+00
1.083632771782277571e+00
9.418527770831126578e-01
8.840606769989903801e-01
7.497971464770513128e-01
6.826383506869934115e-01
6.575554639273696322e-01
4.650461635821220296e-01
3.739306823752273634e-01
3.233442389767177683e-01
2.298194421531967180e-01
2.319820334549256846e-01
1.211364191826724279e-01
6.542944802711925245e-02
9.389015930430824608e-02
9.199591130934939298e-02
4.225209670674754531e-02
4.583094557256466028e-03
3.044595927921789347e-02
3.015105203595191269e-02
4.741396916252856725e-02
2.788869893806689149e-02
-4.613511210193073364e-02
1.384026583852361603e-02
3.953868742410424075e-03
1.630415730838213895e-02
-5.118291776039529672e-02
1.846778740552091486e-02
1.242549417647530186e-03
6.390857200140161176e-02
4.958852525588312160e-02
6.856349949485769646e-02
9.117947811631385568e-02
5.541272980436951628e-02
8.263514048033407389e-02
1.041913667278001748e-01
1.471291733570871951e-01
1.538139605825673550e-01
1.250356282250316142e-01
9.265295010529639441e-02
1.926965990337796975e-01
1.640210980462382673e-01
1.669283641905856819e-01
1.811769454053899775e-01
1.348549481735033251e-01
1.155195880213491511e-01
1.575780990687339067e-01
1.785729920095439904e-01
1.676551995508814008e-01
1.513363482131692417e-01
2.432501588232982015e-01
2.136033720680876602e-01
1.775145932462075526e-01
2.772686827105859120e-01
1.420097514967553487e-01
1.645819932874279523e-01
2.264606145482493393e-01
2.223489548453490838e-01
1.575241432066484260e-01
2.154216759061169939e-01
1.796397734189887907e-01
1.652049779443342525e-01
2.305652456243268977e-01
1.764846695647143970e-01
2.057200015135528526e-01
1.475827257087228006e-01
1.168366306406193877e-01
1.032961791337751178e-01
2.038180184704123932e-01
1.537814617292443675e-01
1.552973812399143227e-01
1.514393908482999374e-01
1.406046929174584736e-01
1.585487359658405149e-01
1.894353175978446824e-01
1.022929137282472256e-01
1.202929368500762902e-01
1.684102781931052506e-01
9.092004701251146792e-02
1.018465906904870433e-01
1.156402742892207458e-01
8.876380514793827392e-02
5.158201786965624369e-02
6.486327479440620603e-02
8.583799838503311519e-02
7.361679799748074848e-02
7.467044149941245990e-02
8.819057625657300559e-02
1.196982924862007025e-01
7.158453593086167022e-02
9.352228024107961390e-02
3.467444344041861748e-02
1.103900009388145836e-02
4.703795599819445700e-02
6.144135863113783791e-03
3.392013239626294474e-02
4.252634349711730682e-02
1.399558605219113072e-03
1.320727317571351866e-03
-4.804573292753550051e-03
-1.692576939546831111e-02
-3.206126859938472629e-02
-1.772218246248454671e-02
-1.300466720879762256e-02
-8.029834912369172850e-02
-2.311935167351245740e-02
-2.468527141436273331e-02
-7.979314858888388040e-02
-3.281987268976903349e-03
2.045962667734477214e-03
-6.116954619781941882e-03
-7.118137930847502626e-02
2.184466754494163859e-02
-4.886323165236448191e-02
-4.431502097638485155e-02
-5.626328866032068166e-02
-5.470921068262943332e-02
-5.942969799601106884e-03
-3.106328952118725395e-02
-5.006387759999871012e-02
-4.055681297799527268e-02
-1.249654488181061451e-01
-5.207787215621289406e-02
-7.961363412599406497e-02
-7.271042388828810599e-02
-2.916752094126025263e-02
-3.435257134163314380e-02
-7.257331387871125694e-02
-2.972275095703574496e-02
-4.299437386816411938e-02
-3.055225158990040185e-02
-5.355627206705916576e-02
-8.376096117906189908e-02
-7.639175587792994271e-02
-5.387801204186255105e-02
-6.450961215467365673e-02
-5.966683226938251927e-02
-2.809612126069694835e-02
-1.220965814771073771e-01
-3.408417298321974459e-02
-1.997542181510541387e-02
-5.483026287812980959e-02
-4.083341792139164039e-02
-2.776158656349583462e-02
-5.059382592692356073e-02
-4.518391139633283482e-02
-6.412784406881570642e-02
-8.634035423467922854e-02
-9.743120218899514740e-02
-2.179821955839528896e-02
-6.802889063257067104e-02
-6.446967711506090826e-02
-9.266352489282964067e-02
-4.727915941530220351e-02
-2.029289493816833351e-02
-9.228046137554282713e-02
-3.805732210028262702e-02
-4.349549430282000084e-02
-7.870937002029826379e-02
-5.738692926777763659e-02
-5.583347243595988135e-02
-5.263729142107788361e-02
-1.346224761626241967e-02
-1.164325821832262742e-02
-5.006864053203433779e-02
-2.548676269226027996e-02
-6.163922096883458351e-02
-8.166665807519110643e-02
-4.610680139310525949e-02
-3.514297466664870195e-02
-2.586422043349949351e-02
-4.764934548968539907e-02
9.061480761592521915e-03
-2.262823531727417917e-02
-2.109516446633584105e-02
-5.125780011507349854e-02
7.147777142626869640e-03
-3.292391751110013143e-02
3.060742358281067638e-02
-2.501365087739260487e-02
1.450546318455907951e-02
7.265399750425471925e-02
4.765189486034383110e-02
4.289009069793979501e-02
4.663668662871684606e-02
-9.539020253173449704e-04
3.175697019593803905e-02
4.150110368997003696e-02
7.358983989021383731e-02
9.301377827696477585e-02
6.896746062008170253e-02
6.864328364539000471e-02
4.876874838323397993e-02
6.953243552033523678e-02
1.155851205725265951e-01
7.822429902606077567e-02
5.320738673350231679e-02
1.043626256432116095e-01
1.009670889298104335e-01
1.135910199975531387e-01
9.080154059901361652e-02
7.740654550593932537e-02
1.063247553894519082e-01
1.161643049045887333e-01
1.513034155742610520e-01
1.221951436853583456e-01
1.201438368475547525e-01
1.072724087204528914e-01
7.650456246839931751e-02
9.061088931533675672e-02
9.117598001456153622e-02
1.338580366993351589e-01
5.150869330558718873e-02
8.827457370037067319e-02
5.059748392858142568e-02
9.464019575675380880e-02
5.148679093476574847e-02
9.265531551100922303e-02
9.244798744004695257e-02
5.771683712389705928e-02
6.244088632476103851e-02
6.771162720406698199e-02
7.119487295344634203e-02
7.380360408812750017e-02
1.354176094006338260e-01
1.906479962148827645e-01
2.006733511759678512e-01
2.465115544734485797e-01
2.864612026175557546e-01
3.583539008389852176e-01
4.167276990375902157e-01
5.400431854272723653e-01
6.123458535503085720e-01
7.278922011489358246e-01
8.589322249830542155e-01
9.210141881710988132e-01
1.014527613244070592e+00
1.067056609851100069e+00
1.179064770690041453e+00
1.194228369684221747e+00
1.262833038839557442e+00
1.282072708376043924e+00
1.275221796615270131e+00
1.241784291107375315e+00
1.153248692329046365e+00
1.061570179234068600e+00
1.037350092271791979e+00
9.330790594079179101e-01
7.800554878392564895e-01
7.608942831237797133e-01
6.233191313635937369e-01
5.258725482499556625e-01
3.879039706524050057e-01
3.091292679924917408e-01
3.104005213748581848e-01
2.361581499883115276e-01
2.171921290875338528e-01
1.734785269447322587e-01
5.474153344052054559e-02
5.330689652227690867e-02
2.699112750972294805e-02
-6.757452890745634100e-03
4.991022398582838082e-02
-2.075485639198556415e-02
4.078868142451461815e-02
7.571834774949887104e-02
2.824707252204940178e-02
8.194495595657920461e-02
7.096981373489291700e-02
3.423774355902166333e-02
7.810905246827415382e-02
9.829139089480068425e-02
1.606967412480281021e-01
7.570093990542009488e-02
8.590577141416334828e-02
1.364166262102372851e-01
8.862517723568857919e-02
1.241421926381795215e-01
1.060858693424328592e-01
1.275335629954044703e-01
6.840435383065915365e-02
1.525891637698624792e-01
1.160863871609056908e-01
1.879917931613271920e-01
1.097684557852182385e-01
1.875080100191549581e-01
1.802908665584258274e-01
1.893798364828772063e-01
1.963693434216072786e-01
1.365145290944623224e-01
2.038329880530116989e-01
2.033153720810577103e-01
1.978389873055654280e-01
1.757162643634053167e-01
1.722076457933553184e-01
1.853316553441402836e-01
1.870121947276297547e-01
2.308571063051469141e-01
2.165779138715633600e-01
2.198711517161223705e-01
2.654998597768289392e-01
2.323475271233596262e-01
2.417997763213550755e-01
2.522866515808999677e-01
2.599099689313725259e-01
2.641229884939907402e-01
2.396798650791220897e-01
2.452194703721787550e-01
2.437260082689155227e-01
2.408890627934724415e-01
1.376363196252590737e-01
1.971270630940296087e-01
2.548069918441702164e-01
2.197998494748239495e-01
2.405144656767655431e-01
1.989883621800042357e-01
2.040980392465646664e-01
1.695008935264420147e-01
1.926528047145820433e-01
2.035898702532710491e-01
1.272206136485738992e-01
1.222347149901083785e-01
1.733255926015609683e-01
1.909866101878358868e-01
1.314891326178820319e-01
1.185392215520386788e-01
1.059333974526439626e-01
1.325338573086237426e-01
1.098697195987561742e-01
1.536861457254005137e-01
9.342065963945143936e-02
6.993578413804982241e-02
6.437646211362609006e-02
9.557771333599969499e-02
8.628399667059329092e-02
7.223980127415727259e-02
5.614920976796880514e-02
6.253372007603376359e-02
1.177534775759445651e-01
-3.384631876751833385e-03
3.179664686654298800e-02
2.345466775965382444e-02
2.042727222022958436e-02
5.160352405369575401e-02
1.863649242855464072e-02
-5.569649496177312212e-03
2.783828271291978809e-03
3.099425525245615154e-02
2.798400233188647057e-02
2.766643251188343963e-02
-8.493151157442795779e-03
-2.848725594095449787e-03
1.685577151281880681e-02
3.232245794329005606e-02
8.365314725061186868e-03
-5.258784892041461906e-02
6.360698034714089288e-02
9.223038592254283186e-03
-1.041420504263780404e-02
-2.911365935654901607e-02
7.422605737842075113e-02
1.334132796723649407e-02
3.864232819567704064e-02
-1.809505069743568353e-02
-1.504889007806200704e-02
-3.945389845708231064e-02
3.211929324093496657e-02
5.072383331550776170e-02
-6.387485530687780910e-02
-1.949968262257205029e-02
4.778118247339218500e-02
-2.532820265386699632e-02
-2.342028936473508974e-02
4.156931427194828985e-03
3.663804426965000527e-02
9.111604555599202640e-03
-1.916158985605981649e-03
5.907399926104492383e-02
-1.456550198652734225e-02
-3.773040466993307640e-02
-4.698743601624390948e-03
-1.555394117641479244e-02
-1.749298227059468969e-02
-8.072191542732882336e-04
1.267730636539681974e-02
-2.229138854963951324e-02
-2.397123471623247362e-02
-7.586204273472420267e-02
-2.440948334866959585e-02
2.746441032603150548e-02
-5.322854400000853747e-03
-8.579986344647716132e-03
4.878413886322775436e-03
-1.461701726455096224e-02
6.202734491667653144e-02
-2.476538639597295269e-02
2.364569305792587478e-02
3.573472063614234473e-02
-1.050593166030352153e-02
3.023079262838773013e-02
-2.425426375724303377e-02
-2.098110790270862197e-02
1.911373689744787566e-02
-8.027212592268934133e-03
4.573925990170616546e-02
4.033293556182551698e-02
-1.825361810026357445e-02
-1.849985010327198295e-02
-3.838013746025612655e-02
4.671206238122592447e-02
4.768689442835385983e-03
4.205741473558055610e-02
5.404983708201529374e-02
3.649702246028207336e-02
-4.483050918330764439e-02
5.749389886033932917e-02
2.135123814664443426e-02
2.957684527207115558e-03
1.637794187214178243e-02
-4.363853018352972790e-03
2.293656408446694689e-02
-1.153599038887590314e-02
5.081877445327898785e-02
6.190401136916191815e-02
9.711078289871502567e-02
1.114065105096775227e-02
6.430049658284940628e-03
1.722073378330308061e-02
5.655824347095878002e-02
5.543216807495368603e-02
5.736206549056344778e-02
1.210956530183856517e-01
1.040854399274106362e-01
9.125615464660405407e-02
1.236861251697894126e-01
7.112081646305500049e-02
9.590277039370816159e-02
9.525432065501485135e-02
1.268184157624624164e-01
1.723603911868799021e-01
1.487856704856557188e-01
1.611600932587456403e-01
1.649857676998981171e-01
1.288091429882185224e-01
1.134932426553247747e-01
1.904690121517550461e-01
1.512220964052262140e-01
1.981524996595516452e-01
1.792538984182590889e-01
1.596255753199091743e-01
2.543980554297019525e-01
1.517744813874334076e-01
1.065215906477041535e-01
1.379342154323071057e-01
1.414492617386504669e-01
1.188105747978180499e-01
1.467253868128860217e-01
1.102443269194705866e-01
1.944472107867590005e-01
1.255272709214074467e-01
1.088270096214212224e-01
1.477989605587112509e-01
1.288454551793711267e-01
8.218535764468852534e-02
1.380519272342522474e-01
8.424804208607743206e-02
1.400967010397781154e-01
1.104759859380737563e-01
1.997254420688409637e-01
2.255903948753539001e-01
2.421834177565900803e-01
2.714736620899044772e-01
3.320575676876263427e-01
3.639636243989284869e-01
4.972075232633832997e-01
5.760346589389067073e-01
6.267558840285630817e-01
7.784206416987803356e-01
8.994547874818374922e-01
9.549068418417415716e-01
1.030956106967669594e+00
1.129080351966948559e+00
1.195995888503308180e+00
1.266056357925305464e+00
1.291171390822589249e+00
1.301613527458378661e+00
1.300260328328064707e+00
1.286444007036772419e+00
1.217268084351234902e+00
1.129929552617110700e+00
1.068469032184085732e+00
9.730747039529544784e-01
8.997535876302730218e-01
7.517145484181879667e-01
6.651294295288463498e-01
6.063605434583410059e-01
4.886242095392748785e-01
3.622491242579832793e-01
3.880518437133558818e-01
2.733309569361542790e-01
2.434541957756231056e-01
2.028470541948460271e-01
1.796337693673072666e-01
1.549919207283809719e-01
1.494197066646778815e-01
7.671484444837396721e-02
1.140142706063679567e-01
6.049061361185953389e-02
5.771597721179511087e-02
6.895162756544889748e-02
7.863249902396755864e-02
1.006673528020299718e-01
7.410575532397668808e-02
1.182737239439957122e-01
9.788600642966778509e-02
1.256703655879388704e-01
5.247609050552681786e-02
9.079925836329863498e-02
1.393323807202165310e-01
1.374550540147158051e-01
2.057976749719590270e-01
2.185495756238556297e-01
9.812550614386508774e-02
1.293856230162279963e-01
1.422526573040939768e-01
1.374413976204182375e-01
1.750790905860983293e-01
2.215918911830298266e-01
2.142590913690611831e-01
2.264859423135554550e-01
1.782702055354540016e-01
2.016573190953196704e-01
2.184793979434675459e-01
2.246252228594846634e-01
1.924672533167316735e-01
1.964187329049779107e-01
2.350826979452523557e-01
2.403384092963577467e-01
2.499058062672108171e-01
2.535134572704568212e-01
2.514626141921544322e-01
2.825644896411362850e-01
2.408824893934925215e-01
3.052772057076152956e-01
2.618926500750782260e-01
2.752621741864808014e-01
2.704444023756850668e-01
2.763506355926966807e-01
2.842501175522432755e-01
3.063607808055367476e-01
2.768335660733823866e-01
2.774501276979503550e-01
2.959466766032931573e-01
2.486570949603008618e-01
2.459468564426492421e-01
2.845507486410295828e-01
2.936346420924056400e-01
2.791178415387093326e-01
2.594924931719061467e-01
2.320822232401387741e-01
2.855530012080697011e-01
2.198674240280064363e-01
2.499656980869145728e-01
2.015593270761648903e-01
2.842614287525860872e-01
1.964230121874154245e-01
2.189874176103598635e-01
1.557912675193474095e-01
2.692715116712116608e-01
2.327636595404782571e-01
2.105524018571220957e-01
1.596382488932685528e-01
1.999807262433598576e-01
1.400038995013709597e-01
1.875930591631004285e-01
1.057201159777263200e-01
1.317328166901891306e-01
1.059751979078804723e-01
1.404429863613391449e-01
7.591589032219807354e-02
1.481124144466081927e-01
1.400201359000016466e-01
1.102249446388146037e-01
1.208755133906590506e-01
1.299818355195448694e-01
8.303445748416442285e-02
8.819197379198889797e-02
8.452629127076521920e-02
6.946890944325484485e-02
8.938629517290112847e-02
1.174460363866041968e-01
8.071607090284083075e-02
6.726079864637095340e-02
1.109954154470048637e-01
8.520381414046435120e-02
4.957685383724019790e-02
9.560398275230648502e-02
4.094475159305935308e-02
4.658011319894268809e-02
2.151580930710663211e-02
1.003595501180142291e-01
7.590452524084564945e-02
8.588460997260587149e-02
5.986898527553573268e-02
-1.097772301367364034e-02
8.850875853034924357e-02
7.189247679493974974e-02
3.735053485439306098e-02
5.295621034768629998e-02
4.416017729683137383e-02
5.642642446933955613e-02
5.902894780232396249e-02
6.950031059189396010e-02
1.000470635565426647e-01
2.999845703440786465e-02
6.423925628192783677e-02
5.456953140351175624e-03
1.797716117314135387e-02
4.248195136297705510e-04
6.475052564949133893e-02
2.011857133849462645e-02
5.105527995171059430e-02
6.639809781413405498e-02
5.033263298958918358e-02
2.954948986497070440e-02
-4.469906665683850977e-04
1.672506895140192865e-02
6.378518904768318287e-02
7.616275410721175254e-02
2.728046998697179412e-02
8.131872256233721452e-02
1.131509351588175782e-01
9.154234720940501724e-02
3.610899604780271055e-02
6.445157544845397934e-02
3.828608323910473454e-02
7.860249805578023441e-02
1.495328051014565771e-02
8.230594404563813804e-02
-2.105471944585393662e-02
7.953169412760287271e-02
2.368178104422537233e-02
2.454268739816411332e-02
3.219431558384070607e-02
-8.502186968231600916e-03
5.756511572159083573e-02
1.878945346253261747e-02
4.836877544499654236e-02
6.709561213041222161e-02
3.161222559943401011e-02
2.308060816805547824e-02
4.192474024800614540e-02
2.170677085181031002e-02
3.681049390476630323e-02
2.667955928035342997e-02
6.916419562256083398e-02
7.768052619235141232e-02
5.563897631825315271e-02
5.111198203749900415e-02
5.555830313619440630e-02
6.396237671178248152e-02
1.089708675416114353e-01
6.607213594116229105e-03
2.203240377559409491e-03
5.762680491112147363e-02
5.950529056306901737e-02
6.021788401361162502e-02
1.303285501350381903e-01
1.160677189619204047e-01
1.342690968509600291e-01
8.275593704451926491e-02
5.879501732347854059e-02
1.364650483047057938e-01
1.235915264875709352e-01
1.145218244785354833e-01
1.341722077904116128e-01
1.650509504743936096e-01
1.811756470690906451e-01
1.431281327158873129e-01
1.739887744597150843e-01
2.182010986550545206e-01
1.690872779372517565e-01
1.478464212354312357e-01
1.625419171057514434e-01
1.681045818303148476e-01
1.739739275763016457e-01
2.283838468292838375e-01
1.983289506778406208e-01
1.885307248000489266e-01
1.761391480667368337e-01
1.690266624712059851e-01
1.894277198163205056e-01
2.402224787175429865e-01
2.359847910960591599e-01
1.610980564256833669e-01
1.705506507616376954e-01
2.330790626945589972e-01
1.500899216923888280e-01
1.561907343404399240e-01
1.827296988869184513e-01
1.655896344566159806e-01
2.233161357753633003e-01
1.523399648504840109e-01
1.490208912787320261e-01
1.683974012595891301e-01
1.797796011764494217e-01
1.540712681900217595e-01
1.689623887911641809e-01
1.819330559955062709e-01
1.399098846709380950e-01
1.891882158194976293e-01
1.517890708877276396e-01
2.031995858651973186e-01
2.099975778832848805e-01
2.592823414714265917e-01
3.636091040128526242e-01
4.011554604081145059e-01
4.702734377565374047e-01
4.713605913331778696e-01
6.346843365290053551e-01
6.842561229381153298e-01
8.310202068132819253e-01
8.868368039024824290e-01
9.658842901641173651e-01
1.123666963035574895e+00
1.170551367127708797e+00
1.204649779695840639e+00
1.261239195327989338e+00
1.343006643311679627e+00
1.322918277263645193e+00
1.328409614281005346e+00
1.376780201924298730e+00
1.224752637019940416e+00
1.190413034030346262e+00
1.036803553012139334e+00
9.505512673723529593e-01
8.782117631568182592e-01
7.954401065654856939e-01
6.834946700749622295e-01
5.858916038375561186e-01
5.654544625363454591e-01
3.935363241139027135e-01
3.730091572181795656e-01
2.714509830862035789e-01
2.383751083425464934e-01
2.105882835370248840e-01
1.532099535218275355e-01
2.149651383146727879e-01
1.358682127073289336e-01
1.254547014321199250e-01
1.185854751115118511e-01
1.500601537347707737e-01
8.055782904869457361e-02
1.114696134231040192e-01
1.600447969228782907e-01
9.372797838937871329e-02
1.493048437636045889e-01
1.219269574857813482e-01
1.667653928769381177e-01
1.809663329792774999e-01
1.231764601531565861e-01
1.391652388452203626e-01
1.018599930048690316e-01
1.369772690220722455e-01
1.511219766687023069e-01
1.408558347168483160e-01
1.852785224323012792e-01
1.568965467587276619e-01
1.988285920384759708e-01
1.578567296263658493e-01
2.071028399989594815e-01
2.393383726137062184e-01
2.052015917178308391e-01
1.611196040079450886e-01
2.451495823517809147e-01
2.610907008999579504e-01
2.427260895290655196e-01
2.170656735479382926e-01
2.862567869604404347e-01
2.658416702309343016e-01
2.817542720459749739e-01
2.905511013941799447e-01
2.736080135581617778e-01
2.748794622376283803e-01
2.508309071505653853e-01
2.729308761338669620e-01
2.770468687164946986e-01
2.707254221232323621e-01
3.073679558065054440e-01
2.898553725061558950e-01
2.828034960306606282e-01
3.084307032238142177e-01
2.999428473908455905e-01
3.447937840890323846e-01
3.302810171305203268e-01
2.642799257743059238e-01
3.031173262459457840e-01
3.044857283312097374e-01
3.208884913406377382e-01
2.535673107585038055e-01
2.840141576743762664e-01
2.650806704672431513e-01
2.348635353884391541e-01
2.953402085173866820e-01
2.872387784251387854e-01
2.669385702388586967e-01
2.442523783288645944e-01
2.453551472101773157e-01
2.214503472402354345e-01
2.027661920445028576e-01
1.795646135125530674e-01
2.235108419908460042e-01
2.106624372857288652e-01
2.181830909051709899e-01
1.731075209362777367e-01
1.248760097156828563e-01
1.822544365890992057e-01
1.944883001152640511e-01
1.117363422842264642e-01
1.142827228231960979e-01
1.332502467783878153e-01
1.169110774936791136e-01
1.759538318136917856e-01
1.776000587141585152e-01
1.365672615788303956e-01
1.393214283045507984e-01
1.265273515022771744e-01
9.100530136273300708e-02
1.388240417181985376e-01
1.296678320498161896e-01
1.192101396769691124e-01
1.120806935063407284e-01
5.962181955646231324e-02
9.043140469582063024e-02
8.432066169943337741e-02
8.799869328356119125e-02
6.969555049161080262e-02
4.728461184521721983e-02
1.885978117465045290e-02
8.181066470723784290e-02
1.669124473778729398e-02
3.182556743840091185e-02
8.058740233772185291e-02
6.793543006099508896e-02
6.740564969302663412e-02
7.997737789403867870e-02
1.044762048425081358e-01
7.132647371409203685e-02
2.914285694706749558e-02
7.002764559626697971e-02
4.543825859551752638e-02
1.482010710503822715e-02
1.012181089181252019e-01
6.631673788412802140e-02
6.241533906586230196e-03
6.080538059495767256e-02
5.879665097323305556e-02
3.291660683446115399e-02
1.892785630328730484e-02
5.144517309263871990e-02
-1.890515946277070841e-02
9.007906867184893585e-02
-4.834757758221890772e-02
5.642558314324536139e-02
1.817904626140063803e-02
1.376109131170975830e-02
2.861957963896229543e-02
3.480575620952511273e-02
7.592035647281544786e-02
2.422932714639178600e-02
1.003994649052549204e-01
4.728294963286647223e-02
4.502134799564256468e-02
3.067833937874825390e-02
5.011879775529276548e-04
1.786918238444670098e-02
6.210622467533177121e-02
3.351789339387226119e-02
2.898130314433143909e-02
5.421025057614027587e-02
2.072573919688937283e-02
-3.016607778474362372e-02
1.082640416600883296e-02
3.520310771794200877e-02
3.558727768701191313e-02
-3.081723822646605104e-03
6.322098923545456384e-02
4.842803922826278973e-02
5.614248101721390494e-02
1.306310298942754342e-02
7.529275105174537686e-02
5.234869661188116391e-02
2.008790945856191862e-02
4.782692901116262357e-02
5.979767908136462973e-02
8.560689488036633821e-02
3.618323744217490090e-02
6.300676677592745301e-02
6.653534022230900291e-02
3.943877738887362205e-02
6.036821198900460539e-02
7.527657086777606033e-02
3.499916752630356093e-03
6.821499535364904110e-02
6.635306980383769149e-02
3.739057298701092824e-02
1.152021103450193429e-01
3.338734631903013395e-02
9.020076245257513392e-02
1.099233257358702004e-01
6.107616443610662527e-02
1.141647326261139989e-01
5.435857997003977482e-02
1.153298937599810461e-02
5.422577537376287171e-02
8.291028495196094139e-02
1.115845941451044376e-01
1.309474097258281067e-01
9.766672612994126146e-02
1.489116684759823617e-01
7.385167521848511052e-02
1.588850816253321030e-01
1.281553664636913559e-01
1.302624398022747265e-01
1.207739443799939333e-01
1.077477043288018188e-01
1.055330757664684899e-01
1.554447898248515481e-01
1.533310567557952808e-01
1.423033566583961074e-01
1.385357365754677494e-01
1.511700891835579263e-01
2.325196568326655666e-01
1.285852014131554089e-01
1.232281072122224097e-01
1.486376333366628000e-01
1.844483774820587507e-01
1.541738613896210808e-01
1.787170010654848262e-01
1.790629674431156726e-01
1.890585696685040951e-01
1.731591023366945703e-01
1.581684772091828117e-01
1.953625403239138969e-01
1.116204215746959411e-01
9.652879788800941552e-02
1.303820155495330479e-01
1.387562702834705397e-01
1.393284083747089175e-01
1.225796015226589680e-01
1.406391770333914049e-01
1.277154733743830484e-01
1.211429121226207245e-01
1.450343519660152458e-01
1.177231355806770546e-01
1.503440035515567486e-01
2.254440204032393813e-01
1.996629551188511265e-01
2.837078123728590251e-01
3.186610919033674438e-01
3.688602175326887167e-01
3.913088577480587915e-01
4.625646533233832014e-01
5.665556889504014260e-01
6.387598245109810113e-01
7.699092308350690139e-01
8.746710475534708040e-01
9.899007462784888967e-01
1.014732806661848841e+00
1.095546866896790039e+00
1.163199710410777854e+00
1.212426705090125401e+00
1.347143238535475795e+00
1.305952579187057871e+00
1.326302162574026333e+00
1.248888809697255242e+00
1.228109524919743789e+00
1.142980431596758439e+00
1.015988112742292726e+00
1.022645802143193006e+00
8.964196532784193261e-01
7.133237273781000143e-01
6.439201276599053614e-01
6.042473942727122349e-01
5.014037465906664437e-01
3.870042219569071462e-01
3.877257492426336993e-01
2.770218907506517003e-01
1.738410035476832538e-01
2.031489982398306249e-01
1.135647573813381578e-01
1.331346220060585783e-01
1.158233425373421666e-01
4.781573751812306233e-02
7.314328346700198213e-02
1.554394143729553868e-01
3.102825951720691866e-02
1.200938786550715363e-02
8.424603958999994646e-02
1.050350511537951337e-01
9.446816752505934889e-02
8.198918285329173661e-02
8.050896897420262155e-02
1.296615353265331838e-01
1.090519157044892995e-01
1.038437026560578569e-01
1.123276974613264395e-01
1.211298211913354045e-01
1.258885782057543867e-01
1.219697624825603482e-01
9.627246688633941951e-02
1.260938081163295588e-01
9.782224511860163063e-02
1.427842111520981894e-01
1.926357495908715134e-01
1.994078489557241096e-01
1.529641100881936056e-01
2.314389877656567174e-01
2.142430240525013407e-01
2.397294585439136982e-01
1.626900462591934493e-01
1.874349312600601114e-01
1.710408405634805673e-01
2.535148991859817458e-01
2.535137322986044661e-01
1.602752398705070136e-01
2.391471722050961812e-01
2.754353834010912494e-01
2.079791430654146789e-01
2.058995693785930226e-01
2.541729097726392328e-01
2.259299815122513266e-01
2.903943735927724257e-01
2.164021649967107774e-01
2.709079385606969481e-01
2.485902371271392630e-01
2.463051311531201382e-01
2.658450420227070343e-01
2.251396649787800741e-01
2.077696281163640690e-01
2.131773514026630290e-01
2.213393321873582398e-01
2.556383552182956431e-01
2.043619630009868848e-01
2.521866062896107596e-01
2.568561732199021730e-01
2.225911629477351494e-01
2.526698387898588249e-01
2.159153246285998029e-01
2.307309111511186839e-01
1.655378990189160515e-01
2.184355654552095904e-01
1.980414062324904190e-01
2.108972407808181737e-01
1.902313830046626075e-01
1.672541808370225647e-01
1.218641961823394015e-01
1.603150982296923655e-01
1.518801663027580240e-01
1.028460953883399143e-01
1.059655294448927781e-01
9.515222810234200135e-02
1.284921258125855947e-01
9.242526259344338579e-02
1.019077911559253397e-01
1.176682685843451204e-01
9.295061894220299492e-02
9.108790602154127891e-02
1.058300547403443342e-01
9.093903362851867012e-02
7.190229874485808137e-02
5.914654605117976305e-02
1.120906749004706437e-01
9.308899519694190106e-02
-2.685134807808388369e-03
2.012006523046984754e-02
5.251410043865686883e-02
7.474946266325678546e-02
4.112084337284421104e-03
3.049939927819282984e-03
1.633101345180887343e-02
4.486525003399211009e-02
1.492736830432825693e-02
1.239583304292382789e-02
8.105466143892280442e-03
-8.164086040720028997e-03
-9.028235842667278743e-03
-4.954887318307318184e-02
-4.972867991461455556e-02
3.340674377166657355e-02
-3.212758223601867510e-03
-1.883754099750106076e-02
-2.589023859176114301e-02
-6.556446133965238010e-02
-3.225404748967158550e-03
-5.520972573963079527e-02
-3.371013809236973746e-02
-2.409746041897237526e-02
-4.018925087303582694e-02
1.675566496270433983e-02
5.763610525281674668e-03
-3.389759206043908152e-02
1.260250089338180168e-02
-1.704571752186794312e-02
4.112451933828397549e-02
-3.472294311394717031e-02
-2.236500449136284013e-02
-5.227655696212024986e-03
6.997378071923944509e-03
4.617597932363448621e-02
9.900879957016404942e-03
1.699214209781645113e-02
4.153302552293802741e-02
1.173565171170747740e-02
1.148190234667052084e-02
-9.936599444190889752e-04
-7.049078666658384340e-02
-3.608593481572397454e-02
-2.519702853451894625e-03
-1.803231441847027994e-02
-8.254145564536548296e-02
-1.269360073541703389e-02
-1.961973869158257014e-02
-9.000189020267451712e-02
3.661310716560853273e-02
-2.494083334296265039e-02
-3.202720319629203533e-02
-6.704204744900738033e-02
-1.486134161314916005e-02
-1.261006396720863731e-02
-1.732697089329865436e-02
-7.394639639037421663e-02
3.869467118340630396e-04
-3.867459056005807805e-02
-4.239909699751763517e-03
8.028747297881545092e-03
-3.856622390267100409e-02
-4.543646158684064296e-02
-6.754848655979911465e-02
6.455685774546218031e-03
-5.833892361701537022e-02
1.780545610656598943e-02
1.179652781928453020e-02
2.880475792890326708e-03
-2.727780749648059735e-02
-5.362372065879812688e-04
-7.556233146463475769e-04
-1.603018679171436256e-02
-2.522004636773651776e-02
-1.504991388377954764e-02
-3.105708999745796645e-02
2.053586498607642627e-02
6.859417811193227466e-02
-2.232331552143009684e-02
2.134842481224206306e-02
2.517172809343008397e-02
5.790558152099514744e-02
1.557627317408427983e-02
1.107985160343942163e-02
1.049142563236345194e-02
8.824860386327235129e-02
7.737066608569700965e-02
1.170221597121828133e-02
9.580946107738302908e-02
5.627873869946023455e-02
6.177648956288168958e-02
3.559866321811252371e-02
1.118720038061741667e-01
7.429000596734477990e-02
9.692153248998267023e-02
4.577089239354579370e-02
1.007897444152106303e-01
4.478796382538855619e-02
1.043660564691411552e-01
9.279087229751892263e-02
8.135280047805476533e-02
1.334374706071592975e-01
9.195557087256933659e-02
1.279773354890398618e-01
1.188368317486130921e-01
1.152222603979909110e-01
1.800919958451907277e-01
1.366327506986248774e-01
1.371715232729261713e-01
1.026232569857839227e-01
1.090407946452178756e-01
5.481560783323402575e-02
7.748101741735741177e-02
8.352576840481600040e-02
9.584113477219657895e-02
4.268609455073397313e-02
9.338417778719915185e-02
7.346310076707013303e-02
7.909820093111832873e-02
1.017323107444708385e-01
3.374073818741327863e-02
6.259526698232295572e-02
6.817595796263437036e-02
6.017550940089114869e-02
9.709243311238391350e-02
1.084057752744202463e-01
1.439078226411105721e-01
1.685769332764477102e-01
1.877162490664040506e-01
2.620282062518674016e-01
3.152863057813994896e-01
3.834397151871691278e-01
5.067049006577805104e-01
5.944876615014696997e-01
7.029966044195514741e-01
8.032295934184022768e-01
9.275378717085801528e-01
1.040178747326964803e+00
1.084577250856298747e+00
1.098350480725416523e+00
1.195064339926385388e+00
1.272162400197582643e+00
1.243007259433847045e+00
1.198948164904293456e+00
1.219139033665506133e+00
1.144796019268247145e+00
1.052097785969959176e+00
1.016761991380850549e+00
8.959528603709533412e-01
8.558556448045825382e-01
6.987985123092324002e-01
6.719873855559472808e-01
4.985193914596654507e-01
4.680455926383508269e-01
3.430061089600661695e-01
3.200472954970480233e-01
2.234247583565411310e-01
1.876958308525031871e-01
1.799145757278602931e-01
5.888539546056573148e-03
9.704198947117528840e-02
4.827959617326577080e-02
5.434954161580606707e-02
-6.843210448528501411e-03
3.605817619247644878e-02
8.895854302659143842e-02
2.407763559654345353e-02
8.348881067595077810e-03
4.178621387402191995e-02
4.693537884781384673e-02
-2.452454317320315602e-02
7.957096569075353121e-02
5.606030300966617641e-03
3.097268657530898722e-02
5.159151739125879266e-02
8.827731823140649858e-02
1.069192505960731426e-01
7.142502584623705575e-02
4.651358127419889799e-02
8.714417026817092293e-02
6.444505845913259257e-02
5.201155242694835423e-02
7.107790245800693629e-02
8.275330010551679161e-02
1.076218902920228343e-01
1.339002771014834448e-01
1.279123593463580288e-01
1.971854964133286092e-01
1.319262726588705525e-01
1.611324363747740906e-01
1.082651083551945254e-01
2.004062765993210316e-01
1.700698988401916634e-01
1.390033371406813878e-01
1.020551193537507506e-01
1.856882534553727093e-01
2.106973339542651813e-01
2.061302727321820683e-01
1.988163288352931268e-01
2.086900511416003856e-01
1.871596320848520068e-01
2.390631826487256695e-01
2.085756995734813213e-01
1.682288720169369534e-01
2.248156209743209788e-01
1.939133041440060656e-01
1.636579131466889825e-01
1.845084912614471384e-01
1.975011699122724007e-01
1.931827596057492102e-01
1.929774422284822599e-01
1.727324098713322320e-01
1.771326735775959338e-01
2.262335891673456223e-01
2.201238700087905231e-01
1.270252763977564314e-01
1.389306151113963717e-01
1.701370422826339324e-01
1.559190888922844520e-01
1.488991985191894796e-01
1.148190138305144603e-01
1.443298927153884581e-01
9.564078664848185696e-02
1.794144601678718531e-01
1.716467494615628031e-01
1.369617040720540191e-01
1.452172654779886884e-01
1.211512965326014407e-01
-1.157900215001575472e-02
5.758104543355829774e-02
1.534027224337501938e-01
1.016910679545145191e-01
5.690099584890233320e-02
7.037730068635458802e-02
3.801823744449162046e-02
7.002304068633756484e-02
6.566232157164583749e-02
4.773413804232262692e-02
4.901549438017311494e-02
2.889331600216586693e-03
9.670861476365921749e-03
7.448767359977340186e-02
3.193115564313647042e-02
3.987166553211288211e-02
1.240470826273694371e-02
9.362137735886226497e-03
4.296441848372745120e-02
-5.128888464035261802e-02
-6.679535678744658034e-03
-3.601721851736136570e-02
6.834256574790364969e-03
3.204971348877735243e-02
4.498675833167174731e-03
-3.014954111459310429e-02
-7.002267389982025358e-03
-4.804586961176114668e-02
-5.909288208157843780e-02
-6.112817923747795867e-02
-8.489941488057842212e-02
-4.317353238111594493e-02
-1.322206532099323706e-02
-9.680994315018334739e-02
-8.402423635900296839e-02
-2.566412420343689577e-02
-5.118824455711728366e-02
-2.975033892880133909e-02
-4.940270018226888826e-02
-6.454155929068620956e-02
-1.423067652060359262e-02
-3.681831708871735609e-02
-2.896877538868950983e-02
-7.207858138507039492e-02
-8.172246671742797175e-02
-1.800532856525881298e-02
-5.390942869836755358e-02
4.304989136332183775e-03
-2.839732333450837101e-02
-3.624530265163308090e-02
-2.348187387172058146e-02
-1.043292940922719847e-01
-1.004527247973874965e-02
-2.473536493500115563e-02
-8.263561477048506076e-02
-1.246254847252018100e-01
-3.245564377988598148e-02
-5.417291839904939121e-02
-5.897948242562431331e-02
-1.389668602190730073e-02
-1.049141834230994802e-01
-1.374025481664877674e-02
-7.164527482880070353e-02
-3.355076382545129493e-02
-4.959489763331245693e-02
-5.888568863723984970e-02
-1.032748945663506529e-02
-3.972618229254527150e-02
-4.383386722078308484e-02
-4.257241374367919801e-02
-2.063728933920967040e-02
-4.292683194517629697e-03
-5.043542232462268349e-02
-4.009393444442586885e-03
-7.728562171984004747e-02
-6.118779331235775498e-02
-5.198106655340836713e-02
-3.657890949841546141e-02
-6.923961382394193398e-02
-7.945032078623209815e-02
-7.232891458917130312e-02
-6.586709892263123423e-02
-4.152725142810476805e-02
-7.403629378414260109e-03
-3.792013816117652258e-02
-6.417372723119726952e-02
-5.176165607163722704e-02
-9.652770916735026185e-04
-3.553660360927660133e-02
-6.784002688987943175e-02
-5.337363843877494102e-02
5.512852845066640306e-02
-5.218075327800210383e-02
-5.768745430737086399e-02
-4.215605866051581885e-02
1.734042144461640095e-02
7.886883063385537185e-03
-1.527670103332566531e-02
-2.507358509083216017e-02
-3.232243472338546669e-02
3.350455656340486921e-02
-3.231919551827121956e-02
-1.879423800002860689e-02
3.426442867400651682e-02
8.238738017575775174e-02
6.043520988735988364e-02
5.681308070542630262e-02
2.523238451078105293e-02
1.048969954359246642e-01
8.468195785582605106e-02
6.503376850146586063e-02
9.362583691833439858e-02
5.678647434791742055e-02
3.505908123625244011e-02
1.156475396221096491e-01
9.454877476459704055e-02
1.197426843793563400e-01
1.143216081122908900e-01
8.774577923231888232e-02
1.028661147907570239e-01
1.165646603560649142e-01
1.221219079084465975e-01
2.963087730019022675e-02
1.552294840279711541e-01
8.806350512757071813e-02
1.347607832328460709e-01
5.622234040984659675e-02
1.004075281295223887e-01
8.461101895369199655e-02
1.015439253925383006e-01
8.704057338578602421e-02
5.143937272458986437e-02
6.555961241978253140e-02
3.231486796663987637e-02
1.370439954369189611e-02
6.820880673312228193e-02
4.935987999271766735e-02
2.320249966363879118e-02
5.177420327359880114e-02
6.170868079787476812e-02
1.152980143790404421e-01
1.017343759795827918e-01
1.266497024167726748e-01
1.639788373967440982e-01
1.855452819893017580e-01
2.893997580503533951e-01
3.382088083314394034e-01
4.286212068618696636e-01
4.735946532147038424e-01
5.866294953800708090e-01
6.467598451814059457e-01
7.734802993147734673e-01
8.835263500346842713e-01
9.839302341484010839e-01
1.085179485261549281e+00
1.161006545870368001e+00
1.226234057163406721e+00
1.301362223202259916e+00
1.191056430803244748e+00
1.260971984280077285e+00
1.193842367333339816e+00
1.172653602678120466e+00
1.074708471272337817e+00
1.034596886454720588e+00
9.101917710196611999e-01
8.628566459463553606e-01
7.294556023282824375e-01
6.269169428452545656e-01
4.578828546959254897e-01
4.028913428283313891e-01
3.803564165517979156e-01
3.052514646335608428e-01
2.003375969378886068e-01
1.668506969934950290e-01
9.354123729735636106e-02
9.684360046299994584e-02
6.046713223833774520e-02
7.631151589593679341e-02
5.452542477983009228e-02
1.096329115650305358e-02
2.672951082496567710e-02
-3.068267078700352007e-02
1.815042019563482822e-02
5.251636715155291735e-02
4.563632374926310242e-02
-1.356357469753676631e-02
4.507053286047712354e-02
4.983842735257650730e-02
5.331809157673695482e-02
9.183854049912934525e-02
9.193363969728883534e-02
6.863453195885620139e-02
1.038355986829678224e-01
1.056175363680813828e-01
5.137092867643770072e-02
7.222975666743436385e-02
1.022493420790787366e-01
1.189828114574652262e-01
1.154037944511882158e-01
1.036000928470199312e-01
1.713241724692220469e-01
1.412483531136701220e-01
1.423725381350809949e-01
1.467179108156629608e-01
1.048375565088626171e-01
1.274909980969491929e-01
2.086984355232300026e-01
1.926340527767162747e-01
1.870067567192658653e-01
1.282502717924052238e-01
1.642975333281992689e-01
1.591625726886101988e-01
2.754347857001171462e-01
2.343349536862442961e-01
2.016054655302002563e-01
1.292835643628843234e-01
2.528558548793834460e-01
1.835612620766801095e-01
2.173364912731509946e-01
2.279002856346340200e-01
1.762680876323952095e-01
2.459805443502711131e-01
2.457087411474679906e-01
2.536038778585404385e-01
2.741769502569817440e-01
1.796611391740114694e-01
2.128977063473337927e-01
2.228745427791892497e-01
1.907231642316371822e-01
1.801538246506081409e-01
2.086023047135586728e-01
1.607042975937692519e-01
2.135451073771949537e-01
1.740508884927831346e-01
2.027943808559648509e-01
1.912758732938005246e-01
1.023419566590899193e-01
1.788791069871837613e-01
1.636187284448825663e-01
1.097926338234337384e-01
2.010486958607465846e-01
1.606583508173458352e-01
1.439649759688236275e-01
9.457312778388367314e-02
1.242488946741278910e-01
1.589643953182310609e-01
1.428363784641203393e-01
8.267082518201039620e-02
9.394788665631634283e-02
1.484559310539811383e-01
5.512625901904805864e-02
1.144762313525523184e-01
7.530432361522118589e-02
6.561974467504744224e-02
4.260124921194688441e-02
4.298034701106007160e-02
2.489713749267080667e-02
8.239097186374573500e-02
2.584087387091679386e-02
1.105833585220543716e-02
7.850383321633136458e-02
3.066770073048353737e-02
-5.111454708245671830e-03
4.508459420953164071e-02
3.057820621819419202e-02
1.002161975817973671e-02
1.697289589040449839e-02
1.632347057018746286e-02
8.850824210854035812e-03
4.591514170364380948e-02
-6.177063650964013594e-03
3.353005130066026573e-04
2.068956183504350524e-02
-1.299650581920675126e-02
-3.921795905824960321e-02
-4.981885812363914812e-02
-5.108442554027473048e-02
-4.482581580046079983e-02
-4.568651663358346687e-02
7.499993459369955207e-03
-6.528800040358659351e-02
-2.693323272751512246e-02
3.015560796361228466e-02
-3.233132765919363716e-02
3.668023867189674353e-02
2.363339212427770578e-02
-5.086107540721294257e-02
-3.064159310702808947e-02
-1.487227074053061593e-02
-2.601120970079291023e-02
-1.972125803732909660e-02
7.936808617446666769e-04
1.446106153753581869e-05
-6.957766939097570491e-02
1.262883881350453791e-03
2.046567518608671116e-02
-2.072012876760495961e-02
-4.117074650162888538e-02
-1.016590813644887258e-02
3.858867466711664307e-02
3.503454700828145807e-02
2.773895043931921822e-02
6.521982519037149151e-03
-2.938486647948363589e-02
2.820058899404469591e-03
-1.760203371835997177e-02
6.098186983700942115e-03
1.223793535637364947e-02
-2.496391034473077405e-02
-1.366861032000885740e-02
-1.159900374616479497e-02
-3.396172170529675183e-02
-5.384750725042320579e-02
2.722365683996690044e-02
-1.506550402577410547e-02
3.771411135889059935e-02
1.964327577731478369e-02
3.406489817856204333e-02
2.630712983594309801e-02
1.748300470418245184e-02
7.918374578833143468e-03
6.765685329942211154e-03
1.419308694718297847e-02
4.323316187764067106e-03
8.545837695524517025e-03
2.899039418786346703e-02
1.037172033302803317e-02
-8.203942335856502857e-03
6.539159903347686702e-03
-2.952134638082364385e-02
2.858417640144112967e-02
1.652087364011186818e-02
2.648006477366484854e-02
-4.020262829138060434e-03
1.502695657572035784e-02
-5.004662488540927157e-02
1.651298349596070671e-03
-4.958962051509192663e-03
1.876269118261779043e-02
1.875636366178545442e-02
5.495921613024001146e-02
3.388726793761821093e-02
7.470645316278475001e-02
-9.422742016615338889e-03
7.399516076672252307e-02
8.219562704046923240e-02
1.135178889590481299e-01
2.020410159322081137e-02
3.272197571824446427e-02
9.486060001299310984e-02
7.181888677042086444e-02
1.004029435739945408e-01
1.089743610168704552e-01
1.332736149602414544e-01
1.403645938948405725e-01
1.561741590817183056e-01
1.395351742053473898e-01
9.937021822553893102e-02
1.887750772363161744e-01
2.049148146023752615e-01
1.431500389974871834e-01
1.529295706484063433e-01
1.759831892239438200e-01
1.277477075476412260e-01
1.957839031666199769e-01
1.514439130539677325e-01
1.141468991400178545e-01
1.552131552301845574e-01
1.405976449685268914e-01
1.376326558231885655e-01
1.172277777752030736e-01
1.296953689659875453e-01
1.933731983751194039e-01
9.586102480398449310e-02
1.106046545568465239e-01
1.176402890205137108e-01
1.186846552180126357e-01
7.899231574261851574e-02
1.062744805230211587e-01
9.221146674492242123e-02
1.682222500015146671e-01
9.997776224297989789e-02
1.270167984351065760e-01
1.505864661098541835e-01
1.438219259709574427e-01
1.956479362305918734e-01
1.975201123131946623e-01
3.054401033630492757e-01
2.909388637652481902e-01
3.527360088068593469e-01
3.958134592316349676e-01
4.321146246050457940e-01
6.129830101263810116e-01
6.426327257185749930e-01
7.541501970092423512e-01
8.977357655681570403e-01
1.010272886551577542e+00
1.045663604630919119e+00
1.156604134833929098e+00
1.165390587030670666e+00
1.270376443983338488e+00
1.297931935331678277e+00
1.336195028012029162e+00
1.234705754897740482e+00
1.288090455716330629e+00
1.245632677013141398e+00
1.153537403942523465e+00
1.063042494209044175e+00
9.641483166330759857e-01
8.618032749084428845e-01
7.766761549364972206e-01
6.462318639073105775e-01
6.221741612413334011e-01
4.595564140831024380e-01
4.035241064336944627e-01
3.552454037757599159e-01
2.243632956284457580e-01
2.051602721825230291e-01
1.805093885251295993e-01
1.674452269220040590e-01
1.040166244996007100e-01
6.768654820165950770e-02
1.110469144354665760e-01
1.466211442961305456e-01
1.039913995539870628e-01
7.665053461315102235e-02
7.992434851708329901e-02
8.480840998434284461e-02
7.379337891698495300e-02
1.123970445396977463e-01
1.021673311136220286e-01
6.961002832921119043e-02
1.147498874334429014e-01
1.398040875349312318e-01
1.262518355683827087e-01
1.247965698557493563e-01
9.787445336855793432e-02
2.071730886416041639e-01
1.347782322302832070e-01
1.413038418620675141e-01
1.398870194170235837e-01
1.448038198051568581e-01
1.386644752746264697e-01
1.885317635173521522e-01
1.512562170323374644e-01
1.925029038654589852e-01
2.266860878840786242e-01
2.318432135480674450e-01
2.020501247768614339e-01
2.729788631633460749e-01
2.663917412688642794e-01
2.193399183673473973e-01
3.011790407669723280e-01
2.437915711609796587e-01
2.713985255824525322e-01
1.937787868538317637e-01
2.507827819345705422e-01
2.273619347790098721e-01
2.762327477673143239e-01
2.402392786055508045e-01
2.534356337591269770e-01
2.728870876051254779e-01
2.253198673400899077e-01
2.869280336387827202e-01
2.400835673386720048e-01
2.740241487445865265e-01
2.724197883232880590e-01
3.030539994675053306e-01
2.663029458570566610e-01
2.307900856057178429e-01
2.081290567783437018e-01
3.092509597736612381e-01
2.671183553800230426e-01
3.225260105080700046e-01
2.612837392569812844e-01
2.351038601086559154e-01
3.162930464485894655e-01
2.243296047627879042e-01
2.303456407251236460e-01
2.991634697246231545e-01
2.415768791330544785e-01
2.288975991674274957e-01
2.320592868757015426e-01
2.366667186567623926e-01
2.668022409489496649e-01
1.745355981793250966e-01
1.960809587901490569e-01
2.070523601264315505e-01
2.072356222686778660e-01
1.705191344456191693e-01
1.186473643958912694e-01
1.877047657668466374e-01
1.409892853916924205e-01
1.414810567893909077e-01
1.389469840988950267e-01
1.381001614386974941e-01
7.625438884087473723e-02
1.682468073427583755e-01
7.772258319100175394e-02
1.199053336640346357e-01
1.306817358857286226e-01
3.477969702755649706e-02
9.629186193576752539e-02
1.003392046233365364e-01
7.277512568998406595e-02
1.089753048677060410e-01
6.744004601989872505e-02
3.875880671556503065e-02
9.510663654663750743e-02
6.628064172617274818e-02
4.285531369027822945e-02
3.427243333664787422e-02
3.056328367425076992e-02
8.776491861161606067e-02
8.166237356447395013e-02
5.776089055737550215e-02
8.743517084871557654e-02
8.507351130205825784e-02
4.761659840392622883e-02
3.412459734551449853e-02
1.030997584902254155e-01
4.105502586438690427e-02
5.701560367052196238e-02
5.111683362493548571e-02
5.605189302259687423e-02
6.141843811405295339e-02
-1.900043450248412036e-03
2.106490777845805920e-02
4.094924904808730504e-02
2.552266305858658102e-02
3.586429956212380810e-02
-6.708168316458033853e-03
3.660817315386782900e-02
5.278496802679842614e-02
4.628350557495500284e-02
5.137042803274491365e-02
4.646050192562916487e-02
4.351145989848256151e-02
4.787623518312975057e-02
7.787527852389918015e-03
8.296203780067434863e-02
1.094118604145611143e-02
3.473639341451637691e-02
3.865442790349341712e-02
5.420127006401351949e-02
7.137558531658877436e-02
7.397961898620580845e-02
6.530770212987324630e-02
-2.180023440921034089e-02
4.186508807204621790e-02
2.892682446603872526e-02
7.593600664797456323e-02
5.940907076836962619e-02
7.842637675534247510e-02
4.927239552990107796e-02
5.242450614042773460e-02
8.390633804341704471e-02
8.020433211989037858e-03
5.378697815358829404e-02
8.259285067812396908e-02
2.402551663118142680e-02
3.647345977605218753e-02
4.012542301601365602e-02
1.478741384627415070e-02
3.131897064878774728e-02
2.434678101229634239e-02
3.260613877530166294e-02
-5.547296407872617796e-03
5.937113214647145309e-02
5.711866175977223237e-02
2.976472157373288505e-02
4.852891636632276212e-02
1.279300844205589344e-02
7.758847838094748428e-02
7.299318505607654828e-02
9.112376527910374946e-02
4.716285113974670595e-02
1.050328312599483338e-01
8.156277540620304745e-02
1.171259594604345533e-01
9.772280518726125798e-02
4.428908001570155961e-02
8.741588588167116536e-02
1.304426308777724697e-01
6.044651352099042474e-02
9.205223766093179050e-02
8.467218085336571110e-02
8.142671464220477273e-02
9.642565949923499746e-02
1.256102559773915606e-01
1.055297716449686563e-01
6.673969444712515853e-02
1.305800583838147011e-01
1.784425263495444114e-01
1.382395175098223294e-01
1.635590920290933004e-01
1.366836529174315640e-01
1.704221656556457742e-01
1.854452660446665180e-01
1.567164689645835218e-01
1.537387305309271257e-01
1.959309606215378918e-01
2.059342423584352988e-01
2.097862212902886769e-01
2.350489957938831365e-01
1.850956805018619811e-01
2.098355017793302746e-01
1.921856020952648347e-01
1.780445510962766209e-01
2.090035938241415758e-01
1.923255247722365224e-01
2.045481263675795747e-01
2.274733508500801360e-01
2.246588892950966143e-01
1.233983173689311430e-01
1.901078023248594095e-01
1.920906587040562830e-01
2.029932903193743532e-01
1.598989518484728034e-01
1.664959831136567092e-01
1.550599587575371419e-01
1.433603506297596308e-01
1.389194464491216308e-01
1.118495151045106051e-01
1.271781534942006686e-01
1.265523240781714076e-01
1.534565918729516587e-01
1.790404898749840823e-01
1.595186047137314433e-01
2.279428516342603128e-01
1.748644292451296545e-01
2.692102672035900923e-01
2.890391136135618266e-01
3.655663764894361289e-01
4.318802468071581968e-01
5.082889331189036630e-01
6.194775406353076885e-01
6.671442122358485216e-01
7.639414431897544322e-01
8.526487720588922237e-01
9.667786579265179592e-01
1.079986307433528081e+00
1.138055855796605398e+00
1.162605779490717417e+00
1.312411377630892106e+00
1.308430198264151745e+00
1.334887297422021168e+00
1.291343968221907001e+00
1.283586916373111952e+00
1.231712510323610843e+00
1.175061906246241739e+00
1.036092520650504056e+00
1.020667315584956381e+00
9.411337886275931153e-01
8.203599467340673135e-01
7.162047345361836070e-01
6.124535265109682936e-01
5.466928584072430208e-01
3.872212868949695408e-01
4.268771388942861900e-01
3.176953119713278317e-01
2.867560713851280418e-01
1.878777694075224880e-01
1.491750257521293199e-01
1.516649163366297348e-01
1.185024994496750306e-01
1.075194518629480900e-01
1.110324784317453239e-01
1.106561865342723938e-01
9.710122527552600413e-02
1.362862188419580733e-01
1.328186853762101660e-01
1.256389850523063623e-01
1.704855334345448392e-01
1.262399352961082188e-01
1.708085679212250352e-01
1.461784483934598367e-01
1.180546563325433618e-01
1.493890268993387782e-01
1.144772327495786057e-01
1.764145656220350578e-01
1.548294509258896778e-01
2.125191108367883719e-01
1.540582239816387089e-01
1.736254109560812497e-01
1.609367382146796033e-01
2.214821883337064479e-01
2.486843864315044506e-01
2.254837373654681176e-01
2.026997527111877306e-01
1.958681117898406487e-01
2.571257443254566510e-01
2.046415110892141342e-01
2.912541069315581210e-01
2.776825940727161712e-01
2.615040765006081402e-01
2.738043883384004840e-01
3.069426129411050863e-01
2.267211286210935317e-01
2.933929402634227745e-01
2.397760950579168604e-01
2.646412771468788505e-01
3.234501859077709707e-01
3.001546066215493025e-01
2.751898450157720943e-01
3.194647003843631428e-01
2.902473288676751251e-01
3.368878749169507691e-01
2.599740332643379337e-01
2.833588149670682177e-01
3.211126294137597315e-01
2.973291006237388512e-01
2.279965403901546006e-01
2.224418605620545331e-01
2.930444021884447414e-01
3.586448141640214415e-01
2.735705474983580188e-01
2.865119504948548945e-01
3.241930417388234620e-01
2.778567088393967266e-01
2.315789500620239749e-01
2.469421301972244687e-01
2.539110094976140264e-01
2.951887174898842336e-01
2.980297994605287104e-01
2.813726788770358755e-01
2.897755022092553534e-01
2.600325056220406106e-01
2.239845861729377330e-01
2.059760296615843755e-01
2.442908635851798183e-01
1.572586181601367261e-01
2.141977850057986410e-01
1.621219560912949276e-01
1.872399646539879003e-01
1.342989666882931643e-01
2.403973758286130358e-01
1.217840101925228846e-01
1.290511327821874665e-01
1.592830831188049023e-01
1.595837383271521692e-01
1.436310474599765130e-01
1.146659699665334708e-01
1.260566485963375838e-01
8.873407041175443433e-02
1.214979017510436354e-01
1.140221889981659631e-01
8.644270189892551415e-02
1.107627839076167076e-01
6.935170143083080330e-02
8.090368270728087730e-02
6.963951513494640033e-02
7.937406974396953030e-02
1.961878002213009869e-02
9.525814455627742983e-02
6.040588711883829870e-02
2.754746841104553992e-02
7.859737333136337933e-02
1.826628993061089890e-02
1.675143939431638848e-02
6.363616413825932960e-02
1.402755786765682439e-02
6.667579357801732554e-02
6.648331713621145889e-02
3.155120115708508893e-02
1.187546496143791763e-01
6.436091612560521091e-02
8.033483372859559490e-02
3.819225048003302425e-02
1.424893692537780587e-03
8.573953476878121149e-02
4.399851674924325912e-02
1.344144403647423713e-02
5.456004348991821962e-02
6.396908969267707523e-02
1.036905106797455928e-01
1.889758774294446331e-03
3.304740008166945353e-02
8.855260675550423455e-02
2.747887661697617778e-02
1.277132025099502743e-01
2.480199254411376286e-02
-1.892473193878383558e-02
-8.136012513806127611e-03
9.760313700669569215e-02
5.354826063267685565e-02
7.519807144002073340e-02
2.905859616648702459e-02
9.760853705585385148e-03
2.434913939939317012e-02
-2.911066087234030764e-02
-3.091895055073314719e-02
7.459141430358227909e-02
2.052542372142207930e-02
1.732651566893283687e-02
9.991556874683674844e-03
8.062631988255776483e-02
8.137964856448652584e-03
6.342861319920618801e-02
1.580019624898757608e-02
7.812562413507451176e-02
5.984902834377962833e-02
-1.051457603450017819e-03
2.489141528263082506e-02
6.589803832907158154e-03
3.720290824895217119e-02
4.248496535562104603e-02
4.858353592973387036e-02
5.427816129870818851e-02
2.211253702153852252e-02
1.516742819428681943e-02
4.110953538779806016e-02
2.114222243304616014e-02
1.452026980890988930e-02
7.691112124358101543e-02
6.987782152626038912e-02
5.211375829368656426e-02
5.697587418582494845e-02
3.053897579271076801e-02
3.605201413235861047e-02
3.804497140461064741e-02
6.073502097188029913e-03
4.628234629071950601e-02
6.662688887422948958e-02
7.123998586904067842e-02
-1.659992395426218570e-03
8.825209942216197256e-02
7.288491184470374806e-02
2.297258031263026135e-02
6.596608749968854712e-02
5.375321104510980691e-02
8.806675257157249581e-02
2.633607878529849872e-02
1.260673290370425692e-01
8.130689776765825938e-02
1.106498354087620262e-01
8.233117088360417113e-02
9.630556390728101102e-02
1.012584461482287090e-01
1.339326210631417990e-01
1.635617344400508988e-01
1.642212707741153577e-01
1.678917308969003486e-01
1.677066697914834092e-01
1.494315071169614040e-01
2.025008315172348583e-01
1.450421725174275422e-01
1.454302532581844554e-01
1.901904142166574996e-01
1.507741851200162242e-01
1.430721823115675417e-01
1.985294555735024058e-01
2.095995264052306906e-01
1.550419873762353684e-01
1.617785927414080449e-01
1.850859095403570020e-01
1.611648144294063889e-01
1.882610645386174342e-01
1.573914366358256656e-01
1.879624017609900777e-01
2.216163517226091006e-01
1.692560294779501262e-01
1.143931056176952232e-01
1.701087280059820628e-01
1.166173852663458660e-01
1.219185496657021056e-01
8.841389979869516969e-02
1.488288131839933248e-01
1.161251620913018590e-01
1.289988045736850941e-01
1.445132014503832107e-01
1.023804529231173432e-01
1.311351369153221369e-01
1.903400779478421900e-01
2.172061602108867895e-01
2.319846994675400509e-01
2.817730363592418352e-01
2.866335457657015473e-01
3.822154852946845760e-01
4.967411291137803775e-01
5.628662552272083452e-01
6.907792343209256947e-01
7.611901985195418385e-01
8.534218240630330188e-01
1.007084565004374488e+00
1.030559338304473327e+00
1.151695272152823302e+00
1.160112906781783915e+00
1.261102196261149944e+00
1.258353661525630773e+00
1.281520301912458804e+00
1.294234319326789340e+00
1.286105487786898482e+00
1.225264199089728834e+00
1.189939405592856270e+00
1.011208929121733213e+00
1.013320372834108030e+00
8.516808069135065606e-01
7.445834492049181463e-01
7.035057547505838560e-01
5.840077249622781519e-01
4.817393440816540862e-01
4.501079825074713603e-01
3.580809834286546312e-01
2.955969045559887487e-01
1.823449660091627234e-01
1.754740220799018702e-01
1.655686441208576998e-01
8.822694048443044390e-02
1.101612174334282712e-01
6.739320725815760305e-02
9.528555694171264578e-02
9.541739874550242417e-02
8.968572230353388797e-02
7.297311550531047908e-02
5.971862467363177329e-02
1.019528160114543530e-01
6.979071885412767295e-02
1.256486838983440490e-01
1.355515536173481084e-01
7.552103434376689073e-02
1.338514041152921163e-01
1.326989633868894680e-01
8.491822812666563469e-02
9.385567207902606457e-02
1.012715405431731941e-01
1.086864897425573045e-01
1.672474667762734457e-01
1.954317377732267269e-01
8.004022919053380147e-02
1.768206089679233983e-01
1.910335059974686833e-01
1.996626149915361470e-01
2.197691520803519150e-01
1.560307543665376273e-01
1.911518625040505570e-01
2.198773610298635217e-01
2.183922246381415355e-01
2.169481877089513011e-01
2.122028485583797586e-01
2.136653471274939375e-01
2.119547368247001462e-01
2.322175324080028302e-01
2.831621389680261669e-01
2.563336696491589350e-01
2.352669821832993613e-01
2.612351516567887333e-01
2.156319909135023249e-01
2.120533682477422355e-01
2.547559053188339639e-01
