1.354202540329728199e+00
1.390924196615690889e+00
1.381720137386076130e+00
1.328277773733812062e+00
1.258521786329186876e+00
1.117946827781663544e+00
9.793500998082450559e-01
9.625101468483178158e-01
8.224175377814827437e-01
7.015217250283567463e-01
6.158112372594344297e-01
4.984566860733067317e-01
4.313594938151910640e-01
2.755616634551784627e-01
2.942197544075782489e-01
2.466628986369881482e-01
1.866122488582443173e-01
1.251752201028728251e-01
1.143521369508577884e-01
1.283101144075442235e-01
1.040094283447640100e-01
8.906652151360683334e-02
8.940059750614362533e-02
8.471727866715228483e-02
5.060166381157141929e-02
6.734138910638980124e-02
1.037697775837584102e-01
7.579154409392666047e-02
4.528494504355345257e-02
5.928506224007858844e-02
6.386410640079170919e-02
5.812538390868780824e-02
7.159672716231436918e-02
1.599951431814969904e-01
1.062670761468968300e-01
1.652140714870616867e-01
1.553045990226504247e-01
9.439079035272469886e-02
1.226672746970927097e-01
1.155850202867538812e-01
1.668035537983505456e-01
1.583464080102632843e-01
1.158526636650425712e-01
1.593238927160742224e-01
1.765004622232255460e-01
1.892857863965279053e-01
1.545440953929174965e-01
1.758218356746477362e-01
2.009160103614055504e-01
2.076134780243956979e-01
1.795907505688339734e-01
2.105109805977623816e-01
2.056442600555349609e-01
2.456938180151688189e-01
2.175567248817675547e-01
2.460426549456043444e-01
2.575225634469050506e-01
2.546155334783559154e-01
2.638325716737317528e-01
2.320297564869565066e-01
2.041604451866394776e-01
2.051218619296983348e-01
2.560400948937837096e-01
3.008497450489143743e-01
2.209795595450982364e-01
2.805342472729910330e-01
1.959991545641299460e-01
2.381782064191159676e-01
1.861952871125818754e-01
2.079289865829033190e-01
1.927717196858626802e-01
2.538682941027676221e-01
2.739983471020541739e-01
1.604405064188072494e-01
1.816657471394840795e-01
2.713377188471807755e-01
2.498430636069900179e-01
2.075752963125774841e-01
1.755910201126092696e-01
1.492425128153122560e-01
1.579786241344864617e-01
1.447925762166786534e-01
1.877844007966327777e-01
1.424140229924155121e-01
1.495054263714717391e-01
2.146653058752958365e-01
1.282611798970534900e-01
1.212109057824294067e-01
1.518427176426296321e-01
1.335024680143471476e-01
1.161194402163992084e-01
4.394032974334374786e-02
1.531541537910484363e-01
1.062508894507814272e-01
9.958114936426083752e-02
1.104219030455540901e-01
9.928242637912410018e-02
5.448025560190784822e-02
1.145987732998329095e-01
3.195641311218970493e-02
-1.613628078929508006e-02
3.142305331194825135e-02
-3.664607622212472798e-03
4.107500480127643239e-02
5.073709876236651845e-03
2.921321527565675855e-02
1.037801474901411600e-02
2.418787550503486566e-02
-1.117081985765818256e-02
-7.394757153321291493e-03
-4.170963501713280397e-02
1.430016045547763057e-02
2.584033539637029669e-02
1.994292033611941989e-02
-2.346033930884147342e-02
5.671303990150942942e-03
-2.567730982465983580e-02
-2.342229787605528551e-02
-7.164745065700731108e-02
-3.918101522336268211e-03
-1.026810311696769312e-02
-3.066400800542386229e-03
5.357333682121168117e-02
-5.223169175693685023e-02
2.129026113155961172e-02
-3.364683126393420293e-03
-3.656011789132969370e-02
7.069106140214109768e-03
-1.941733713635995784e-02
-1.093690156584398512e-02
-4.520574142032758591e-02
-3.119001661568188491e-02
-5.876044777481234660e-02
-3.831932758436989994e-04
3.394621363228195188e-02
-4.069033572224761697e-02
-1.347501696323642056e-02
-4.186248342414067986e-02
-7.638754924929930246e-02
-3.446287468363526396e-02
-2.675788664899339184e-02
4.978166925561224032e-03
-3.590178096696785420e-03
-1.807911995356768428e-02
-1.156098836704224850e-02
-7.879949083509475705e-02
6.229169706941301704e-02
-7.988887162984731338e-02
1.823490444307076727e-02
-5.818251121372364221e-02
-2.547643123092381903e-02
1.277747638078724837e-02
2.538079697813108715e-02
-2.728237055892885482e-02
-4.438596071452934749e-02
-5.549450129555840577e-02
-3.752191157784911385e-02
-4.471701711693765180e-02
2.375673341476327791e-02
-5.014095913679667699e-02
-6.130338275018334948e-02
-3.715604702237710472e-02
3.938839610540106201e-02
-3.683668862678694811e-02
6.012354324049819232e-03
1.445797174751099062e-02
-4.079141061135127533e-02
-1.169432011493512502e-03
3.517740117990011961e-03
2.146774578893147906e-02
3.454639881768165055e-02
-6.174834551466758248e-03
7.632878535252990426e-03
2.086289470729538881e-02
1.076319833995572905e-01
-7.588388662289481668e-03
3.411002014551882400e-02
5.004749125499297069e-02
2.381624941168897919e-02
7.778270219363460358e-02
3.545967591198908447e-02
6.615108380239725916e-02
3.896840833025320971e-02
4.186045639245928457e-02
7.253480584280286303e-02
7.484371041469947694e-02
9.676484054389761225e-02
1.058555838109616343e-01
1.498971052301129592e-01
8.456648583914518069e-02
4.620619999382256926e-02
6.485100155351769535e-02
9.751068714104149660e-02
7.602043432927782507e-02
1.237939192987206061e-01
5.437977034252279573e-02
7.521594005009051009e-02
7.379096431315032567e-02
8.479417101134306689e-02
8.030743317768357370e-02
9.880098669114079080e-02
1.040913763657664304e-01
8.803505746138645671e-02
8.631993618700986581e-02
7.895608215761630577e-02
3.773278283033640323e-02
8.850617696803847467e-02
5.742451413856265729e-02
7.311230157239362315e-04
4.376199258039498857e-02
3.356737759744507499e-02
7.097620611576818672e-02
9.430777204704697547e-02
6.293982249016429054e-02
1.082290820840611512e-01
1.677490620805556776e-01
1.506015031822402483e-01
2.228489773597618073e-01
2.712403410880921406e-01
3.413894640879975295e-01
4.269869274049626351e-01
5.188468950706266458e-01
6.008722596973669061e-01
6.776031382488307830e-01
8.171544450778153168e-01
9.323092772414662832e-01
1.010660873762294187e+00
1.122037370947708945e+00
1.215446436964960908e+00
1.307803438514630878e+00
1.403077132358262036e+00
1.360019420466505480e+00
1.375718778208047333e+00
1.354172476612474751e+00
1.296240255932417096e+00
1.180017670520418394e+00
1.103073986079487812e+00
1.028631612686151220e+00
9.043388955839325449e-01
7.975195784202560034e-01
6.716836325313323419e-01
6.224896211542670921e-01
4.415897394462726111e-01
4.328682589876972631e-01
3.679746591094642527e-01
2.810355835603787211e-01
1.703689172717164357e-01
1.608911866801714663e-01
1.254520582008950835e-01
3.667418104264595635e-02
9.324044337134063110e-02
4.414223707924974649e-02
6.270967248233755287e-02
-2.063035787002710092e-02
4.978218682720547683e-02
4.633336123766990111e-02
9.352819676359919177e-02
4.642877356295579960e-04
-4.854975192379428622e-02
5.343777094707410219e-02
6.115010015474146854e-03
6.712354220547073202e-02
1.073453426433862434e-02
7.144088364879624953e-02
4.317788945260228606e-02
8.282827093329053758e-02
7.948509180109258887e-02
9.579558226007245381e-02
1.046664663106893628e-01
1.026062144486647870e-01
5.967832763075658908e-02
1.425728162524859122e-01
1.076612783100783510e-01
1.295079645636371124e-01
1.107426812253210491e-01
1.533987570784997312e-01
1.408846473396464516e-01
1.547010688391267652e-01
1.202997927726012217e-01
1.802708568587431670e-01
1.657823798062979803e-01
1.156222333115326795e-01
1.471283133246746311e-01
1.846422551939020662e-01
2.022296793815697158e-01
2.056767705232890042e-01
1.556801389154268966e-01
1.937203790018594829e-01
1.645351330366214837e-01
1.882234173898148788e-01
1.742984297303074581e-01
2.114841888038414552e-01
2.333561006375464986e-01
2.492240237068440167e-01
2.087998827602283447e-01
1.873123098975641443e-01
1.481926608055830208e-01
2.164769831410076617e-01
2.320891799182177029e-01
2.371520799324757234e-01
1.793870195593790240e-01
1.859812026763825732e-01
1.969135531102517156e-01
1.837781016360283126e-01
1.436982820837227337e-01
1.334298889717253078e-01
1.974831264291001531e-01
2.024953463950511789e-01
1.390137246142195415e-01
1.806934399384840795e-01
1.589583414176695408e-01
1.337338106072213928e-01
1.376583221720106553e-01
1.600538182114343289e-01
1.020452854818444943e-01
1.075242142013600466e-01
8.072718279340529435e-02
5.219265723461971596e-02
1.193509546287873369e-01
5.212582491122479122e-02
8.651743830555908010e-02
9.257128796229721623e-02
5.869823243495388143e-02
7.571776908290060726e-02
3.593460151414648585e-02
1.007982664501683445e-01
2.138144148600865796e-02
1.081236650698231827e-01
-5.554873143045424566e-03
-2.403929544190996914e-03
4.102360147788405853e-03
3.777231564729694596e-02
-3.313431603461085284e-03
6.422011481021749901e-02
-7.561959834715484274e-04
1.705975110367440734e-02
-9.811078934751880920e-03
-3.285185884711093462e-02
-4.017562015082352944e-02
-3.175598233937350356e-03
-1.545156777390148395e-02
-1.124966463142855477e-01
-5.152068553549396523e-03
-3.164696805555057557e-02
7.250131416148108965e-03
-3.992984231532974854e-02
-2.594614007929981619e-02
-2.980160101870384798e-02
-5.839445130315812360e-02
-3.413754451134794893e-02
-3.643391232138144809e-02
-4.981095916465040629e-03
-6.051539148136587248e-02
-6.832206721650530001e-02
-7.529549645775762690e-03
-3.296885140987908247e-03
-7.323699181293362448e-02
-5.495844849215296424e-02
-2.265505357306329959e-02
-9.186674540011791068e-02
-6.244062941089921492e-02
-5.260922730724484214e-02
-4.881891127660829832e-02
-4.206542207221457275e-02
-7.340525837931195785e-02
-2.025836428161825742e-02
-5.350730684586857411e-02
-6.923470487059846246e-02
-2.798921183120059789e-02
-2.219562429391712735e-02
-3.923994611254701115e-02
-3.360848596512568121e-03
-8.420780961877702420e-02
-3.354501659076480902e-02
-7.198849632577325464e-02
-7.235658490135341014e-03
-3.425026933313959215e-02
-1.676588510233911755e-02
-5.102802150309428131e-03
-2.860461001903277442e-02
-5.747410178088443317e-02
-8.513564659259821588e-02
-5.341729671471947410e-02
-5.826188051679537239e-02
-5.152642790578392668e-02
-2.207024103887444272e-02
-5.413217923484710953e-02
-9.443977053439467362e-03
-4.085220803635565556e-02
-6.369574123682739120e-02
-2.132013529934417839e-02
-5.368549710687958720e-02
-1.971572582646072616e-02
-4.222539543705647325e-02
-6.383162242065043568e-02
-2.658826093400665225e-04
-7.132198050900516451e-02
1.853759176653209384e-03
1.054839192758599831e-02
5.116513206961756377e-03
2.388451184394867893e-02
-3.683518235192376200e-03
4.985451657394621150e-02
5.073523785830834354e-03
-2.431385954333154659e-02
1.012829271239001211e-02
-4.068792871037209269e-03
5.130161623807327070e-02
3.801522161476740547e-02
2.322784046563471094e-02
7.810525839588967900e-02
5.280068130744121346e-02
7.499781190572177292e-02
4.248401515764411995e-02
1.099331526081803179e-01
5.917679023448176034e-03
8.734470252276219093e-02
1.129964189103928179e-01
8.578939711487038045e-02
8.439499386506420231e-02
1.498071544544973821e-01
1.283330204414917519e-01
9.419211205503577600e-02
7.621186383371363060e-02
8.479929994385256020e-02
5.734127006622751627e-02
1.243733456603200171e-01
6.286059295679979897e-02
1.242826559499829731e-01
1.105566454094923379e-01
5.664118892224354052e-02
1.467145478711374129e-01
1.215680089749652526e-01
7.854236417021837058e-02
4.431086151972406240e-02
3.701751332235702491e-02
8.413005521398622677e-02
9.721223963974554017e-02
6.755633196398797002e-02
4.499441913208927085e-02
2.422712843228275181e-02
1.073886941500708514e-01
7.903273101122944289e-02
4.720950697141156754e-02
7.685971902383051391e-02
1.394557817426997359e-01
1.219783840446398981e-01
1.658561356056759140e-01
2.375892480519165573e-01
2.786897650683293759e-01
3.332562964456724508e-01
3.793368054914067478e-01
4.756778812388626765e-01
5.875189292653514306e-01
6.657665915413694124e-01
7.612978037376232354e-01
8.512793250073387163e-01
9.964130153265027268e-01
1.027413689561925469e+00
1.137360320452054152e+00
1.282637470943509772e+00
1.355836701524723464e+00
1.357005179418143026e+00
1.390101768824389961e+00
1.401172217530503472e+00
1.273616864923692305e+00
1.202577646289124003e+00
1.162107160525694294e+00
1.068644980005851064e+00
9.837216357008787826e-01
9.866878524373116077e-01
7.231190743362653217e-01
6.353619944165848077e-01
6.053406536120560233e-01
5.184632794709457260e-01
3.902218142967258663e-01
2.380442560698855237e-01
2.168093318454597518e-01
1.622419914216829406e-01
1.347255680872141426e-01
9.506951433713997646e-02
1.473999016538044549e-01
7.844136949388674784e-02
4.293739653284281421e-02
3.834855597498929014e-02
-2.354786535015130494e-02
-2.297598167616392989e-02
9.451126300254703017e-02
1.560941001133184930e-02
-3.182975134765014813e-02
6.188167461028507010e-02
8.516403273848091593e-02
1.018623903247394130e-01
5.209689913805517353e-02
6.385709749980647554e-02
6.767410989706067193e-02
6.765879111610229035e-02
6.884214446947650723e-02
2.501905292543401410e-02
6.405364583129591338e-02
8.825102405936346983e-02
5.040141718921214292e-02
6.427543763128965026e-02
8.846495470290072216e-02
1.453013960489807355e-01
1.117677134614752377e-01
1.263735091884485295e-01
1.261849621042549496e-01
1.534949236964962271e-01
1.480928470373785721e-01
1.453224289740808195e-01
2.292494697227142331e-01
1.449329033055233862e-01
1.758810390463625972e-01
1.722916848021698866e-01
2.058996705253060000e-01
2.247118735859383598e-01
2.095016200189659394e-01
1.985308252313258692e-01
1.935099371078536357e-01
2.103963380938138616e-01
1.713161061109992334e-01
2.375095670271562265e-01
2.672247379749270735e-01
3.285362394843177603e-01
2.398515862804146970e-01
1.666642329628546526e-01
2.640881629398104113e-01
2.177137349649188036e-01
2.262830872671734439e-01
2.039089945655623570e-01
2.495598254938913574e-01
1.922213607486236986e-01
2.012610711096989302e-01
1.677906463849723750e-01
1.933506292924195569e-01
2.119527652339665558e-01
2.127693442015982095e-01
2.000806517712741539e-01
1.368009947808641047e-01
1.299661125157855757e-01
1.907013096438483490e-01
2.373887066478058694e-01
1.400363362784586840e-01
1.774271278177047551e-01
1.428647148056310101e-01
1.610123721747100667e-01
1.376001128724158584e-01
1.318900396251350693e-01
1.039876895408803625e-01
1.142005305873431131e-01
1.161465808444117898e-01
7.523571624126884627e-02
1.166237433772071702e-01
7.684927388906259704e-02
1.711573327823358304e-01
1.049855154098946197e-01
9.901041254400867742e-02
5.714597395929503498e-02
7.924301302323820406e-02
7.190110939877494833e-02
-1.269874117040943606e-03
5.470994739711433630e-02
1.057043231585024501e-01
-1.974122152360238691e-02
8.163419723082823709e-02
6.882674265268381997e-02
-1.136187842617810556e-02
-5.126606639875356392e-03
4.165248181989492093e-02
-4.578017729716465922e-02
2.439747667183827726e-02
3.870078461299374106e-02
3.291952087864546961e-02
-6.081772882639682742e-03
8.668555992215162126e-03
9.608981259656687590e-03
4.090711147669779529e-03
3.233001578353083411e-03
4.362181590394983988e-02
-2.056767387509959161e-02
4.623443421725347002e-02
5.226725402429835410e-02
-3.619880302786823711e-02
-3.082617752975837927e-02
-7.392950732053478469e-02
-6.149642611851577345e-02
-3.870498714111774569e-02
-2.886597770208923150e-02
-1.553613667677131160e-04
-3.467288626499091114e-02
-2.728856873295294055e-02
4.144564643846521124e-02
3.248350975455530087e-02
-2.468299780422230499e-03
5.451593018181258299e-02
-2.363918275773886635e-02
-2.476688200487461161e-02
1.263049215522266816e-02
8.691990350693890727e-03
-6.824209545306780117e-03
-3.143639786968165095e-02
-1.358142543714253338e-02
-4.153592523178012419e-03
-4.092345469774532479e-02
-2.951530583513790884e-02
-3.058919008132824149e-02
-2.707541555243682743e-02
-2.591513692128030039e-02
-2.099837586679769233e-02
-4.641897787577818624e-02
-2.659450530663239748e-02
6.094355620145057786e-03
9.046063225619382572e-03
-1.226878383393678607e-03
-2.294988601687800861e-02
-2.476690015844263543e-02
-3.556390398739263381e-02
-1.063488132683697816e-03
1.569213119480985380e-02
4.100278809030495630e-02
2.596657481696293401e-02
2.698518300075936072e-02
1.212970917472433810e-02
1.794941959853305416e-02
-2.350016041745036158e-03
-1.941923116226471069e-02
3.635648650646579327e-02
7.180394269617909608e-02
3.102165056515535785e-03
1.503767365749199975e-02
2.781024647179484652e-02
6.428840220271399286e-02
3.788194886227390368e-02
5.748476059400518812e-02
6.481885690937490285e-02
4.238621696703259029e-02
6.530240070169658628e-02
2.934383728575359548e-02
1.261823274074956869e-01
1.011971308077216358e-01
1.284081649405830472e-01
9.609891937553556585e-02
8.711990792817357609e-02
5.111344699484394322e-02
9.519739963305563768e-02
1.129260301914936232e-01
1.018861907975780884e-01
1.048722789601273520e-01
9.720900963705411679e-02
1.310405752228352982e-01
1.085109358562066778e-01
1.540766526801858327e-01
1.419885898222134069e-01
1.165598200061471051e-01
1.904522880419409481e-01
1.711134102977001914e-01
1.315349990331858288e-01
1.117022912563655629e-01
1.620598859300116656e-01
1.754552122061632802e-01
1.385062115409824712e-01
1.703705721278995222e-01
1.398555631386398934e-01
1.603453220365101684e-01
1.569708672517173831e-01
7.940689983234788807e-02
1.231549859883138143e-01
6.973304662931203990e-02
1.153082502094438938e-01
6.089277899530505522e-02
1.304576501403645339e-01
6.491078283430617990e-02
1.022476830595357850e-01
1.195880952795608659e-01
9.064513762078232895e-02
1.533916592947490443e-01
1.670341645145171361e-01
1.716804539475790814e-01
2.386651145149858988e-01
2.662231252822784833e-01
3.157321957646469501e-01
3.832415915844022969e-01
4.069732695575184467e-01
5.436829078845060170e-01
6.477789424326990675e-01
7.491067651372352865e-01
8.158511475654200984e-01
9.764510115686529934e-01
1.054789937183140847e+00
1.194255015698577393e+00
1.228050587825883611e+00
1.375336268676540241e+00
1.376281602524270120e+00
1.358090458567080105e+00
1.415538747000657294e+00
1.417009319181823823e+00
1.305530628905825274e+00
1.282531696089366013e+00
1.137683210599050865e+00
1.151347857447001077e+00
1.004197453194730638e+00
9.268920636401835056e-01
7.969430168557191108e-01
6.130370700632886694e-01
5.404907733006759640e-01
4.508826248833261996e-01
3.801322281416732451e-01
3.291366056655379846e-01
2.360671524770598384e-01
2.192962105654993055e-01
1.929600853765002788e-01
1.151712773599327111e-01
1.017139236314959783e-01
1.490648605250128877e-01
1.137713472212074778e-01
7.230473310338494941e-02
1.158960898238492604e-01
6.739007863795602737e-02
9.291735045681132066e-02
3.927448447568027134e-02
1.082128711940636423e-01
9.080440238851959778e-02
1.000390044100250425e-01
8.776887948791441130e-02
1.553704520115379850e-01
1.416652186865161867e-01
9.850072806473639253e-02
1.081633317061247435e-01
1.403266641881883992e-01
1.026455975593209835e-01
1.435208725186145617e-01
1.484508669735249697e-01
1.655481364692142632e-01
1.487709973745435232e-01
1.835444938558662142e-01
1.715283341415073382e-01
1.973352906261925388e-01
1.944459074862630865e-01
1.985070963149774825e-01
2.078757099887620086e-01
1.676252622843638351e-01
1.972482249777960939e-01
2.135569515046947253e-01
2.384892078875421317e-01
2.351560725551150588e-01
2.676723621854072421e-01
3.381849841534569356e-01
2.465096606728064965e-01
2.692928717431531949e-01
2.757234263619185999e-01
3.573000005146240166e-01
2.680049678733533169e-01
2.200626354751231695e-01
2.694451136839934868e-01
2.028361631708566204e-01
2.533980113238017973e-01
2.636155102173655673e-01
2.612082078095510074e-01
3.420556821320486773e-01
3.369646883430443274e-01
2.869021645878529481e-01
3.286264142457130388e-01
2.829977358778085206e-01
3.134575281996184182e-01
2.335520277696652158e-01
2.615078702472031780e-01
2.726480859889497399e-01
3.040691095541922517e-01
2.832876111862139279e-01
2.185611007874463940e-01
2.542666968370206337e-01
2.180864950052477935e-01
2.376015134497337922e-01
2.347910611228720690e-01
2.318417330106795904e-01
2.247496794671722253e-01
1.963047426212620739e-01
1.904837847561638431e-01
2.124945140322295201e-01
1.170579820288408790e-01
1.513234410139673025e-01
1.386795539868548310e-01
1.922758816097121237e-01
1.565548925283953841e-01
1.611106737147437740e-01
1.289029857863801809e-01
1.515859694521136669e-01
8.383872057456552562e-02
1.612792862951938633e-01
6.929386679815351113e-02
1.494889520565649277e-01
3.237095276566155644e-02
7.605993450922279853e-02
7.367291364563385847e-02
1.335227619588136294e-01
1.227262386507832481e-01
5.713743750105289287e-02
1.420438478998360954e-01
5.906977916057407074e-02
1.002464539466008941e-01
5.553583589018638855e-02
1.053855392181443917e-01
5.448491518504182396e-02
6.024878574458582270e-02
1.778434765555075500e-02
4.146816276311833527e-02
6.562328738195784272e-02
-1.062492110955919056e-02
4.399528735624751163e-02
6.880895698005287664e-02
9.095251446509980409e-02
6.050884496727365613e-02
4.165933627912488807e-02
7.976219830587388815e-02
2.962037705970846369e-02
4.090718793214916105e-02
4.597657615113172336e-02
1.534523683326436891e-02
4.268565253479991717e-02
3.211032962800312168e-02
2.537925741932156587e-02
2.741120176438330627e-02
8.733387192698296997e-02
5.177823796317265748e-02
2.725931849611998303e-02
3.914695259383570158e-02
2.023809472084346639e-02
5.699311141914481516e-02
5.668117883520054634e-02
5.331300925097947480e-02
2.935588696584277152e-02
1.112375950804226910e-01
2.760435688595344259e-02
1.400985772056572917e-02
3.480097386692291433e-02
4.970724796439322107e-02
8.161916225211687803e-03
2.494160699263413619e-02
4.598313670089423932e-02
2.652483190876894770e-02
4.319194531500349099e-02
1.988578311716481320e-02
5.619519341663626461e-02
2.127204867992012888e-02
7.042484115266255118e-02
1.795610201449415744e-03
6.736335823138853152e-02
-2.830605891233850535e-03
7.674496464011310026e-02
7.718731807644246823e-02
4.842663317288905395e-02
3.703036097891707068e-02
5.144529106498395288e-02
2.386839017718449252e-02
7.545176697595802617e-02
9.521980902909148170e-02
4.309283777027156370e-02
5.421821822405745173e-02
1.697776370060041090e-02
9.200796874542734038e-02
5.439255288049572173e-02
8.163692417572859794e-02
7.989160006237680522e-02
6.989421266477754968e-02
9.807879944640274239e-02
1.221639728253594709e-01
7.374195010122917837e-02
1.177343016143522630e-01
8.683135563324242967e-02
1.767338759696143735e-01
7.639438119708555353e-02
1.497721503066196114e-01
1.021186098807386200e-01
1.259836166398423385e-01
1.614246189023488820e-01
1.132359484962389973e-01
1.944555316983549997e-01
1.516555908915793172e-01
1.397481718848407328e-01
1.349366345905035902e-01
1.972499555898013512e-01
1.944757879410519419e-01
2.227641675784927666e-01
2.040225486369776631e-01
1.533976626322390013e-01
1.849335476995246919e-01
2.468300211754838047e-01
1.964174135847992220e-01
2.127380924707238385e-01
2.025487796398283413e-01
1.875401190930742201e-01
1.826537424507188589e-01
1.937939045126490789e-01
2.190403101881004955e-01
1.767879686736156530e-01
2.067984485059786437e-01
1.686994364509454281e-01
1.429385207943880409e-01
1.562787490710934313e-01
1.395833631828039822e-01
1.345994110379914177e-01
1.489278408309340218e-01
1.807246576294856411e-01
1.417275805557447477e-01
1.265374465303946150e-01
1.478068979813299544e-01
1.680889026092831917e-01
1.772862188991297105e-01
1.864156227501087559e-01
2.253831854248189714e-01
2.342830816289837581e-01
2.850862050282158000e-01
3.456674396427465434e-01
4.955858698411472196e-01
5.616532375564299295e-01
6.177260606106236285e-01
7.550748728731787596e-01
8.123412324276576557e-01
8.735944514219592394e-01
1.084446650916621957e+00
1.141741116959570146e+00
1.230623849987216634e+00
1.325175133762218405e+00
1.439375170396462567e+00
1.431488654067165855e+00
1.518861805289535294e+00
1.441401156819351215e+00
1.371140127424874677e+00
1.411037936614359278e+00
1.261242874077570963e+00
1.202682603199170197e+00
1.065411326086871613e+00
9.801822078610208377e-01
8.616606394761644472e-01
7.763069171670127222e-01
6.766260480905458286e-01
5.682642974941262137e-01
4.720844195180083913e-01
3.960568957834333381e-01
3.428665598834675921e-01
3.060493944527168941e-01
2.711842798098154095e-01
2.135655715457309145e-01
1.570032856017423151e-01
1.327273139063501750e-01
9.487720888570741473e-02
1.549600511765862332e-01
1.827768841512169562e-01
5.662319313725873438e-02
1.357642921517888124e-01
1.381754881236308408e-01
1.143710085839625412e-01
1.438676238216906600e-01
1.074874089188039283e-01
1.549769375889643863e-01
1.293597620873549459e-01
1.475295374437724238e-01
1.727578633945025810e-01
2.180343161889667369e-01
1.992693207756199569e-01
1.153502205893689736e-01
1.575202433164256677e-01
1.626610978470901525e-01
1.551605142736181553e-01
1.658508748757205054e-01
2.482496062910751755e-01
2.102049009953686487e-01
2.383084017414901778e-01
2.564087047815146736e-01
2.446654413550644891e-01
1.970471922113678220e-01
2.339223628862073801e-01
2.324114333331539495e-01
2.250571970892361884e-01
2.946178314867569648e-01
2.737507564841856200e-01
2.044456198169409267e-01
2.465520587308816236e-01
2.711392662343233839e-01
2.459709322512429186e-01
3.246112544112690346e-01
2.823631391375460709e-01
2.062808509293822534e-01
3.892237568934210357e-01
2.863409091129734962e-01
3.279587223281444919e-01
2.986878457527274433e-01
2.833469077148906834e-01
2.896820588363319127e-01
3.289379234406487607e-01
3.090042290819181581e-01
2.566182178075941955e-01
3.286287270358511092e-01
2.871616057968998104e-01
2.835992016244212044e-01
2.969015776011325602e-01
3.593115515778771973e-01
2.788163821439001988e-01
2.736170291370341179e-01
2.599402223310529059e-01
2.650417532553066002e-01
2.746852569925635756e-01
2.712476677977417872e-01
2.489470687880326327e-01
2.593205305819117901e-01
2.287705846540765697e-01
2.079950633860297993e-01
2.473407213344176458e-01
2.151171448636403083e-01
1.963521897552480133e-01
1.671580521201323499e-01
2.034195474052121755e-01
1.881846515248210838e-01
1.351974976187011457e-01
1.179120183735411498e-01
1.884545421019576950e-01
1.543222728616117090e-01
1.775346190825502768e-01
1.658355036143605299e-01
9.920659212409960181e-02
5.340542395521176433e-02
1.352941912979767625e-01
1.057225536831623985e-01
1.341290114113760645e-01
1.595650650653901992e-01
9.821999789513721768e-02
6.566953861617677579e-02
7.858914598093488801e-02
1.088454004239422235e-01
1.493359535387351333e-01
6.025237458543812596e-02
7.834861978684860839e-02
6.143830466897769182e-02
6.793233846034703316e-02
1.103843868845190146e-01
3.933268654154579991e-02
9.309807569201591915e-02
6.444888728868933270e-02
4.285533610751002254e-02
1.078928991486169664e-01
4.162191789896330096e-02
9.180743184011169733e-02
3.758330798277454560e-02
8.906288691047725692e-02
5.134387518635034203e-02
8.213647101789049720e-02
2.845683883166012784e-02
8.538092536469733818e-03
9.064491010219939693e-02
3.986976665020273980e-02
2.092947581323724091e-02
1.168419208045541197e-01
1.672476783837082911e-02
-5.582106565383611330e-03
5.427913353779187378e-02
5.289624574492587245e-02
7.742993242096266049e-02
8.274616831307167464e-02
3.884263497842137258e-02
5.986916203023179284e-02
5.233881090467052549e-02
1.008316759912869509e-02
5.313390997358449080e-02
8.975441807779507841e-02
7.259930858130864140e-02
2.934477476583927102e-02
5.529767266486435712e-02
7.000760487392634901e-02
1.047905523009773354e-02
4.902003421597189714e-02
3.412940210154223608e-03
-8.230096221980946758e-03
2.169884535401799333e-02
-1.608898045017932016e-02
3.791350082155457712e-02
4.145612121835057923e-02
2.578189463620656277e-02
7.284363755518881434e-02
5.900526650643507509e-02
5.199057461329962410e-02
4.866865624420316228e-02
8.371157938202498927e-03
5.349354937294592549e-02
1.954857177396669698e-02
5.828724446142852234e-03
3.811695903698705812e-02
-3.464658379277792133e-03
6.937717225121542430e-03
7.389950861731289788e-02
5.875330763417400959e-02
2.644312580718776243e-02
8.360132740875592106e-02
7.264868362720276751e-02
2.587933793773426749e-02
5.621073912530641370e-02
9.440368458734067769e-02
1.042798778199822002e-01
1.069615165437615700e-01
8.866671623926314361e-02
1.249736933976802467e-01
1.022229821760582968e-01
1.440688184617680001e-01
1.632871923060174035e-01
1.248373865852481501e-01
1.777325190943463695e-01
1.348157985541985904e-01
1.097860679977955556e-01
2.046572218603540383e-01
1.615868886942161686e-01
1.589770805293638789e-01
2.003217811892419320e-01
2.079270944506330099e-01
1.650759440331965866e-01
1.665440078089908960e-01
1.215427166673791748e-01
2.092158121387839576e-01
1.999907231185620304e-01
1.883062244905767679e-01
1.515715164984611230e-01
2.450258887940736097e-01
2.159008251751425855e-01
1.931640735525766428e-01
1.521860408534433939e-01
2.169844258217059618e-01
1.762874206371489172e-01
1.347093220677227088e-01
1.702312229353440953e-01
1.523206728398411869e-01
1.550219719564364107e-01
1.772160085025063225e-01
2.268398138879149650e-01
1.285193255762293041e-01
1.359918908051808428e-01
1.650681043197856079e-01
1.640215256790861775e-01
1.651196398747786509e-01
1.887792778000640659e-01
1.119455965871963554e-01
1.716059442600517126e-01
1.610157991528925192e-01
1.719812376591008940e-01
2.588438199003908480e-01
2.591719495649240645e-01
3.169637450381718180e-01
4.024817913014711590e-01
4.378206066351125747e-01
6.149992377609397876e-01
6.700332819789894812e-01
7.459267463765407724e-01
8.583657952052535789e-01
1.002417004870560291e+00
1.050854891417515757e+00
1.139085236121695877e+00
1.278006101060529698e+00
1.365656072466396864e+00
1.398047130224587375e+00
1.394594032343663192e+00
1.504071705566469186e+00
1.387360451178757836e+00
1.363325095856913638e+00
1.319281357185995596e+00
1.218059819352749429e+00
1.161468440133221147e+00
1.066075783849536274e+00
9.101706399136159087e-01
7.333487669075564597e-01
7.019124419538949056e-01
6.315373804750860076e-01
5.192404824096531479e-01
4.373382875418398430e-01
3.271085933317490757e-01
3.180259573995773414e-01
2.344446243667954732e-01
2.050525993801594060e-01
1.895087862778066234e-01
1.474632701011877600e-01
1.358635655397923414e-01
9.057353042348566252e-02
8.001853693321914207e-02
8.574244013344020643e-02
1.172121734436779306e-01
2.704857216042447221e-02
7.598078960243194457e-02
5.457777664066298939e-02
1.093316894151974555e-01
6.166511804626686327e-02
7.312056363045599250e-02
8.780612915452248868e-02
1.192448633783150247e-01
1.400280533752159828e-01
1.103972686130643421e-01
1.296495503930156223e-01
1.810504095230935084e-01
1.334242420222033210e-01
1.692269235117630499e-01
2.170349999766536531e-01
1.746468542198558738e-01
1.921355270163821738e-01
2.182592353108336880e-01
2.717901121979637846e-01
2.333673888371816940e-01
2.683335414684313580e-01
1.724656587216061299e-01
2.481057773680372947e-01
2.327693060355610077e-01
2.614870511071504255e-01
2.646830334310670274e-01
2.429581081816821753e-01
2.256999288173473506e-01
2.117176188005003845e-01
2.522558791524712740e-01
2.145342108998177233e-01
2.589987326193224360e-01
2.918239495930601279e-01
2.472352391758759760e-01
2.244496476292784926e-01
2.992805546061779731e-01
2.295640031121832236e-01
2.520554787530268070e-01
2.496579919889281018e-01
2.674120335488762157e-01
2.651615744884310844e-01
2.728796636530623765e-01
2.561512403252245718e-01
2.342531697297733362e-01
2.710424428227024563e-01
1.994664415047075756e-01
3.041187013161394392e-01
2.538075253615939553e-01
2.606154841263918498e-01
3.195682484544030144e-01
2.331896858327152933e-01
2.134777170764148024e-01
2.261075002033336723e-01
2.433698820087222825e-01
2.052700407930703186e-01
1.776297513255762073e-01
1.848519994635111630e-01
1.863341189912290641e-01
1.775422266212020039e-01
1.516335772792083425e-01
1.644141697504917232e-01
1.345098260888433761e-01
1.867256258632129240e-01
1.657244935692126775e-01
2.239977861110800939e-01
1.183131416437707001e-01
9.716526563110267078e-02
1.215921785373258457e-01
1.276821761036869562e-01
7.606524110179917197e-02
1.210247438736719583e-01
6.480520919038432193e-02
9.749385038986485563e-02
7.810902034131686489e-02
1.343034688387202413e-01
6.151768878012188468e-02
7.546944298818150654e-02
1.449888027438528404e-02
4.094397713833228952e-02
5.325689902363744260e-02
7.311445796541594933e-02
3.912606522773487416e-02
7.005184309975431844e-02
5.720422115594800405e-03
4.073001722764525018e-02
2.496143245592134102e-02
3.546220644152755369e-02
2.524491068644269670e-02
5.240671032063311252e-02
-6.006887845245435960e-03
-1.442019621325226625e-02
-1.820143338365355461e-03
1.579034809058611332e-03
4.022419551795530877e-04
6.562777654325380183e-02
-1.286622463037918407e-03
7.581595425659222454e-02
1.349478531470893049e-04
2.792561888101508655e-02
1.036757849041603299e-02
-1.789925103226749220e-02
-1.066666422220802386e-02
3.066906313048996247e-02
-5.556214456998125051e-02
-2.448380002223099743e-03
-4.185826428036941438e-02
2.781325994622100770e-02
-5.069878553158853329e-02
-4.958536300912193273e-02
-5.822547259211260061e-03
-1.555662924055599937e-02
1.122854849571626457e-02
-1.380301886520348548e-02
-6.374084105764064867e-02
-9.962624414869462874e-02
-1.403997700310466792e-02
6.700349226401342007e-02
-5.207823728830281163e-02
6.212052466212054924e-02
-1.621558610821706437e-02
-2.439923848005561696e-02
2.702555863774431903e-03
6.105366241167645841e-03
-1.744309737460857448e-02
-2.980107497594795124e-02
-7.541996458308061237e-03
-2.271785291394844836e-02
-1.709417868193823659e-03
-2.752523624516881040e-02
3.043099274152138295e-02
-3.538918562036914850e-02
-5.131918216832461604e-02
1.666384665338360715e-02
3.459293717252229228e-02
-4.780976740326726288e-03
-2.006795421927187739e-02
-2.351108554310654686e-02
-2.134944232919062240e-02
2.500676848871056374e-02
4.779954340441437688e-02
1.286307122088669111e-02
-1.280852341857227975e-02
-1.067203978126025563e-02
-1.061262556189403877e-03
2.132240601297286098e-02
1.139451368843216739e-02
1.462536544862638732e-02
1.704437332684140272e-03
-2.285106968855867351e-03
6.783981311680090109e-02
4.108517629194999299e-02
5.329859699988444277e-02
1.043951810808282366e-01
-6.708827619972069015e-03
5.088741597265249855e-02
5.183202519271257885e-02
9.197531245844388359e-02
3.420152403256949275e-02
1.462673936906515315e-01
4.987903343324942562e-02
1.128794142239771814e-01
8.204185195819069243e-02
1.559903287784724646e-01
1.338666926597034124e-01
9.329605735170194702e-02
1.234657135212913759e-01
1.684101494835263113e-01
1.277468075927954971e-01
7.505746288308853820e-02
1.509016155868402875e-01
1.697213443446756731e-01
9.572729665175995495e-02
1.244483644046681242e-01
9.782133439694776222e-02
9.112619719525653916e-02
1.093880565043261754e-01
4.873360882023623775e-02
9.880227098955235432e-02
9.278577787571100355e-02
5.613254645967880735e-02
1.125196332194901422e-01
1.383285616598618484e-01
1.551220040437674419e-01
9.503309011246235949e-02
4.405784636472356158e-02
1.033257915504317420e-01
1.122020385060140679e-01
7.516669856192298438e-02
1.289965967843315076e-01
8.300765944247374961e-02
1.156501447775100389e-01
1.235174187816590607e-01
1.890825822823386793e-01
2.568600238364355803e-01
2.914461621595738072e-01
3.996379375354962571e-01
4.374055480443996280e-01
6.169166376332044788e-01
6.788914314358938107e-01
7.580276899206155328e-01
8.759646643889787976e-01
1.052036722661728652e+00
1.073459710806125234e+00
1.180303700428966041e+00
1.241844593792534868e+00
1.286038276369060762e+00
1.337543795757941245e+00
1.370388772315666248e+00
1.371612942063703766e+00
1.352783052260752239e+00
1.324996951340209339e+00
1.255564226482967838e+00
1.205837290771843540e+00
9.861754140851921591e-01
9.357577002735593119e-01
8.516871472700919821e-01
6.892864318509857036e-01
5.840106664391954139e-01
5.474212090035806000e-01
4.616306937046214531e-01
3.287563591621356363e-01
2.577287156608034646e-01
2.210684277824052080e-01
1.222464212357159130e-01
1.308499493137546543e-01
3.523053831189652818e-02
3.390741169081234324e-02
2.595878865822647680e-02
6.245238920771750690e-02
3.680901425770830016e-02
3.822535391763857981e-02
4.118551386630562444e-02
6.309892107109844883e-02
4.590987990904887156e-02
7.069228997171864148e-02
6.422777065842191768e-02
6.188973600521764651e-03
7.704662416605947972e-02
3.798104042410162251e-03
6.725046498631119529e-02
3.426968274349209004e-02
7.946285181935854036e-02
5.541432937403522468e-02
7.732056430932890412e-02
9.951380860757941260e-02
1.171718979059140353e-01
1.025492324068091321e-01
1.284578643391658115e-01
1.785197172834334101e-01
9.536186555659245667e-02
1.174785081188121916e-01
1.673234176896708225e-01
1.476643147855289384e-01
2.032779962478220015e-01
1.553772313100905966e-01
1.437226887459724101e-01
1.452220595087391208e-01
2.083311485553834275e-01
2.000721356094374015e-01
1.409595819367341907e-01
1.777912662348476724e-01
2.031419960265127833e-01
1.959516021162167332e-01
2.252797748353586593e-01
1.412847863519468561e-01
1.945378777872222853e-01
1.545736902018377545e-01
2.275969932034214438e-01
2.441537133363974599e-01
2.018835238822531686e-01
1.824392145575752244e-01
2.113163117652090972e-01
2.453525662383373995e-01
1.989273288821232222e-01
1.843264422557128190e-01
2.208310608168322642e-01
2.215890908488316324e-01
1.836244659779101007e-01
2.279339192360547162e-01
1.852323019558937967e-01
1.217123697829494977e-01
1.638872103668725100e-01
1.555822084039515940e-01
1.308183385684405509e-01
1.830048813140171815e-01
1.211604995701002219e-01
1.520656875607027669e-01
6.012856026203970000e-02
1.277296889190652207e-01
1.240220708223321450e-01
1.424082297800573493e-01
1.447819687962008106e-01
8.861896325802444407e-02
1.363013201238691130e-01
5.627483045536979533e-02
9.162249608796577127e-02
1.115265227951886678e-01
7.006626716862321413e-02
4.314428014170835352e-02
4.367916450353415136e-02
9.038933132930210279e-02
5.603327961694876125e-02
4.845756128685514003e-02
5.158598011808537831e-02
4.748566731618453218e-02
2.735289331779661159e-03
1.076220933456020767e-02
2.439953696427354934e-02
4.024115990258520653e-02
2.704568482934686935e-02
-1.740043785539518995e-03
1.203117664786181734e-02
4.106484520534995492e-02
-3.432986816755626003e-02
5.331369471700864171e-02
2.459103452887885510e-02
-5.522828039102894992e-02
-3.650754687934472387e-02
-3.415451990026535656e-02
-3.442526602406605074e-03
-5.890214145157122994e-02
3.557813076402525920e-02
-1.613343499892860855e-02
-6.200052127005017955e-02
-4.962613837281115020e-02
-9.769012137043092681e-03
2.180059064078587738e-04
-8.464121383226788642e-02
3.605803095746629161e-02
-9.901911719392547662e-02
-8.411844565665413387e-02
-1.341626511099727748e-02
-4.289830143325727013e-02
-3.732805743212008753e-02
-3.968432479115261563e-02
-8.480466100058361989e-02
-6.037716210081791463e-02
-3.004052485820252888e-02
-6.399696061263249192e-02
-7.124115500388220057e-02
-9.866028379135263759e-03
-4.804938118318064638e-02
-4.241390368347264239e-02
-8.006613513671817506e-02
2.381829361770002040e-02
-2.091131347029374227e-02
-8.012205961315575775e-02
-4.846941288661146124e-02
-6.354505054844682144e-02
-4.523507948382177180e-02
-6.987588830737745393e-03
-3.304189172062921981e-02
1.047671881985950959e-02
-6.850729450150103150e-02
-2.852059427669430269e-02
-1.025129562032477820e-01
-2.941529229767996662e-02
-1.170455633050611621e-01
-9.851184233617038544e-02
-4.011881666943849234e-03
-8.069844760399236261e-03
-5.820399869672569781e-02
-4.980699866373606427e-02
-3.889138330717889502e-02
-5.471255602136915197e-02
-5.874179409371673571e-02
-3.738436765905675530e-02
-4.836651000906504183e-02
-4.210821947392015541e-02
1.591048682897823474e-02
-2.689281105221867987e-02
-4.912665302212419760e-02
-5.296950638887556323e-02
-2.580431915651511601e-02
1.513012140772745928e-02
-3.047523771268226961e-02
-1.452901644294184863e-02
7.920360759875913481e-03
-3.717397769925958467e-02
-3.307139210088434755e-02
-2.679454018751140781e-02
2.621153508557558243e-02
3.617808825290131508e-02
2.291671481669702026e-02
-7.116508305682126001e-04
4.040404314533739549e-02
3.418958853731966785e-02
6.454504145596959286e-02
8.484178235075789942e-02
4.507706414554812913e-02
6.899676830296778973e-02
8.759126560904006986e-02
6.646226946730691976e-02
6.470297334629113162e-02
1.393733554590383394e-01
7.594763881934347982e-02
6.205191112255704217e-02
1.187879271490653588e-01
7.046875478693835626e-02
1.159193158155231995e-01
1.033288569629685488e-01
1.303934042591048115e-01
1.170954976644957568e-01
7.907045270396603764e-02
9.590823536654113912e-02
1.124241302758483552e-01
1.447320187103045830e-01
4.743494345980960036e-02
1.266572828012853813e-01
1.077172330528333444e-01
1.170095051605945929e-01
6.697892141512643005e-02
2.115913286391725434e-02
8.872634164261641865e-02
1.154204718692897202e-01
8.042274416038472373e-02
5.732195710895088281e-04
5.512998072496319568e-02
5.459457202988914765e-02
7.699815626593570217e-02
7.212790457402071254e-02
9.263902515901992207e-02
1.204803812794340290e-01
1.326596775286442709e-01
1.417431595398359612e-01
2.297208492112985667e-01
3.257223578958280963e-01
3.643493458935316287e-01
4.835934544515746447e-01
5.560294254491547905e-01
6.833880392951567906e-01
7.535860818842927689e-01
9.340016491833703638e-01
9.752647899405220144e-01
1.101823012195365603e+00
1.174734396419088167e+00
1.250146871111656566e+00
1.282915241398480788e+00
1.298160614914873445e+00
1.401405865589919530e+00
1.337444336135509948e+00
1.235137315077552422e+00
1.220815747370292970e+00
1.133302036625650544e+00
1.109482178581286727e+00
9.818177373778532724e-01
8.413076467590248075e-01
7.786459539146488584e-01
6.432109554381599814e-01
5.601759926514080501e-01
4.491433594577554089e-01
3.793060874439204699e-01
2.968006262458044997e-01
1.857521910672711163e-01
1.748173065483497324e-01
1.257628546580293327e-01
1.232604231271976492e-01
3.198834901637957057e-02
5.433146755995888616e-02
5.194213037708811376e-02
3.584982712375175962e-02
3.998193103892268979e-02
9.762382660471607965e-03
-4.472024033036017115e-02
6.086356358778488573e-02
-3.126304523733158119e-02
-1.804322204558205661e-02
8.716915225033136649e-03
4.739901545643719627e-02
7.238968920214342018e-02
6.872622093765073936e-02
1.450911837117230263e-02
4.685724655626100771e-02
4.082781100604698787e-02
9.797927172522373496e-02
1.054636054143397728e-01
3.143918370952072938e-02
9.428118796794185408e-02
9.694470738290469902e-02
6.791600808911152365e-02
1.369111463680929841e-01
1.199654170977936946e-01
1.350224757201953230e-01
1.513682524590603262e-01
1.785595576962773767e-01
1.478512344407285350e-01
1.555145893519473688e-01
1.514791974859736878e-01
1.243338868352462101e-01
1.347900976244328919e-01
1.500663684463660330e-01
1.522784932962612525e-01
1.464324159369164713e-01
2.290869441769973203e-01
1.893265751069979075e-01
1.831553205108170934e-01
1.875936713812043077e-01
2.199435102364024619e-01
2.020390299910416188e-01
2.495081544190336786e-01
1.659226502696837247e-01
2.508791602843886692e-01
1.711440824104526470e-01
1.920587385436585970e-01
2.075157673348060616e-01
1.995589457487277896e-01
2.365180664707694780e-01
2.108855843185176160e-01
1.601086561721402068e-01
1.393990201801666440e-01
2.299617560511946490e-01
2.179156881671142076e-01
1.387681761402260738e-01
1.547245260454637172e-01
1.868255798909687904e-01
1.391994055163331412e-01
1.432968473901619910e-01
1.564787295149905055e-01
1.151071335858140920e-01
1.674258009254455948e-01
1.993670406423964647e-01
1.230998413812393888e-01
7.090391591024872153e-02
1.354039125002980681e-01
9.484036292084033204e-02
5.752646602366529721e-02
4.779866313645749626e-02
1.193620394911910354e-01
7.004584686993678422e-02
7.561262715742855800e-02
6.419785739736616481e-02
7.765696824767810702e-02
4.555403224038218069e-02
3.018941445121245404e-02
4.334230744075857900e-02
1.861191415953044465e-02
9.030212685676650142e-02
5.693441309412280993e-02
6.439533254533558182e-02
1.374961194845029933e-02
2.389292837640712153e-02
3.633113288623498333e-02
4.088943218560325832e-02
-2.671178816342711232e-02
2.804673479545521930e-02
-1.574460923531167955e-04
9.488547916391044945e-02
-2.242512149695530255e-02
2.021011752482566870e-02
-4.716760034898176412e-02
-9.688951228701218887e-03
-3.904724934159178873e-02
5.212891264423299975e-02
4.352440353830117070e-03
-4.873276683138494381e-02
-4.817072918436138274e-03
-1.270758454153674347e-02
-7.596801903906800352e-03
-4.441145000835949874e-02
-6.613849159170562264e-02
-5.022159199792072815e-02
-8.008413224101054717e-02
-2.128534429379577708e-02
-4.508026881094423510e-02
-5.344246145422154592e-02
-2.944063110679415521e-02
1.987489814915002762e-02
-1.589820623266657851e-02
-5.166020785076252952e-02
-2.639115227974518987e-02
-3.462690716168786292e-02
-4.070591346637648933e-02
-1.321613660101854382e-02
-2.740765931853205925e-02
-3.393677937413999701e-02
1.080355101559392350e-02
2.837262414741172079e-03
-5.356482331187091550e-02
-5.882176651829790215e-02
-1.961652084612237890e-02
-2.573795514224357095e-02
-3.239141291910985210e-02
-6.461606446331945308e-02
-4.512786505292788741e-02
-1.001563194138594542e-02
-2.494514458269833299e-02
-1.140203829664762081e-01
-7.405652880537016980e-02
-2.473376389162048120e-02
-4.570143563604590203e-02
2.252322485096393268e-02
-4.333664959598546029e-02
-9.472668271189255140e-03
-3.380515233192381980e-02
-5.560207741961906147e-03
9.584862315171825686e-03
-1.111871732296856527e-02
-9.997113962219642685e-03
-4.006737931226359711e-02
-2.429169682354898746e-02
-1.004314153150630273e-03
1.948005036474340090e-03
-4.124464801993753954e-03
2.884110247341007544e-03
2.848112173280492598e-02
-6.985263540703865598e-03
1.110988025961040168e-02
3.618111276416036137e-03
3.565372151567829107e-02
2.040383151710786422e-02
-4.509644600788467739e-03
3.531310482110143478e-02
5.355741703821312316e-02
2.241621458249028892e-02
6.251918669396681894e-02
5.777719874538794764e-02
8.372666332884852458e-02
3.232397092755406875e-02
1.218978554418844729e-01
5.373990693267541308e-02
6.887933086320040255e-02
6.529052707099183839e-02
7.706889855006127110e-02
6.708973767982859271e-02
5.367960576960724428e-02
1.042315404553747077e-01
1.621660224211870505e-01
1.423051983204595139e-01
1.104724169852066007e-01
1.524660713259204936e-01
1.097297465144826956e-01
9.232048342993331991e-02
1.840867187248765025e-01
1.639838663938684438e-01
1.954598237960509521e-01
6.120842889813407628e-02
1.345656402465929269e-01
1.728483134584625214e-01
1.403286264741422373e-01
1.198673853816203116e-01
1.177988018605976850e-01
1.208285774926024098e-01
1.133262886280811954e-01
1.755566062068160960e-01
1.293141344916561020e-01
1.011293377806984639e-01
8.970509203899917905e-02
1.032026795407949282e-01
3.809710506062878588e-02
8.969765185537866004e-02
1.125892290288526137e-01
1.095488965637099465e-01
8.202976692811234094e-02
1.206063286870465573e-01
1.789208093339700878e-01
1.941608225813378219e-01
3.250171486452322900e-01
3.292435275242235337e-01
3.639372451617561843e-01
4.302538187140642623e-01
4.976939170168808713e-01
6.436613412092224706e-01
7.703956907403169962e-01
8.880383854859169590e-01
9.738496799328678621e-01
1.011790398007962555e+00
1.176789810762788768e+00
1.288245568459894352e+00
1.300180727683287962e+00
1.346261143118254289e+00
1.408922752573794623e+00
1.410193640173169394e+00
1.362630449794346221e+00
1.357542902231370974e+00
1.239956222975819422e+00
1.202722748898061855e+00
1.062112223456114668e+00
9.473933412815737087e-01
8.285696304790820532e-01
7.782728531451764686e-01
6.485013363683851395e-01
5.652321389036750743e-01
4.807406674730720364e-01
3.174219936249424445e-01
2.626200037830240808e-01
2.143248867754811438e-01
1.571205828197463905e-01
1.203007797780194371e-01
1.209538198571682155e-01
4.732439314685001758e-02
7.653381468552893085e-02
9.899440926269648111e-02
1.021170440017114406e-01
9.967880858915161013e-02
4.141464872046381196e-02
-1.079718695001666805e-03
5.551662662189818520e-02
1.805310145367940503e-02
5.794787580275052863e-02
9.144035125274452280e-02
5.195064473080859835e-02
1.260769382954984030e-01
1.605359973789678429e-01
1.901044762929807730e-01
6.571551847713914818e-02
1.780287363402563716e-01
1.377144153845281938e-01
1.172176746749808152e-01
1.172564217412365301e-01
1.225131978154657408e-01
1.154258522363223599e-01
1.444609401365287704e-01
1.778357717971212892e-01
1.569245308661059435e-01
1.837488766841339771e-01
2.061691237155407752e-01
1.829246854343111461e-01
1.802976930007412493e-01
2.042988798796556149e-01
2.338915827702946204e-01
2.031579218088702399e-01
2.284255300314261827e-01
2.345287486264196197e-01
2.478498541928431109e-01
2.391747028784224904e-01
2.409486414724757997e-01
2.302657716885842809e-01
2.292243731537466078e-01
2.899098691603546052e-01
2.458274568263118798e-01
2.098618970941195649e-01
2.978615061296661093e-01
2.396696568631494217e-01
2.458096080544881767e-01
2.432142031968204388e-01
2.593321518424437921e-01
2.821362494297241508e-01
2.278148908615709733e-01
2.431135024369699971e-01
2.201795838450987530e-01
2.656127960248169662e-01
2.081534028816275916e-01
2.717479782113312869e-01
2.373249704347845934e-01
2.353242558680796459e-01
2.009019024057008551e-01
2.037277595488886095e-01
2.128265487577624682e-01
2.106986506471463239e-01
2.282795316498049121e-01
2.358648371015211742e-01
2.174598484661532383e-01
1.618442083690234123e-01
2.295158267291844689e-01
1.885430233790807431e-01
1.591238241905003348e-01
1.361607959448196681e-01
1.305509124376381391e-01
1.734594334989072173e-01
1.567689842688992918e-01
1.189320308486931654e-01
1.458809690067419673e-01
1.028171444191871564e-01
1.127720288283840244e-01
1.624960847897193306e-01
7.652961725496194856e-02
1.015700334148813833e-01
1.027235312680569584e-01
7.428921543180035114e-02
1.003635960446102593e-01
2.383609529429649501e-03
7.554335380785900944e-02
8.899519609967526668e-02
4.171225807279244080e-02
8.749466349578290114e-02
3.987334013516447007e-02
6.759903239396093666e-02
2.366591775944376988e-02
2.389405898726247243e-02
2.064769955564547260e-02
8.557581745400465179e-03
1.456310787130669915e-02
6.672401548466169730e-02
5.938889414723342447e-02
-4.552836441295064068e-03
6.487136064436609117e-02
7.612325869441660675e-02
4.249357922918401559e-02
2.414152485166113499e-02
-4.359503845160133534e-03
8.704928240389946115e-02
3.595789184559347249e-03
1.588996577671365762e-02
-3.715922467760103542e-02
5.918692973582058425e-02
5.013671683781806276e-03
-3.559581304850154004e-02
5.269242098627261242e-03
4.235359840967578560e-02
3.019164773650201417e-02
2.460962404253182884e-02
4.160060992186895984e-02
3.084535970109416811e-02
5.559924859829115662e-02
5.272241793913427788e-02
-5.002867073135609799e-04
5.458101119557573488e-02
1.252955779064082037e-02
3.229047959304402055e-02
1.559372618728646284e-02
7.624658367783994362e-02
-1.633901351294677479e-02
3.967391737525832740e-02
3.373491765251452473e-02
2.948650507032564427e-02
-1.323987952303633600e-02
-1.115889192572925431e-02
3.323436939538915169e-02
-7.207109778817756551e-03
8.699205150890530758e-02
3.926373801129562358e-02
5.623323245846684193e-02
-3.877046999741798339e-03
5.374415557153194856e-02
8.376889669855669407e-02
3.871087095389634525e-02
5.574424352442525904e-02
3.534665541537486411e-02
1.549562226343856319e-02
4.000948959750573464e-02
6.621758069837424543e-02
2.557410749755292118e-02
7.974585180290778841e-02
2.984695262395070658e-02
4.550244982667270288e-02
5.781235416246924969e-02
2.102452979130367550e-02
1.053220065779588918e-02
7.262954023345216670e-02
9.036980351989508387e-02
5.324333806032599536e-02
7.978118616737051028e-02
2.723639659522098314e-02
3.916217944042470894e-02
5.293487423421604915e-02
8.560807368159722985e-02
9.092281072336476366e-02
1.191791145612324798e-01
7.956874238664003729e-02
1.849123190357326030e-01
1.220425089599623258e-01
1.430390701879399318e-01
1.994402548797775676e-01
1.318955179350706219e-01
1.084984641942820099e-01
1.117475210917818762e-01
2.188972967390551416e-01
1.457978349599827472e-01
1.457996229090392226e-01
1.765222473998029895e-01
1.877739609084723149e-01
2.337054144203160044e-01
1.745375853532993848e-01
1.990752838666247915e-01
1.720279673122875608e-01
1.952909231326757089e-01
1.928694054556055748e-01
1.863088664560057506e-01
2.414861149731983569e-01
2.252631806537269965e-01
1.431675958027172069e-01
1.661937642190357278e-01
1.408470816373550427e-01
2.139805814265572093e-01
1.322377572197760698e-01
1.937376011137071918e-01
1.938269511022837066e-01
1.116654451942271087e-01
9.479322942172867250e-02
8.387107310588347298e-02
1.732447448732956641e-01
1.669886637806168028e-01
1.681175664362860589e-01
1.997701414724902258e-01
1.599764425783092026e-01
1.972822485886249200e-01
3.067993234451766305e-01
2.883715206839512213e-01
2.718408012479928137e-01
4.130206600043311860e-01
5.097788230249029606e-01
5.159506873280738093e-01
6.766773901829948867e-01
7.389078025107350678e-01
8.322066292099480345e-01
9.408225300446041439e-01
1.074491731361466362e+00
1.142853979967149991e+00
1.249303710679553703e+00
1.366471893834955376e+00
1.407580072431609874e+00
1.451003870330046963e+00
1.425392357068517191e+00
1.428886907524586025e+00
1.418531799490921896e+00
1.350972417829831240e+00
1.292974809317160245e+00
1.179809960467874008e+00
1.035377507682781806e+00
9.759318876850865410e-01
8.127508736140682810e-01
7.394618365219709499e-01
6.814388119995151705e-01
5.320193547672207313e-01
4.256995313092936106e-01
3.854751193176012558e-01
3.345808938442607627e-01
2.429637086400661672e-01
2.258395549827934556e-01
2.060658608005602743e-01
1.077966029113401197e-01
1.475438564942903596e-01
1.253295977962652907e-01
9.444159892552630997e-02
1.345694747417100212e-01
1.669493782660657899e-01
7.960722337811555749e-02
1.354698069768272839e-01
5.240589997331823735e-02
6.666289132049824095e-02
1.304486790329823509e-01
6.154468193702488515e-02
1.229786631206368913e-01
1.264752965946871754e-01
1.744601742171235093e-01
9.607087780444073521e-02
1.493012884266518292e-01
1.568872757135413853e-01
1.372411933454002197e-01
1.556542914445944448e-01
1.793547814812143371e-01
2.442254809186539255e-01
1.698253902438776608e-01
1.909644339484059261e-01
2.643594560773709357e-01
2.212318711805887905e-01
2.143268702537202697e-01
2.729494154072980572e-01
1.962622746689616227e-01
2.663077967340235497e-01
1.821290551614457298e-01
2.104444817065604656e-01
2.768122793333357423e-01
2.374250595356179605e-01
2.570490141373740212e-01
2.491542854963872122e-01
2.830127850854802229e-01
3.401228327327465717e-01
2.267410000926115832e-01
2.620560369046452953e-01
2.940454502514229240e-01
2.703969598661423723e-01
3.048185846028793611e-01
3.245991616609461006e-01
2.754825481972517642e-01
2.624128640644798338e-01
3.324604548819721783e-01
3.155091169391752159e-01
3.123424892814342102e-01
2.963394610614908387e-01
3.270336593392924596e-01
2.652309033305597641e-01
3.018779295743745927e-01
3.194413033093292942e-01
3.019639086795481431e-01
2.990311728451474083e-01
2.471439762850213551e-01
2.670305412976278214e-01
2.050333347788032001e-01
2.367354757834634615e-01
2.494706746253972374e-01
2.525002330919049465e-01
2.539742601650663567e-01
2.393568454147179114e-01
2.186698056180033101e-01
1.727504262162938842e-01
2.032799109992716458e-01
2.003705142114042548e-01
1.245543923300802686e-01
2.371960078918271264e-01
2.289035729626330284e-01
1.692033489404926594e-01
1.782744960449356153e-01
1.852758709529946923e-01
1.907201073017269766e-01
2.120444477791016968e-01
1.905025317268723983e-01
1.496565121751891603e-01
1.251313157614757643e-01
1.602263124385579496e-01
1.308369081289156299e-01
1.139269311208971069e-01
4.444519900941427959e-02
7.604694125386030068e-02
1.545665750403004690e-01
1.100599835337144200e-01
9.124785202581067733e-02
7.207191512923082077e-02
9.297119068758921689e-02
7.158484988178072383e-02
1.054493826191111178e-01
5.622954112166438090e-02
6.162475709847761718e-02
2.653289324354531076e-02
5.379563534241679768e-02
5.284376846425620916e-02
5.404520573930027272e-02
9.779971630698278129e-02
4.571266666489081504e-02
1.089532698047488146e-01
7.310793987340294398e-02
7.289909287996192144e-02
4.426845203561902142e-02
5.030726698375800193e-02
7.762275272317374630e-02
3.530211027506889587e-02
1.122090956283920138e-01
5.753882481790949244e-02
6.378354678768292929e-02
4.673046899208475186e-02
7.552545974571273080e-02
9.532046818245973330e-02
8.897522025962451009e-02
4.593381487437055155e-02
9.105442104805569481e-02
2.104848357162565978e-02
3.461364872745510690e-02
7.072561498594695517e-02
1.050543825095238137e-01
3.028778158180083294e-02
3.701933281090688532e-02
4.404030718095394703e-02
1.053168034712696488e-01
2.655444450198949854e-02
4.837941944906286318e-02
8.317336176581364982e-02
2.442201785845249384e-02
7.187814941588668849e-02
9.869906304233605487e-02
-1.739025605136729213e-02
7.811126560473313774e-02
1.139019296534565240e-01
6.330286201861227979e-02
4.947065691553634292e-02
5.024936030346010413e-02
4.963883028704194067e-03
1.012094203319933994e-01
4.244121707624796958e-02
8.421272431152400373e-02
9.292488573619900327e-02
4.885393036968567471e-02
4.146807975150267056e-02
7.857443409473828522e-02
1.147401135984931209e-01
7.999204418211683376e-02
3.611665900373422361e-02
5.192195195186184720e-02
1.008229589909401952e-01
8.487600464685030044e-02
4.934933312282454437e-02
1.164022655472717466e-01
7.817164934285919520e-02
1.022140870325951023e-01
5.499395879589651093e-02
1.077391376630788405e-01
8.166796046791224839e-02
1.007832826617309219e-01
1.061480111583332220e-01
9.692566347824912998e-02
1.417487278203591605e-01
1.134275770312821174e-01
1.461929850403185238e-01
1.522948316431722016e-01
1.676693314444419880e-01
1.376972883959758087e-01
1.384942148934514006e-01
1.611649286330328334e-01
2.029758960374557775e-01
1.593619490976092290e-01
2.152589853044478974e-01
1.764867319273744628e-01
1.680237470946120693e-01
2.109542927505307364e-01
1.728728940031554473e-01
1.669838250282978387e-01
2.118503939291513927e-01
2.203406888600969449e-01
1.822356794042458428e-01
1.950798879396002661e-01
1.595901927274533949e-01
1.480641271641294221e-01
1.533313287471863573e-01
1.816883042795439940e-01
1.277552598338975443e-01
2.031096560457772982e-01
1.645288970245169791e-01
2.156281791854942620e-01
1.587571684340933764e-01
1.287559503295750418e-01
2.256692177370077934e-01
1.097031202152132789e-01
1.486430177762270710e-01
1.478765602903375775e-01
1.439068000235948774e-01
1.462195924812649261e-01
1.719946733258457816e-01
2.092895571861121962e-01
2.060845697541941191e-01
2.947844487803973901e-01
2.863066781811711703e-01
3.399875248764721580e-01
4.307062855719993588e-01
5.121034719401424962e-01
6.005635937752773490e-01
6.890326332032831180e-01
7.508935410037457236e-01
8.799564569317736007e-01
1.016637497380137534e+00
1.083293170732634758e+00
1.254822159444803464e+00
1.341555955477277795e+00
1.332397532011602381e+00
1.395670083846294762e+00
1.429292752749194984e+00
1.404162771226118434e+00
1.402120623331460258e+00
1.400671802733139071e+00
1.345437080876372926e+00
1.225481352138358071e+00
1.106528282012869235e+00
1.015967888541753572e+00
9.070188103584677641e-01
8.040471101874806514e-01
6.770140127560163590e-01
5.928373961736115305e-01
5.141995699504723349e-01
4.648023730609293080e-01
3.472826434826940534e-01
3.190422135793364866e-01
2.619100013963338580e-01
2.084599232539445235e-01
1.769638180977223529e-01
1.391287935364195483e-01
1.620321111406051728e-01
1.029296481686499815e-01
1.370797778651277055e-01
8.819445041224671655e-02
1.118876647914232025e-01
1.400804969147192713e-01
1.246842196766035360e-01
9.007870583376283158e-02
1.076108409344898181e-01
8.974460386871883910e-02
1.283442358688567375e-01
1.634930515345036639e-01
1.550618240265876635e-01
1.682169430240851860e-01
1.678132132212109551e-01
1.218634762480413636e-01
1.853746970602623556e-01
1.199593068993151657e-01
1.538160983317702346e-01
2.001554305444227522e-01
1.315068877349917509e-01
2.141515348212403302e-01
1.976510066204075211e-01
2.009462081118706667e-01
1.856996437764707741e-01
1.487879462460001134e-01
2.181671520265854869e-01
2.475458296369380529e-01
2.804068395187335749e-01
2.633091084460600362e-01
2.993246144204468329e-01
2.448592209158960142e-01
2.294212831764695093e-01
2.766779670952022041e-01
3.144336516778682422e-01
2.756227968132280992e-01
2.329909664917345358e-01
2.594424539813557362e-01
2.881274280455183856e-01
2.943130801433433419e-01
2.770137822350559054e-01
2.680958730767280529e-01
2.593286008512892815e-01
2.735226024578811810e-01
2.838602414396442231e-01
2.916663630414623176e-01
2.523724807079772425e-01
2.972391344476919550e-01
2.477330000369276919e-01
2.500544809218107623e-01
2.581282532093036597e-01
2.853695477314893703e-01
3.111543399447659897e-01
2.302870394089951978e-01
2.819702219394367715e-01
2.221741743940645053e-01
2.760740522429340205e-01
2.368109271936739701e-01
1.952273704518277808e-01
2.640020230651294320e-01
2.003183256707057880e-01
1.917430288168434915e-01
2.150980739609173464e-01
1.814935797305398113e-01
1.852559323269040714e-01
1.767207235590097791e-01
2.181234159474048639e-01
1.198159851942946497e-01
1.338871405216084942e-01
1.711050685692594442e-01
1.696829447784538591e-01
1.479779419968388632e-01
8.883958461729110634e-02
1.271651763359675780e-01
8.007371021496004215e-02
1.829361025113309114e-01
1.249062823110092257e-01
8.870348112255958817e-02
1.574951597918253232e-01
1.474776370461869102e-01
1.277067647278014584e-01
1.217548516883828202e-01
6.780267805885500931e-02
1.052979902300114623e-01
5.537717941484694706e-02
1.002274163278829289e-01
7.641281035835935376e-02
1.017812051778552995e-01
7.295514463872347644e-02
6.743422674304623554e-02
2.764625310694685326e-02
4.039986010578380804e-03
1.575794389891974762e-02
-3.778686670811844117e-02
4.138923045410910356e-02
4.535477463960086580e-02
4.685340770246061021e-03
8.235755556899850005e-02
6.817109184215509876e-02
3.832591911080646119e-02
5.148417626879699810e-02
2.711811447555627017e-02
5.508287044869455279e-02
2.000599371570103632e-02
5.223007988333139284e-02
5.239018828300315289e-03
8.656463887874935037e-02
1.729632342171268100e-02
-1.500061836297843926e-02
-1.448191239576604450e-02
3.794794774427426298e-02
3.166556602328547687e-02
-8.434299289221090790e-03
4.596390423045389195e-02
2.679761905597093791e-02
4.309387615982067377e-02
-2.981820761174917844e-04
1.279156672391890646e-02
4.137551462915430023e-02
7.943989946487696463e-02
-7.919897055391818264e-03
8.860675878249230433e-03
-5.226307955772024894e-02
2.965934495107428945e-02
-3.804945406134567498e-02
-9.279302037299277939e-03
1.488290235203386380e-02
-7.043498831262429150e-03
3.450776561718525703e-02
4.377449238834886514e-02
8.439016671137722359e-03
-3.397501241242687972e-03
-3.133002183140722735e-02
1.008651764032307552e-02
-6.044157793711688043e-03
-8.087497109651922006e-04
4.329981164973071422e-02
-5.885840918501571498e-03
-4.116370711225829371e-02
-1.048308837587344153e-02
-9.764258176876094986e-03
-4.814817412989175205e-02
7.696569515829188024e-02
-1.651466843839571180e-02
5.192673595205125718e-03
2.887648881180100713e-02
4.897671782274772012e-02
2.602529552471973678e-02
5.119616489831130962e-02
-2.712407413068352452e-02
-1.090787176152056143e-02
2.706815728394252468e-02
-7.977582381794698710e-03
-2.221194315630822466e-02
-1.519545650026340143e-02
-1.327265783207373651e-02
-1.946545514836823393e-02
-1.084708920035001509e-03
-4.390081048297125171e-02
-3.417603936196297876e-02
1.422765022138241207e-02
-1.299105087345630606e-02
1.115077489589325586e-03
-1.725012613808670284e-02
3.466337003958471635e-02
