1.344934419624200128e+00
1.336754847647795286e+00
1.295439831170955403e+00
1.290979126452191039e+00
1.165884374957181668e+00
1.008712115211062299e+00
1.022522320172937649e+00
9.067879564137046877e-01
7.495164396057184542e-01
6.496713239802598405e-01
5.950142696724498581e-01
5.559441878808299986e-01
4.093443412183249697e-01
2.998434646629407618e-01
2.799117639065206165e-01
1.885701488474446075e-01
1.455405524670009276e-01
1.314169797264252981e-01
1.363006089851420133e-01
1.250650333713888007e-01
4.122818575414722436e-02
5.429545778114545918e-02
1.869692585113896452e-02
9.887214279036866948e-02
7.800553468129241275e-02
7.970471758007351137e-02
7.106832105360347263e-02
8.213868522804375349e-02
8.699649441862261634e-02
9.332642903691201752e-02
6.290711104661762809e-02
1.199875305258302216e-01
1.356276698657816748e-01
1.121502820067059453e-01
1.038620626213003356e-01
1.738522663376174116e-01
1.451178955403247539e-01
8.076022089940403104e-02
1.554555686483167776e-01
1.764672708515107602e-01
1.436624245411369516e-01
1.164443351103573443e-01
1.988589276047566801e-01
1.771979897949534088e-01
2.114152646574634919e-01
1.873490636559011213e-01
1.358335457255334389e-01
2.146805297379499322e-01
2.190145179403430731e-01
1.748610220094282131e-01
2.848562653667873756e-01
1.862267670233527517e-01
1.965577269401388716e-01
2.696775874983044496e-01
1.863054080700498882e-01
2.270137217016884312e-01
2.123279722568762462e-01
2.350027776363119714e-01
2.077059550322263581e-01
2.995311022292584391e-01
2.136714592296820592e-01
2.635715742309793219e-01
1.982691810231554108e-01
2.359968928583751624e-01
2.805683571114886976e-01
2.438788992622881457e-01
2.775118915343782189e-01
2.297318071375084314e-01
2.525748008252017840e-01
2.357361612557824226e-01
1.971953875920852972e-01
2.572105414815071267e-01
1.933086570500428814e-01
2.272485220334757305e-01
2.029634509098102169e-01
2.122407017586038502e-01
1.982492494286360873e-01
2.532068384543498252e-01
2.064552588704799685e-01
1.676032828031112643e-01
1.659593891977625413e-01
1.653669965694771760e-01
1.462874051211897897e-01
1.133815304290649584e-01
2.065188441910472961e-01
1.656237621907180602e-01
1.109505527909545458e-01
1.300930629246907777e-01
1.547325608477156667e-01
9.686441092894795823e-02
4.915937053427403558e-02
7.175948393175150819e-02
5.475444756810904368e-02
8.221828218599530613e-02
3.856725810912831065e-02
9.714836000787563375e-02
7.167671398819636108e-02
8.068171416856324829e-02
7.280095543578307682e-02
1.688934899064545650e-02
-2.215783872860382572e-02
6.521358332087109910e-02
1.419357959796301374e-02
5.204900390676145405e-02
2.314745847146106039e-02
2.917344997169499590e-02
4.779422283583198428e-02
-7.385358529689977497e-03
-9.041159566148909005e-03
5.016156964264321949e-02
3.478887434163951964e-02
1.673493762522038422e-02
-3.871110211820615737e-02
-6.894753033312715426e-03
-3.388510846390908188e-02
-2.374097999079482005e-02
-3.103626855510587673e-02
-3.989055386033185657e-02
-1.041411999990602202e-02
-3.802775979205821888e-02
-2.687313897218762682e-02
-3.941353289557748829e-02
2.411061447611465014e-02
-9.176173705442748629e-03
-2.170859268791628521e-03
-2.213975231948219630e-02
-1.995441985442537175e-02
-1.268819125823802615e-02
2.502707948087562126e-02
1.201399406922335281e-02
-1.861185542773128102e-02
-5.045554690999198844e-02
-2.458102802114895541e-03
-3.754227884087692202e-02
-3.699849116221765738e-02
-2.980141754286866687e-02
-2.019710043252467488e-02
4.199460939074268345e-03
-5.500184973515166026e-02
-9.326073480518087822e-03
-3.506632402462932924e-02
6.532005604981730440e-02
-3.062983649189850166e-02
5.352192102195941353e-03
2.510632668519542990e-02
-5.755811786795740626e-02
-2.815616841165993756e-02
-1.282463415556620544e-02
-5.477153449889880787e-02
-4.046791537413526457e-02
-3.716146427802397706e-02
-4.912688394158967742e-03
1.976763543800560269e-02
-3.488481103517605125e-02
-5.814586460929353773e-02
3.547825870797698816e-02
-1.281895158589611144e-02
-6.338304285200001970e-03
-8.058903055767469015e-02
-7.888320478472099495e-02
-4.160573653887045947e-02
-1.338009982794566635e-02
-3.025037552324223028e-02
-4.978347757828097131e-02
-6.486778183494118499e-02
-6.163959615408495102e-03
-1.630162649174134865e-02
-5.123307706115011462e-02
-3.454827995081462960e-02
-5.711375683305346118e-02
-5.799692873105187496e-02
-2.646846307359087408e-02
2.823473559958970119e-02
-2.368655483858570637e-02
-1.529012650827024297e-02
-4.081220604005869612e-02
-3.975758669580854027e-02
-1.470033613342741630e-02
-2.557205206416268695e-02
-1.635877310534801163e-02
-6.764224350725901724e-02
-3.560332121751568629e-02
-3.195239659724654485e-02
-1.334512591088980044e-02
-1.964244362284846279e-02
-5.106101992585930505e-02
4.949852813491785464e-03
1.270334976044878994e-02
-4.411227425296998517e-02
-5.491389897960858441e-02
-4.467986676949464719e-02
-4.218374652699537208e-02
-2.047857072979959031e-02
1.364643519348986839e-02
-1.818780743427646229e-02
2.343926541970505623e-02
4.036530700036415620e-02
2.465797070469597646e-02
2.704571956495156054e-02
2.850142614570912863e-02
7.893357252159310944e-03
-2.231875309401930296e-02
4.974719387828996364e-02
4.613200285186146860e-02
-1.649644825702321904e-02
2.536983538279849459e-02
3.668013998849498775e-02
3.077852473599988758e-02
7.734440720129320823e-02
7.887315937913333408e-02
8.179912425280998212e-02
6.030079351055132181e-02
4.945871956892870791e-02
1.150357886732815416e-01
5.550227041935833217e-02
4.432490063004700109e-02
8.636307418506605771e-02
9.113081904194511584e-02
1.063816304628725506e-01
1.272596350402219467e-01
1.330908744335692617e-01
1.271003368838130587e-01
9.212079408550923054e-02
1.109907469128987995e-01
1.075343584137893327e-01
1.542040824767508533e-01
7.699745443866143346e-02
8.865572876868535457e-02
1.581582896552961581e-01
1.394111615360409395e-01
9.575179949087039843e-02
8.497111716148930682e-02
1.137836847451945688e-01
1.135873499362354683e-01
7.658085262861957787e-02
1.306969577197365506e-01
6.395246037559509933e-02
7.055591566514175794e-02
1.080664840382375286e-01
5.846003275168557001e-02
1.191379609864638423e-01
9.368632652120566229e-02
6.171764166079347219e-02
1.394069474337070180e-01
1.016502778219751379e-01
1.111962941365284563e-01
1.842219785967517676e-01
2.131591882446158825e-01
2.819127575995960533e-01
3.450788007503801658e-01
4.124739005362402233e-01
4.781165543964405185e-01
6.484281476171867009e-01
7.449104361285138198e-01
8.490331387439706834e-01
9.417406904659408884e-01
1.004438261976674962e+00
1.129789564171266969e+00
1.172030549938414490e+00
1.222918839269395264e+00
1.220313881816451396e+00
1.320054674062566491e+00
1.255658932401930494e+00
1.262568875778803168e+00
1.148898249379846526e+00
1.093735231443433431e+00
1.062616604377740748e+00
9.561849691978903110e-01
8.635786475987419220e-01
7.060766463092492673e-01
5.842066287488800747e-01
5.301127598374365535e-01
3.782700984471514816e-01
3.251261833411618896e-01
2.490159157258426681e-01
2.560774896556333724e-01
1.404232229357525452e-01
1.241336053888676405e-01
4.789743274972696474e-02
9.444445230454062701e-02
6.642380562316116399e-02
1.988519329201201419e-02
5.449428481502492649e-02
6.211719738562261617e-02
4.361300732484293952e-03
5.141876878580774191e-02
1.906139231932939965e-02
-1.840101632867390674e-02
3.701173495747578368e-02
1.447258266083062406e-02
-3.814712424806319946e-03
4.669423927724238033e-02
5.725780587570382385e-02
1.108453379963174890e-01
5.310954725984552011e-02
2.623892127008289193e-02
5.616287863942310415e-02
1.076614983145262744e-01
1.396814225609800952e-01
1.157868706380589252e-01
1.088090556011154508e-01
8.969969226327456635e-02
9.408589244482604141e-02
1.311432811501178075e-01
1.290249781573837295e-01
8.232060536605083356e-02
9.807380192508315109e-02
1.345033465380104931e-01
1.494997581012004473e-01
1.350951574587183068e-01
1.698362250420306918e-01
1.726808127459087128e-01
1.816779782748066396e-01
2.010230695659104005e-01
1.462037669348209834e-01
1.868662338145654911e-01
1.930709314930262877e-01
2.110671350549868652e-01
1.926692187729440731e-01
1.698978503726290556e-01
1.953763702056253715e-01
1.978740596576340494e-01
2.017514797960797135e-01
2.434229029575135095e-01
1.828511424450874334e-01
2.073921866838938366e-01
1.431058306579001960e-01
1.721234615033631621e-01
1.797894828985817095e-01
1.821176613051294357e-01
2.207367468110258135e-01
2.170778899145922036e-01
1.236277178838971896e-01
1.721813784063541963e-01
2.043446947307612505e-01
1.769454582911638985e-01
1.602969210425357338e-01
1.450280169387325457e-01
6.483376223353545798e-02
1.477777314251814689e-01
8.973532482228116502e-02
1.282014540902456368e-01
1.666850042961464662e-01
1.401324990246776148e-01
8.792419387119740359e-02
1.119389035201978633e-01
1.408217133500395124e-01
8.688162320746808942e-02
1.013766292122887380e-01
9.413699312420140131e-02
7.926982939139023965e-02
5.825215631696277485e-02
1.299207436993020104e-01
1.023521753774871978e-01
5.356632092737532297e-02
3.459017314719261410e-02
5.264532482841943750e-02
9.242924769316807065e-02
3.776884298124751765e-02
5.464934705813850185e-02
-6.987557883567557804e-03
2.802523234220657966e-02
5.582961887206349533e-02
3.529201686465353871e-02
3.976642231167560465e-02
-9.165996583623839400e-03
-2.200915548357851304e-02
2.063817343043256730e-02
-3.451746766226955476e-02
2.854378349481427601e-02
1.112771838798273100e-02
3.624689970975314424e-02
-3.853141053097505764e-02
-5.517583925245078680e-02
-7.876861972390403199e-03
-2.240812535520983473e-02
-6.062916936222779996e-02
-9.675580781626925975e-03
1.743581386823739310e-02
1.697832668273251827e-02
-4.029446612904124397e-02
-7.665934759042097868e-02
-5.892842010405338615e-02
-6.881418492514645990e-02
-6.488444820807305613e-02
-3.546416584445459541e-02
-6.782423950361282650e-02
-9.399202740986443982e-02
-7.284066222574099581e-02
-3.555950496701015817e-04
-2.292306113202570439e-02
-7.687623834381999977e-02
-2.976469513759956095e-02
-4.564238407278540383e-02
-5.438138561882117916e-02
-5.545121102931513390e-02
-5.848370669893750151e-03
-7.338387708094420980e-02
-4.086473737084988372e-02
-6.070564760038640179e-02
-8.459110883647161239e-02
-1.594838894817421360e-02
-8.601006761220837682e-03
-4.426122106072628848e-02
-1.984693154817274846e-02
-6.175476136031467222e-02
-2.436437800197857953e-02
-4.775230165719192288e-02
-6.876575446133978420e-02
-5.054272323182357196e-02
-4.679806015767738747e-02
-3.226068539043782518e-02
-1.181102092864949604e-01
-5.900687833811031624e-02
-9.993485835541708606e-03
-4.955928129017682371e-02
-8.457752826905443055e-02
-1.585257300412511519e-02
-2.857440902558882126e-02
-6.958904696550602398e-02
-8.623997436199222488e-02
-2.455180539040574192e-02
-5.684288014446179510e-02
-1.336452029756489135e-01
-8.194396607110344954e-02
-5.671479173193016282e-02
8.565934845360959060e-03
-2.368142749448771262e-02
-9.199661252098390030e-02
-6.657889939226779852e-02
-1.702462372584201411e-03
-7.930011915490794983e-02
-2.292226123321414177e-02
-7.016460887823380843e-02
-5.568290211090002467e-02
-9.793939403472932959e-02
-5.214187828175113892e-02
-5.233323802754395043e-02
-5.445832133405765357e-02
1.710510430190938930e-02
-1.697180337733404654e-02
-6.728776785531599691e-02
-7.014050090057001585e-02
-1.558493588893058654e-02
-7.268498825520995632e-02
-5.230829994273406697e-02
-6.793956402745167378e-03
-4.934744398860987230e-02
-5.599554186119483357e-02
-5.470532589245702404e-02
-5.846844848535637240e-02
1.532362397664834008e-03
-2.268793711910549113e-02
-3.436176447318083083e-02
-2.834897072286985190e-02
7.523223466212036747e-04
-3.257277942611271765e-02
-1.416693873387739333e-02
-3.839031732417602649e-02
4.067118161346190697e-02
1.058712964437209109e-02
-3.627914889412376526e-02
-9.991516901387123561e-03
-6.891742082926408108e-03
1.193133253189162385e-02
7.852265600795479972e-02
1.540298514509820527e-02
2.955786565773499408e-02
1.918398774283423813e-02
5.156308547661848235e-02
3.283523811723007557e-02
3.704469983853533183e-02
5.095505920814826645e-02
7.422210298217321589e-02
7.198904163470698503e-02
8.123896229213216358e-02
1.133674722831752024e-01
5.527697637094816652e-02
1.020627124608898539e-01
1.360657863028898462e-01
1.376311400227253345e-01
1.120884463556232613e-01
1.287536358347409482e-01
1.478597353511320045e-01
8.863394550331826771e-02
1.007131536642677377e-01
9.392359047472011169e-02
1.036509967889858441e-01
8.344628136890808179e-02
9.311945943272630088e-02
1.193319907175106609e-01
8.837749261156269132e-02
1.006478138493884095e-01
6.935979476650178110e-02
1.117320788940543430e-01
3.738049417012824505e-02
7.245799112625704586e-02
1.042739987689440817e-01
6.287573597767331934e-02
4.541684322771007837e-02
1.044209170124313080e-01
5.127778774183160831e-02
7.034604833087425291e-02
7.880489689120484531e-02
8.978635667111507790e-02
1.595923113635180635e-01
1.100495641041173561e-01
1.729409364092456824e-01
2.377461273471459802e-01
3.150701323659061415e-01
3.345612293153852890e-01
4.672202471594943396e-01
5.501415090602822522e-01
5.944565509637584899e-01
7.194273122335891335e-01
8.342634172720487795e-01
9.788569586123172517e-01
1.080750721434745154e+00
1.153046543250106915e+00
1.186770004400376166e+00
1.266062699869264341e+00
1.301900525850320234e+00
1.270387226111894696e+00
1.289327469610948462e+00
1.306342147401770903e+00
1.172809812049533384e+00
1.143321497157780087e+00
1.047285426243147466e+00
9.218649161442851181e-01
8.668209665101622718e-01
7.230669416253923121e-01
6.718341282884040533e-01
6.059920495034676335e-01
4.473034400993856075e-01
4.181597634268706676e-01
2.957395053119015182e-01
1.662721787500245907e-01
1.715947161283803424e-01
1.380876490737243667e-01
1.606856942941896071e-01
8.701615634275626510e-02
5.331413301316416387e-04
6.675177005102275740e-02
4.897336408570887589e-02
3.606122262830253888e-02
3.961386183850448828e-02
7.465902471983926203e-02
4.674788048642412874e-02
5.077738141478408546e-02
3.387925703540717315e-02
1.555379593740565183e-02
6.421179646869060176e-02
4.715662824514362667e-02
7.423400132539088869e-02
1.524345388102638782e-02
8.522956094092976054e-02
8.674023572218403366e-02
9.689868966290651753e-02
1.087080242377567313e-01
1.229021336705307804e-01
1.321463329732787684e-01
1.166536120729013415e-01
1.574752683821434018e-01
1.338353274753657784e-01
1.026255542334789106e-01
1.711503485774473754e-01
1.509432029789014584e-01
1.524147253349024678e-01
2.143750849295467387e-01
1.698585942710761909e-01
1.913508099752919966e-01
2.198287524138076154e-01
1.784031887072912714e-01
2.217888825765896854e-01
2.098314650869419484e-01
2.486053424198442774e-01
1.968539103552582326e-01
1.985810498972592208e-01
2.299075976343404881e-01
1.951558025528156992e-01
2.645175388730040544e-01
2.207345171382708582e-01
2.826513133184422877e-01
2.022892449745420929e-01
2.642341014623532658e-01
2.256875561488092263e-01
2.149012445379386016e-01
2.455128081645623905e-01
2.351820197158200343e-01
2.461259032139337111e-01
2.060371854082462539e-01
1.780475568099039729e-01
2.409858642811582019e-01
1.979220740874978179e-01
2.157403173630293436e-01
2.284095894454105657e-01
2.100884464969285381e-01
1.945460407106715250e-01
1.786293445501051513e-01
2.226918266950711767e-01
2.072570152895450990e-01
2.128828622665357162e-01
1.389125033709823209e-01
1.465675302615235542e-01
1.481756009984100120e-01
1.636493069712929571e-01
1.972405138232777577e-01
1.420853507871926158e-01
1.210055290313831883e-01
1.349030832173973016e-01
8.007594490339592364e-02
5.129577782985192402e-02
7.286218502712366041e-02
8.978731783118196197e-02
1.091359179553620939e-01
1.239149645993920940e-01
1.245250284706184984e-01
1.062768605675497441e-01
3.469266834576721636e-02
6.228726266235765779e-02
1.064000456156364155e-01
1.708646762647991757e-02
5.497270024288304635e-02
5.112711479716381541e-02
7.030420558237901463e-02
-4.187487552521870771e-02
5.710372192076966502e-02
-9.561404313682131395e-04
5.841503070014596871e-02
-8.391573073481747858e-03
2.996326510980489716e-02
-3.481161248578797107e-02
-9.312132249811089224e-03
3.373055409836887841e-02
-2.895527177791424114e-03
3.357258169946438636e-02
2.302856178086711350e-02
7.611514645782309352e-03
-5.397751422226845092e-02
1.447639937580151408e-02
2.965818115496942492e-02
2.275196124814747589e-02
-1.887113696168204666e-02
1.279553670129522820e-02
-8.566079289951591264e-04
8.716752676052491253e-03
4.031293623238461216e-02
1.183839144316217382e-02
-1.261707488660731083e-02
1.875097996921145163e-02
5.339655489695595281e-03
3.226770020541543105e-02
-3.110581976630990078e-02
-3.311933693940386642e-02
-5.215328186451483571e-03
-4.999862070736029590e-02
-1.067813850777954258e-02
7.751276286956309929e-03
3.494469805658108330e-02
-8.916924831796796055e-03
2.816120348285252109e-02
8.827885334176650486e-03
-1.544277627357567521e-03
-2.684666268021898561e-02
-1.483120097374471084e-02
-1.331432645955863379e-02
-6.296453086414841027e-03
-1.274764489319408015e-02
2.889476798151371581e-02
-5.570096694268045906e-04
5.288563946797281146e-02
-2.299919842243393353e-02
2.824420446024939260e-02
-2.960514639812952126e-02
-2.734037393103603414e-03
-2.224696607457010006e-03
-1.107601438078481201e-03
3.756587630695553542e-02
8.566602521461694555e-03
5.602974783973899142e-02
4.381474707969926219e-02
3.974378674991086227e-03
3.624804514462229982e-02
-2.899239051372166226e-02
4.914671382502110511e-03
2.521189813728230700e-03
2.036490257580181665e-02
2.582532627384591384e-02
-1.709660227056515602e-02
2.017363733217873017e-02
4.570821223309191189e-02
2.964686964659636256e-02
2.036989520506665013e-02
3.516359152487993217e-02
-5.688340910659638039e-02
-4.313898412050553438e-02
5.779016444394102781e-02
2.879956440708150711e-02
1.979802642463701981e-02
1.555523775855122831e-02
1.131979149751606573e-02
2.526307182334010248e-02
2.166649486732658697e-02
3.149771040383489082e-03
2.196638518724237932e-02
2.226597149709943352e-02
1.651448872034243232e-05
4.962705812412878531e-02
2.280460234089957267e-03
4.241444624820869119e-04
9.887986480012496415e-03
-1.647012656888383053e-02
2.250499110467330671e-02
1.672689410075062569e-02
4.835770724394240078e-02
3.079839727275806086e-02
-9.899147134009168847e-03
2.716635414852695829e-02
3.472120086653478210e-03
7.535736147432370302e-02
8.087451157518735223e-02
6.641933148234553663e-02
8.033516444506472176e-02
6.794050156076809899e-02
7.824722422411563294e-02
5.847754061247033980e-02
7.155548973279943215e-02
1.087869426454719235e-01
6.834986168901592551e-02
1.040485135582791543e-01
8.884129413235483663e-02
9.391621916314883689e-02
1.496632769018877429e-01
1.397394667521641709e-01
1.385692283654279267e-01
1.094253927218168804e-01
1.427262586708581693e-01
1.391179695224999957e-01
1.184509004108451891e-01
1.720937242364699582e-01
1.739362147333082531e-01
1.084223784778941269e-01
1.619931831214504736e-01
2.162858414360496195e-01
1.775582976951746161e-01
2.186854776578538162e-01
1.821517360433926314e-01
1.871460812584353761e-01
1.653152681351714448e-01
1.451883545590359481e-01
1.411080717788301686e-01
1.940404961874045431e-01
1.545216958734281221e-01
1.430230549444580224e-01
2.037538924113181382e-01
2.064420028759999526e-01
1.501187445166151657e-01
9.383577393409796297e-02
1.336203341947723999e-01
1.056358973756879593e-01
9.881710501286597448e-02
1.693208693790329011e-01
1.001399983033900987e-01
1.210270629936922443e-01
1.443801071758765986e-01
1.333108491605798362e-01
1.700954704223868463e-01
1.851546053083160948e-01
2.185558719442765030e-01
2.978137098747263845e-01
3.582430875861221664e-01
3.903733974035907828e-01
4.716947753257940690e-01
5.612040102832793753e-01
6.578104592423342778e-01
7.924713360941377793e-01
9.083440553726648270e-01
9.908163615703707849e-01
1.137275966294467588e+00
1.227138509393704835e+00
1.211904404921042122e+00
1.321536216570890376e+00
1.303183263549835491e+00
1.369289140532405913e+00
1.384370195530138181e+00
1.332299590093523944e+00
1.244228525434228905e+00
1.228244105518334628e+00
1.086765106755794630e+00
1.017595655137590205e+00
8.806961241106379124e-01
8.108321572749842554e-01
6.896375058461349239e-01
5.481575687367218341e-01
4.961675748849563861e-01
4.458528448333621275e-01
3.892376584532318273e-01
2.812798462293800705e-01
2.728330521074170401e-01
1.854240667069319559e-01
2.308328314570884665e-01
1.235286351306272845e-01
1.287283713978881194e-01
7.852317151356316693e-02
1.001744180970149944e-01
1.200013397285815686e-01
1.848075972115227616e-01
8.044938392258893511e-02
3.735265189461489665e-02
1.403756824507845780e-01
1.107473294405840747e-01
1.539407626636376258e-01
8.509182137741577723e-02
1.845309038196227547e-01
1.120796826467609364e-01
1.300492459290183145e-01
1.452083306328069146e-01
1.145483358186875217e-01
1.445191482934089222e-01
1.104601704530067119e-01
1.869733990222552655e-01
1.615426804820815354e-01
1.022316644941193564e-01
1.774757075600533196e-01
2.044812944701607238e-01
2.121898971425935365e-01
2.609876518859373662e-01
2.217591075668854939e-01
2.154175753036945973e-01
2.253101226757614761e-01
2.846769493279182606e-01
2.137524179714025696e-01
2.346305153874869154e-01
2.752638566478803894e-01
2.647255821726301472e-01
2.308297592145335808e-01
2.754570927237541822e-01
3.257182723063051788e-01
2.737979485034193194e-01
2.668861433902319780e-01
2.827066387265777525e-01
2.795466243392893402e-01
3.533954198536912727e-01
3.155261636299452888e-01
2.274727532257381502e-01
3.306947542814727692e-01
2.769965145444520660e-01
2.980097426293609186e-01
3.189470963836482653e-01
3.326554674016576341e-01
2.994072253985352594e-01
2.859190689484737979e-01
2.707565557865251327e-01
2.792396957604603158e-01
3.306174085992870104e-01
2.277405538908897076e-01
2.618869647962694946e-01
2.847000624880001163e-01
3.224141386876228088e-01
3.094264860578951337e-01
2.568254258470966112e-01
2.648776878349978214e-01
2.650716309035227591e-01
2.207161659895211236e-01
2.491205233376174166e-01
2.022260852003926468e-01
1.718669716803542524e-01
2.241708437758100358e-01
1.973920748218699894e-01
2.189392523664812629e-01
1.946960622052008594e-01
1.545739651828451633e-01
2.121741395865930913e-01
1.863923285870607294e-01
1.828928069539323409e-01
1.199695930213710154e-01
1.269719577253030085e-01
1.264162288940857415e-01
1.354225026776094132e-01
1.931313282557498567e-01
8.468131872876125121e-02
1.219146044106969445e-01
8.575202828235553576e-02
8.353751216793781076e-02
9.581382804630578232e-02
1.154218597092279974e-01
2.368970392740436109e-02
4.867397709961638480e-02
7.349145899593970133e-02
7.909334208491244911e-02
5.463395821269245028e-02
6.883208987840511162e-02
6.505924066318102827e-02
9.118247300721324389e-02
8.026528919468089995e-02
6.761093028412071271e-02
1.034498593894483398e-01
9.154159622085272785e-02
5.622045120757585002e-02
2.307069532652955557e-02
5.511565621165591400e-02
1.637804568213428735e-02
7.608036736096265851e-02
1.155901657230778284e-01
6.852223091088020801e-02
8.297177194752883289e-02
2.644776213677405008e-02
5.958287766819403419e-02
4.841288061527691811e-02
2.682750908457684491e-02
4.774397809247681035e-02
1.774474500762415058e-02
7.774245065310467218e-02
3.703629288150959986e-02
2.527478482949918961e-02
5.653724126716633269e-02
7.180441200677496749e-02
8.064202182429659749e-02
2.918623334524516472e-02
5.014207896183604796e-02
8.170392163208922698e-02
1.860312435260601943e-02
5.206660240033977871e-02
5.187964185231641601e-02
2.000539310327093673e-02
8.334619975083595866e-02
4.057132470779034605e-02
8.858615466617160428e-02
1.781997510666016860e-02
-2.381099347853134901e-02
3.282883574860621934e-02
6.213957633765565536e-02
3.449382117554100624e-02
5.255063497792616944e-02
4.869929610405077797e-02
2.272395530174792233e-02
1.335444693423460671e-01
4.635744684392172771e-02
3.027076282936722734e-02
1.295949652647540584e-01
2.219331118728811239e-02
5.361339735682207203e-02
3.299987780189975184e-02
1.381886776029275093e-02
7.858240446663335155e-02
5.134804412856328742e-02
1.288366098847616020e-02
1.107123755995812614e-01
5.183579376908999115e-02
9.050434376653679336e-02
9.287404069375403137e-02
4.826167928175535693e-03
7.391708239607747144e-02
8.355522923416017211e-02
5.621756160217405290e-02
8.355155422211871241e-02
3.808167647262192257e-02
1.005265837998892686e-01
3.755147419455203556e-02
1.004986148846015170e-01
6.728740675604991117e-02
6.572389953079404989e-02
1.490821786044060210e-02
9.937682676658445013e-02
2.738286926755184938e-02
1.074463431493558607e-01
6.708944539969230458e-02
7.008654757489482523e-02
4.231196303623849242e-02
4.686380976212861649e-02
9.305286748605298697e-03
8.619539317590060867e-02
7.426183480388826030e-02
1.131623020047878292e-01
5.823057879079267252e-02
1.306335093910541145e-01
4.032216426951210075e-02
8.278284903996874222e-02
9.787258220689178112e-02
9.561001454726479609e-02
7.214187691808363057e-02
4.650945289617088724e-02
9.250446380806273683e-02
7.978943175998731707e-02
1.578055090419269446e-01
1.220557811028170486e-01
1.148357752641522428e-01
1.600623827032519320e-01
1.451136158489881034e-01
7.058035377042624903e-02
1.638660676870077326e-01
1.536018334254427298e-01
1.581576866437147955e-01
1.513064727166862633e-01
1.421826597822522242e-01
1.317397804494586377e-01
1.934956689812703245e-01
1.596035467493336357e-01
1.585294024919425837e-01
2.757695317055458006e-01
1.735364855326029243e-01
1.720215077835791639e-01
2.129737347487414278e-01
1.873113384437787021e-01
2.430005119864698249e-01
2.157873409503642537e-01
2.050722147819316610e-01
2.239054760987936321e-01
2.120736185662444317e-01
1.752935898904764422e-01
2.071771374032409518e-01
1.581231934424742192e-01
1.531955349281491907e-01
1.684541265040730429e-01
1.754869097064115091e-01
1.813346685583093754e-01
9.031109299410139402e-02
1.559115582409109912e-01
1.181796051367800526e-01
1.780351334676042174e-01
1.431549313434311577e-01
1.479224459859481144e-01
1.224565913771994280e-01
1.740822126320750174e-01
1.182787017817403391e-01
1.616237237511023994e-01
1.697060491873210453e-01
2.583695340271989771e-01
1.782768918182864593e-01
3.200596020899925676e-01
3.106544993144649269e-01
3.712284826836096396e-01
4.835923667557109895e-01
5.529635653953728358e-01
6.204126133573287794e-01
7.280465672547506983e-01
7.600551617023567630e-01
8.839689818782755504e-01
1.036470346549208887e+00
1.086623605968802586e+00
1.206738116621195012e+00
1.267488533638092107e+00
1.295195634920720762e+00
1.402007771972445527e+00
1.404864203443155768e+00
1.368058540448156224e+00
1.388837161592080705e+00
1.240109619327208090e+00
1.186346949909184323e+00
1.103406787986272564e+00
1.019304537553979095e+00
9.187934476472765510e-01
8.443989438565419059e-01
7.816533689306316424e-01
6.332118246150424401e-01
5.240636703397039131e-01
4.847592030797209794e-01
3.734812277981400808e-01
3.082408224500790550e-01
2.648717066987568147e-01
2.239012710795007799e-01
2.092123762911465013e-01
9.269368711590586507e-02
1.542713219107477995e-01
1.317032586835739649e-01
1.107358022210944426e-01
1.408234552856264532e-01
1.340836702896502364e-01
9.300245363519187014e-02
1.133200543608708644e-01
1.320272091080088028e-01
1.129838289689263919e-01
9.545844076022935720e-02
1.303327276535188872e-01
1.750095281365553479e-01
1.304216617032917247e-01
1.585657799694260850e-01
2.203394454449093265e-01
8.881368915784272622e-02
1.862603434545010705e-01
1.427838017284858152e-01
1.539169747628926221e-01
1.711017744291885023e-01
1.638477195690991595e-01
2.111598264399656699e-01
1.621666776180562819e-01
2.301885891088039648e-01
2.446888870731991905e-01
1.707290677299145298e-01
1.801917371997084072e-01
2.149708734516864173e-01
2.695039917210364511e-01
2.211283222126205761e-01
2.543093276666542613e-01
2.095648727334753214e-01
2.343775023077024344e-01
2.319490973750273355e-01
2.440179104335699622e-01
2.687210905351129497e-01
2.805692465292004556e-01
2.880232640773644492e-01
2.445506550474345620e-01
3.256624413365316051e-01
2.770014720667673958e-01
3.223719805441090935e-01
3.111951535806340985e-01
3.068340768421439768e-01
3.295874202968489541e-01
2.649976565316488619e-01
3.028457217784756295e-01
2.088360351903815748e-01
2.912112995809639227e-01
2.949263967321974489e-01
2.532145000138748547e-01
2.773935142677251275e-01
2.170888059228902323e-01
2.324233189415809697e-01
2.603034253129737352e-01
2.175285624078254487e-01
3.097951227884970238e-01
2.615913110252546248e-01
2.365033568615435011e-01
2.400266968387021749e-01
2.390306559339745451e-01
1.855490319879896377e-01
2.289636063788622888e-01
2.189388285411933699e-01
1.821740991405388366e-01
2.077923535773139319e-01
1.788414837178426975e-01
1.949711046413767357e-01
2.087974245579500843e-01
1.649671197723961980e-01
2.150549591508018055e-01
1.395263455159116706e-01
1.141790532631610511e-01
1.459170087048329290e-01
1.019591775988033522e-01
1.396066630697286315e-01
8.619866796778706541e-02
1.365869036708519391e-01
1.026126604682827403e-01
1.574267155511995531e-01
1.463776939562737578e-01
1.265579435947640219e-01
5.936990038306195344e-02
5.989847453904680041e-02
8.422879933925825346e-02
9.409862953325850987e-02
7.244311066148947931e-02
6.307318309724976868e-02
8.244165765112934641e-02
1.056851117352001351e-01
1.148380891533183346e-01
1.090323694240812324e-01
7.910803406056335363e-04
-3.847281632824677000e-02
6.845883223932409944e-02
7.862799942061153569e-02
7.482713481683087031e-02
7.217587449666935939e-02
7.323183773641092631e-02
4.024009669519101884e-02
5.018922261092497589e-02
5.783431863695923103e-02
5.810472737571734103e-02
2.638881158683874240e-02
2.787109829928833410e-03
-1.349862430691336698e-02
1.982859566713911573e-02
-6.183890859738919860e-03
2.919313256343093743e-02
5.417808603549724433e-02
3.840169915168985953e-02
2.652891824338993870e-02
4.418822903102417182e-02
-1.810269805178735952e-03
5.053286918455397736e-02
3.317372036138592495e-02
8.315578201515100298e-03
4.999019204176884112e-02
-6.771892141959262590e-02
2.523581892279187083e-02
1.101415484240498427e-02
1.659642088463596926e-03
7.694013882287631390e-03
3.897539154979248743e-02
1.205585009544881889e-02
6.002722904176832630e-02
-1.807543682333506707e-02
2.611908382490216174e-02
-9.248193949026709687e-03
6.455572335282333540e-02
3.844036374957518487e-02
-1.045124645397276300e-02
4.033561349590979866e-02
5.715270855468832650e-02
1.467612912661552318e-02
1.920836789093523927e-02
3.042552239822197274e-02
1.891281430395727950e-02
5.547947473324425782e-02
2.631774021402081415e-02
3.238910865523972338e-02
3.697417113073640793e-02
2.787568087615679632e-02
2.042708371720322949e-02
8.216281839584060886e-03
2.783179046478874777e-02
2.951871045287404044e-02
2.927037862128975543e-02
-3.514425781121358061e-02
3.311135524098718363e-02
2.661344565165063569e-02
3.631001058525649972e-02
-2.168354489464692156e-02
1.374877485749471245e-02
2.730208774630038526e-02
2.073093355617070671e-02
3.742814667297678088e-02
1.356546582635426157e-02
-2.796553755919751333e-02
-6.460096204442675183e-02
-1.482486650994079350e-02
-1.200191430307084688e-02
4.805898065338511799e-02
5.052577574809612865e-02
4.488403885042627911e-02
1.523917393872344615e-02
-3.046974053558083526e-02
3.657994497959863797e-03
7.089746643055529207e-02
-9.289707724810879197e-03
3.848721436180654182e-02
2.280559756120533604e-02
1.456324436310258916e-02
2.062151996832553569e-02
5.682705913635818784e-02
-1.713644240209688183e-02
4.018458156819926241e-02
-2.567319779035605321e-02
3.179769822799696777e-02
6.252606262869261911e-02
7.010202083763374115e-02
6.432592047973410831e-02
5.094252043107259931e-02
7.798157689691645467e-02
1.198619009218775261e-01
8.728993633867777879e-02
7.836333436893778981e-03
9.295387961260637155e-02
1.211581423637873717e-01
9.926175788329517913e-02
7.845270461526959727e-02
1.430191910435467950e-01
1.078856952732568653e-01
7.928508702276258757e-02
1.221151863570461293e-01
1.546091894962368929e-01
1.328699809651703312e-01
1.177703695231534647e-01
1.587184289293142314e-01
1.638401149366245924e-01
1.187183062365434055e-01
1.386864071499330775e-01
1.270129287956626163e-01
1.580086142511697711e-01
2.031152471070625798e-01
1.959546476309502738e-01
1.533168542027597558e-01
1.031666986338500985e-01
1.493225433015345494e-01
1.384684275641103191e-01
1.122458086967044744e-01
1.678075395841063244e-01
1.624490805115832714e-01
1.310582402499962940e-01
1.191298273642897448e-01
9.168944011708454744e-02
1.256892117298128442e-01
1.323082264835579447e-01
1.253085357644391495e-01
1.112481690204698698e-01
1.579775312387135255e-01
1.190601620096018443e-01
1.032833187143089582e-01
1.034923763200540220e-01
1.031105874718697135e-01
2.207016703614755604e-01
2.091311686809845805e-01
2.610458471401053693e-01
2.736625980917045120e-01
3.343406358706233483e-01
3.678277517673204100e-01
4.643319072464735520e-01
5.519027829231335502e-01
6.273858839896715445e-01
7.745094517831472292e-01
9.727283377943269915e-01
9.278515753342116978e-01
1.080050076062335496e+00
1.135762870846784178e+00
1.233488646149794699e+00
1.331357513605155418e+00
1.265178074961129884e+00
1.295421653355521840e+00
1.310013316672381523e+00
1.287283196125435403e+00
1.212928244380145237e+00
1.152243461491677001e+00
1.100751533969119844e+00
9.410371137383547469e-01
8.532522579364255622e-01
7.438336737850445024e-01
6.963347743233108122e-01
5.505359455164514637e-01
4.523496133747690884e-01
3.786558935422796868e-01
3.147482578620790505e-01
2.901796233689144522e-01
2.134921497971194737e-01
2.164019841319658466e-01
1.101698579135253903e-01
1.271488303823521682e-01
1.248264610756626980e-01
3.164913750357524480e-02
1.861447981920547057e-02
4.284592261767581484e-02
1.077587545953475057e-01
5.845116717952145158e-02
6.346377159755456354e-02
4.965963001439171326e-02
7.477447657685162841e-02
6.871057506625095901e-02
2.796845996940528628e-02
5.855475142485263781e-03
1.173421213859981299e-01
1.266644881461175508e-02
7.558432071006369879e-02
7.900166409981181082e-02
9.570527635323233806e-02
1.067710603903677391e-01
1.561968318653634002e-01
1.316543444828057741e-01
1.674560877046394614e-01
1.216619320028772544e-01
1.358050168984112627e-01
1.120010350351492434e-01
1.410738694556050998e-01
1.735438164665401573e-01
1.053863513687772341e-01
1.824600345887940900e-01
1.394885711597649847e-01
1.623421073614451093e-01
2.207114240570223762e-01
1.646875675866312227e-01
1.750072967663715562e-01
2.272905273515570257e-01
2.121599016449179365e-01
1.633424865677376436e-01
2.057266595302456869e-01
2.071013600429975066e-01
2.214695615199982204e-01
2.277818477892153415e-01
2.067083777072089013e-01
3.183749590294163712e-01
2.171006175387912851e-01
2.401857064023057431e-01
1.693661725569701737e-01
2.087415305331390414e-01
2.270886294139632389e-01
1.864285244091727634e-01
2.099518546583498679e-01
2.262022475709060121e-01
1.751514186451526289e-01
1.932728976662191622e-01
2.100491023894850984e-01
2.246857076093179140e-01
2.197297021336697131e-01
1.955016662581656461e-01
1.852416011990396238e-01
2.264444381768718206e-01
2.308014102323708017e-01
2.249566653373124836e-01
1.726023963758402668e-01
1.524482498025833410e-01
1.555499209369911040e-01
1.135212004110991435e-01
1.206218455316208915e-01
1.235711642512400399e-01
1.358903910926661518e-01
1.416248587858172925e-01
1.547429194865205249e-01
1.546015349076939327e-01
8.705365063536579795e-02
9.631413346510210582e-02
1.228920790215643072e-01
8.348415422230989758e-02
3.902360951571703929e-02
9.601109608770078130e-02
4.389398981860380411e-02
1.232079470163154750e-02
2.441268868965509528e-02
5.785847182383688225e-02
4.494368637096117503e-02
1.840275889745525764e-02
1.020381280348921088e-01
-1.115085758884014344e-02
1.468700059576714956e-03
6.917095153282287745e-03
-2.910827088252971456e-02
-3.245916139830863634e-03
-4.301003329441254602e-02
2.022241144639746330e-02
4.820924298921024087e-03
1.431261829875220271e-03
3.132480099781105587e-02
-1.085930326153570005e-02
-6.112322379570143960e-02
-2.607691517279965912e-02
7.154064516271457785e-03
-4.225225349437638361e-02
-1.551081464008948613e-02
-4.452157757215340073e-02
-4.799438651596450722e-02
-2.239271761449627973e-02
6.129141689201589305e-03
-4.344914471608432582e-02
1.128393939908343968e-02
-3.278445719568900268e-02
-4.335798377039917773e-02
-5.704099324473341920e-02
-2.850067846811325106e-02
-3.024713113071509502e-02
-4.409468873049527532e-02
-6.299529875341011720e-02
-9.914735061290852469e-02
-4.347137209793642404e-02
-3.498012973472024167e-02
8.322263316142872180e-03
-3.432346516061533098e-02
-3.127728997157665225e-03
-5.455450492556405961e-02
-6.460311097739268593e-02
-1.298122023764580191e-01
-4.630682176545147799e-02
-5.809533011248070589e-03
-1.012189621692350522e-01
-4.031483848808020687e-02
-1.706335550422111158e-02
-7.381324757792995239e-02
-2.199059415926073874e-02
-6.053905565355864604e-02
1.097366668500031339e-02
-7.446385077949189968e-02
-1.090118220494829676e-02
-1.035421018175370356e-01
-1.257266249763218380e-02
-4.589171307248060550e-02
-2.711443633345844706e-02
-8.793742225568551563e-02
-5.362377575526694473e-02
-1.759273208793332710e-02
-4.300920268935488899e-02
-6.189410324964199350e-02
2.320705536546771586e-03
-3.940282766023734534e-02
-1.572076649946941435e-02
-8.658773593748339548e-02
-4.898617269918514872e-02
-6.601045885714885986e-02
-5.747979004016702531e-02
2.785220133054584768e-02
-1.834022697399242258e-02
-4.453644861863884086e-02
-5.188370295631981877e-02
-8.420613481883845730e-02
-7.580401331099857754e-02
-2.214683017857733277e-02
-4.831700583107172847e-02
-5.597764148503249493e-02
-1.139121820965683513e-01
-4.818347898517514466e-02
3.739765079045451190e-02
-2.246120969256476876e-02
-5.519096021245311484e-02
-3.541894254657596691e-02
-6.021247846315991303e-02
1.575544070926915285e-02
-1.132973459789357595e-02
-3.030653567168327747e-02
-5.748085421220561902e-02
-1.507611593454263182e-02
-2.200222393175436247e-02
-1.754093462783393523e-02
-1.534678149411072834e-02
-3.307831748270385896e-02
-7.737200359878360079e-02
-2.195428087263850969e-02
-3.889514519395370629e-02
-6.119200580698982983e-02
-7.080612983792872184e-02
-2.081916763044464047e-02
-4.829237835297243986e-02
-5.831290431008639280e-02
2.478177467134293210e-02
3.621557401923536368e-02
3.074432554692178160e-02
4.737717392232217162e-02
-2.013628799626549642e-02
1.812558330509642102e-02
2.907525241578768488e-02
4.555656476433044000e-02
4.290086497211355321e-02
-2.591186050535966567e-03
3.433245631945226056e-02
6.129844040046095177e-02
5.164728257414796797e-02
9.008832645010547702e-02
8.866461207213743867e-02
1.324906676259698102e-01
1.012227243726114834e-01
1.245650295156276177e-01
6.936200769583913961e-02
1.401223110753849199e-01
1.369682334613479546e-01
9.305708744217000561e-02
8.921416052217995274e-02
9.345700409776099005e-02
5.549812883031998711e-02
7.411208201905293558e-02
1.150948556798635780e-01
1.349872254208439037e-01
1.212526298040265960e-01
6.310941287411236944e-02
1.255005568179384245e-01
1.148195658488027904e-01
8.885728883143392820e-02
1.144600896185060945e-01
1.437146649043451185e-01
6.113243982479860117e-02
5.206006576488041854e-02
4.340410035616757561e-02
4.637084746671032986e-02
8.289340001693840110e-02
1.448174688469156673e-02
1.938912711746340611e-02
8.630236191936560552e-02
8.332885267245211669e-02
1.418573512165281492e-01
9.646120294283885843e-02
1.615937342474969007e-01
2.153587723977224144e-01
3.008175181579491597e-01
3.431828953544645566e-01
4.005800755411697556e-01
5.266473711207406705e-01
6.109803786732913577e-01
6.972432539636844728e-01
7.793108474112349082e-01
9.484403923805698744e-01
1.008485884942925903e+00
1.105895610887096314e+00
1.197443241629854827e+00
1.207630089119471561e+00
1.291936966997975889e+00
1.308523670913418036e+00
1.255525499931382738e+00
1.231322012216417461e+00
1.166269603751693085e+00
1.111009132475434757e+00
1.049883184945926029e+00
8.966236534994166396e-01
8.322205521970130748e-01
7.332475293034439456e-01
6.363292345875811717e-01
4.853427937947624171e-01
4.131217651210244979e-01
3.450416230094932035e-01
2.508075858597187402e-01
1.651564313296531583e-01
1.961873509463161469e-01
1.096923444071406101e-01
7.892950087068750786e-02
6.302966375711108182e-02
8.174909311073724760e-02
5.797612981506292812e-02
3.233443290950355209e-02
-3.648908663657272206e-02
6.682450673822341869e-02
1.550204660089492953e-02
-4.251865639854215256e-02
4.671537429458198776e-02
-6.360950447584411138e-03
5.791401598996617772e-03
7.772363169553118956e-03
-3.810394139157077115e-02
3.207254714826550390e-02
7.842448606006655054e-02
5.386342053042610101e-02
4.515447807756196169e-02
4.795874356596906141e-02
6.216363303672292617e-02
4.392126798874595311e-02
1.003004911412532507e-01
1.187343747531110077e-01
1.273398828750337830e-01
1.283243048591690416e-01
1.285238029483010413e-01
1.117064341986439557e-01
1.444895950344109170e-01
1.430918490581959690e-01
9.338344102212384201e-02
1.302691961448892710e-01
1.653942994867130256e-01
1.672675582272394601e-01
1.449198484980205592e-01
1.606329028828779315e-01
1.636417159859254733e-01
1.796393804269011962e-01
2.123584430053623573e-01
2.369085907435719007e-01
2.023496654247339821e-01
1.277839229363552931e-01
1.654502697102817332e-01
1.952836561782348990e-01
2.375144761083722578e-01
2.434666703829516665e-01
2.382821950165427971e-01
1.843831183177634392e-01
1.930674460131046877e-01
2.290978968195113152e-01
1.287470225967178583e-01
1.769106598990018986e-01
2.404374896548084617e-01
2.029599011355110727e-01
1.852773864571718720e-01
1.917223021905633262e-01
2.421337149722734006e-01
1.880826896104103307e-01
2.002369618695419573e-01
1.990501194430308318e-01
2.429958072033136240e-01
1.551463121630926867e-01
1.633226465113279957e-01
1.655270570144159736e-01
1.087924561951998381e-01
1.848488450327429866e-01
1.164220130363826655e-01
9.099783131154054461e-02
1.192418014821544081e-01
6.538431560380927876e-02
8.736553512337300043e-02
1.032681767492715508e-01
3.433672495219945026e-02
8.449144119895385385e-02
3.628323136649390379e-02
6.972246101378153094e-02
6.516794414496940302e-02
5.233483815888704399e-02
4.616686253151244118e-02
7.829860603570243383e-02
-2.277852258692646126e-02
2.685289667759455101e-02
4.274387016988247245e-02
7.480962770707101639e-02
-8.783096682454111237e-04
1.221185534238354575e-02
5.076316190733944772e-02
-1.953262047461143402e-03
3.232683854078705760e-02
2.222508383146590272e-02
3.386245992688111800e-02
-2.804490057320226798e-02
-2.902865134247658435e-02
-6.817538169960017658e-02
-3.512591207433990448e-02
-1.190063876863298870e-02
1.290137905340492386e-02
-1.705845199123456890e-02
-1.146575585224136190e-02
-5.825368962584880766e-02
-9.061249947078833800e-02
7.019982007437225446e-03
-1.215802294270153933e-02
-6.899013784158275486e-03
-8.141557550117335673e-02
-5.683458983952464905e-02
-6.436316366990038618e-02
-4.834762541932721702e-02
-1.816150456910022373e-02
-1.168157759785735939e-02
-2.080280178739047497e-02
-5.941054131301728991e-02
-4.189101652499897105e-02
-2.699580188106867618e-02
-7.859458918153264251e-02
-5.358834299372640386e-02
-4.402494915670385200e-02
-3.308770258299288669e-02
-2.949709725668049273e-02
-8.956600742040027319e-02
-7.992972530757658234e-02
-7.823481509405603995e-02
-1.946661427175007050e-02
-6.912185795420464074e-02
-6.034493803499998976e-02
-9.301858143729793693e-02
-2.039383303619423174e-02
-4.296704603691151730e-02
1.541549899206702545e-02
-1.271614811556567304e-01
-8.126599435049636222e-02
-2.911846064745831492e-02
1.287132073381423020e-02
-7.881039551444403435e-02
-1.017107857196712373e-01
-4.325590315504082572e-02
-6.192651059304699057e-02
-3.231329033320537447e-02
1.137166348609557759e-02
-5.582346666714502192e-02
-4.737248787587440557e-02
-4.882635094723177666e-02
-2.273234659302180924e-02
-4.286004605954925328e-02
-6.751080554740296336e-02
-6.935342245141147555e-03
-7.928876775366248963e-02
-5.271574462332426214e-02
-4.669709014752175535e-02
-8.043453886511786610e-02
-5.050089481032006555e-03
-5.792602103074415143e-02
-6.816779292443281291e-02
7.779172966619569973e-03
-3.045180446675824215e-02
-5.825949713351703807e-02
-4.078580808803779906e-02
-3.241078320991521572e-02
-3.339452707366658002e-02
-2.488539753867624604e-02
-3.269985497030546140e-02
1.555008801154351278e-02
-2.283175880356549947e-02
-2.186633036862790924e-02
-6.638320318237755924e-02
-3.327126316317522564e-02
-7.611461523888271574e-02
-9.882012543525890008e-03
-2.377960316058808435e-02
-2.404959516186904248e-02
-6.165638531181252824e-04
1.002775867302862361e-02
-7.561323014919338337e-02
-3.833672808823915951e-02
-1.879491649947418602e-02
-5.348578257251151297e-02
-2.926954799487537645e-03
4.195058154101760639e-03
-2.310705758037599061e-02
1.152469340882679438e-02
-5.645541423053259539e-03
-3.268073042331812172e-02
-2.129997869395421767e-03
-4.026563961893162014e-02
1.101271153132068331e-02
3.587416620218799451e-02
4.101948477264050208e-02
1.946035719004855086e-02
2.430910688777680739e-02
6.464389345869642201e-02
2.466312231389803517e-02
2.206928495903246606e-02
1.056104041742622623e-01
4.376848865384735249e-02
3.420043118186162634e-02
8.801516887938209965e-02
5.124016420394181259e-02
1.194161846265791027e-01
7.883681108788763436e-02
8.606358201326158586e-02
1.168598306352660876e-01
1.568330250594300035e-01
1.216804632151700927e-01
1.236760277698472771e-01
1.171897987407896219e-01
1.778770703739161740e-01
1.372167980519433950e-01
9.261286360263618067e-02
8.724493410501978075e-02
1.387792443137761123e-01
1.325688688382020697e-01
1.121488712717720881e-01
7.420752735000887834e-02
1.240634412622193816e-01
9.326162368474509579e-02
8.278684981474521143e-02
1.347131621942880275e-01
8.907406183931512733e-02
7.394042575618423041e-02
8.833739795436749975e-02
7.992194625479336068e-02
1.033006869745697609e-01
7.824850769675359419e-02
7.226563994237746036e-02
1.242373660714306410e-01
1.035981140351031476e-01
1.242216186868320693e-01
1.387671458733052143e-01
1.245712587765525903e-01
1.616524562045427438e-01
2.022604830030730327e-01
3.004542069559209549e-01
2.532022282391190870e-01
3.693495670274775655e-01
4.573593478474448637e-01
5.019843912386482421e-01
5.850430627541558515e-01
7.216191951407169292e-01
8.538482718151604312e-01
9.700355434300583779e-01
1.082517015923001980e+00
1.145033010538025753e+00
1.194519456702464844e+00
1.266096891737492625e+00
1.287843286302377210e+00
1.328101959362251838e+00
1.297509767988408003e+00
1.272656017397875594e+00
1.242042576811269727e+00
1.128931041815075309e+00
1.098438661220472401e+00
9.329922212901771150e-01
8.746347433559461537e-01
7.370346992702710986e-01
6.941352887156574392e-01
5.520224162284328440e-01
4.670649465232725728e-01
3.764814804891991051e-01
3.224204664493170447e-01
2.433303082871873801e-01
1.517490063118118737e-01
1.482341612612741999e-01
1.505190077007015625e-01
1.004277414061985063e-01
2.427886937264495462e-02
7.115383149770994342e-02
5.883679723120138760e-02
7.328281201428618608e-02
7.782130612687410132e-02
2.955489860416765646e-02
4.771387829741893793e-02
3.043110815956432541e-02
5.756726803363066552e-02
5.135228720129376284e-02
6.491306210666701604e-02
6.454857473066022422e-02
9.871712196189294519e-02
1.417570984237501996e-01
8.471117343120364296e-02
1.195649046329167603e-01
9.059290268401502810e-02
1.181099570000469952e-02
1.259842126523355310e-01
1.331765451683372958e-01
1.888900837976299207e-01
1.586923409643454519e-01
1.379578346418417201e-01
1.034552011223135309e-01
1.703446732205969316e-01
1.965601644538260973e-01
2.534744052345030418e-01
1.857737862274600471e-01
2.120116176328458446e-01
1.968776971361843597e-01
2.210471117353294823e-01
2.163300504889871523e-01
1.730032034177979849e-01
2.187216013557480021e-01
2.145148610325443572e-01
2.319315727938350002e-01
2.565519641109660354e-01
2.584413539376982927e-01
2.255026926714160107e-01
2.455602562257840349e-01
2.214743743313850599e-01
2.078404818817870259e-01
2.270408893176579235e-01
2.395165797707178024e-01
2.588609730980563906e-01
3.320353930315484425e-01
2.582018981714090944e-01
2.115684023347446652e-01
2.487033514555543612e-01
2.351692640843628113e-01
2.758469750554288225e-01
2.173530035761446766e-01
2.426737863274110729e-01
2.610496447301659528e-01
2.220772804743252893e-01
2.005791327047446448e-01
2.415899804913794469e-01
2.024922933978291206e-01
2.529422801033368029e-01
1.946528406689931046e-01
1.889604889376050589e-01
2.046006408051494474e-01
1.871032022998974087e-01
1.395617829581592417e-01
1.488607175856546116e-01
1.433309389554579261e-01
1.145067198583674395e-01
1.248582848350356794e-01
1.489210159487566743e-01
1.550368869450455822e-01
1.253489131531161649e-01
1.487850510419525540e-01
9.174580471680567062e-02
1.661048845960919063e-01
1.435984509893676320e-01
1.208662589334489196e-01
1.041401791837421320e-01
3.725230492737466315e-02
1.270348483118245719e-01
5.592366695690987460e-02
6.914791008515418225e-02
5.422143671134609794e-02
5.916456534444124171e-02
6.018506884608283702e-02
1.226054937817430829e-01
4.777863240927808508e-02
4.511266021953028171e-02
6.394663778281721445e-02
5.143458656214991431e-02
6.151238785269636661e-02
8.344067448321826341e-02
2.468688803861891073e-02
7.320662643640769851e-02
3.199323957418766240e-02
1.177729108326505507e-02
3.783999781243265956e-03
4.379586969077917114e-02
3.762366972105785079e-02
1.837222765325855975e-02
3.646082392539323758e-02
6.216452469361311017e-03
7.011067125286934987e-02
2.086759668064076811e-04
2.028358822561494856e-02
-3.666604878245851434e-02
6.007832497447682107e-02
6.071393650046337520e-02
1.155224254501361833e-02
1.595244693303816269e-02
-2.266635846721645406e-02
2.476875601378653383e-03
1.607689084357678128e-02
1.160099884822292544e-02
-4.169108422527126323e-02
1.547517292264994661e-02
4.636105007665980438e-04
-2.212914695176371530e-02
-1.910796464248113585e-02
-1.930074279328108586e-02
3.480998357163780227e-02
7.141182735167234119e-02
1.177615222754751223e-01
-1.175116382597929388e-03
-3.156728403293014573e-02
-2.306124817049403503e-03
-1.735961114799337499e-02
-5.914916188962128507e-02
3.173364963167281394e-02
-2.388046712201576799e-03
1.673444396747849131e-02
1.421628809154120224e-02
-1.449508413240360727e-04
-5.919562690414690437e-02
-1.371816654696083812e-02
-2.256933190145027357e-02
-1.116451071971660478e-02
-8.803648472802197422e-04
2.808961718866208324e-02
1.054556379042474214e-02
-2.569287473069434280e-03
1.696399168801745322e-02
1.681291943966056052e-02
5.478052001849845198e-02
1.036087066586136723e-01
-3.298312211356155266e-02
3.784868765525304518e-02
-3.091959073216586987e-02
3.679346714148100383e-02
-3.469217787052889662e-02
8.688727709368706392e-03
-9.739226372548558108e-03
2.124979230902659944e-02
-2.757992682530196332e-03
1.848313568138246210e-02
1.295780194094946040e-02
4.631344125704299486e-02
1.588173246166704744e-02
7.936335886684170449e-02
9.841392979624915063e-03
3.667119500262143450e-02
-1.546845888092530930e-02
2.172427420994446634e-02
6.571217591426207344e-03
5.046728800781678098e-02
3.960997052442333244e-02
3.045742555642266466e-02
7.473664689074510648e-03
5.334287024169122315e-02
4.470909117511885633e-02
7.737158718127171153e-02
-6.789904130024168594e-02
5.715206307061531515e-02
5.374693048277769808e-02
3.906732162525991536e-02
7.453076277152886897e-02
6.814734310445416665e-02
3.288791930235335226e-02
1.629880723138184273e-02
7.251320374105202360e-02
8.512742108433864197e-02
2.566630592853250820e-02
6.708886045770215412e-02
4.749776815068845748e-02
1.090441200376559561e-01
1.087441285650484479e-01
8.405622975245816142e-02
8.573629866091392326e-02
1.193212100656647900e-01
1.115499777317502939e-01
1.040443527490901576e-01
6.404776549316086587e-02
1.008481584676837600e-01
1.712130817198987409e-01
1.915557709741046444e-01
1.367500478992553226e-01
1.598882307523885882e-01
1.511928924484622905e-01
1.466327488410401059e-01
1.493007399892445353e-01
1.216398446697233016e-01
1.749055680484214448e-01
1.874670024783785527e-01
1.696272472444381174e-01
2.151002349238577693e-01
1.535127989963851747e-01
1.585490498374073076e-01
1.443307546739369396e-01
2.280884480755757393e-01
1.556287298990590706e-01
1.748403961362686720e-01
1.479817224612804683e-01
1.962503203066816582e-01
1.895465123592909307e-01
1.651699701347158211e-01
1.600562165048818042e-01
1.640740382769208527e-01
1.591915307325697526e-01
1.714843970616277136e-01
1.120002037231789538e-01
1.688743865476248218e-01
1.147773758054741744e-01
1.444970661482889995e-01
1.248243614988843453e-01
1.576413688259652723e-01
1.799910363579611539e-01
2.164399801364754183e-01
2.619491705470960996e-01
2.661465734907205727e-01
2.725200353803498565e-01
3.425708129737582430e-01
4.067738099240555960e-01
5.376588798680678183e-01
5.348499996070377183e-01
6.918479858357228229e-01
7.936048860076237998e-01
9.311123120745085080e-01
9.944205906753861290e-01
1.087689798002436925e+00
1.213388656537416121e+00
1.278407133332681411e+00
1.366040819282004604e+00
1.353087669684947869e+00
1.360760050992105841e+00
1.346861505709496587e+00
1.352761654666825519e+00
1.327720556252220518e+00
1.160665368388160035e+00
1.141458492957709847e+00
1.026585586540424533e+00
9.282834581763614867e-01
8.603122746747386973e-01
7.450375225855884187e-01
6.487675870405582579e-01
5.372041776488996057e-01
4.497318957775650050e-01
3.888885692034376729e-01
3.819008280517859344e-01
2.584579155920778692e-01
2.217157915777150379e-01
1.605186422492956011e-01
1.040546437485478648e-01
1.740254374118820335e-01
1.178877350688125186e-01
1.350615747412613477e-01
1.202290334634633778e-01
1.526885474840371237e-01
9.976796991270045489e-02
6.960726577204529031e-02
1.539086467150160287e-01
1.257908392638701633e-01
1.252415146064809193e-01
6.239388599932830376e-02
1.492397000126420847e-01
8.439423189278752457e-02
1.700439389803779233e-01
1.399437418552027246e-01
1.712811311425962990e-01
1.626520325362336150e-01
1.585827205085940939e-01
1.518125914609398663e-01
1.204299666642155431e-01
1.827743669385340219e-01
2.037063843364029514e-01
2.145133028717768897e-01
2.329126282115659696e-01
2.280297187260160452e-01
2.820576155109622563e-01
2.140503930228663532e-01
2.887666500552826809e-01
2.475839319717097753e-01
2.672500324940015881e-01
2.829509965754976042e-01
1.578628459155914099e-01
3.149229593704723218e-01
2.856856342778130720e-01
2.531283001820677225e-01
2.647595779957407913e-01
3.073606669022444504e-01
2.757943077765938611e-01
2.691135883002913065e-01
2.857647156310899605e-01
2.666469233002742301e-01
2.576544497298126069e-01
2.945303585724668993e-01
2.177206322957210560e-01
3.103079526494975093e-01
2.648374232406752737e-01
3.564566695809378016e-01
3.107628292130883430e-01
3.187675938483003346e-01
2.454674973231102952e-01
3.173072165505280706e-01
2.332193868095549516e-01
2.712059237897651021e-01
2.268542269491767849e-01
2.653113600857348042e-01
2.776226074333634775e-01
2.546156371992345235e-01
2.346402803111725388e-01
2.724733001677261957e-01
2.460872164521029914e-01
2.359910773334465417e-01
2.433624228198710826e-01
1.940413183507092576e-01
2.466316851680690481e-01
2.403694397024407348e-01
1.960806622806375299e-01
2.100618369255352613e-01
1.997775041393073936e-01
2.199972746677062996e-01
2.576253568150607687e-01
2.163035385913605058e-01
1.324753034635364479e-01
1.882779784774086251e-01
2.387379200940003277e-01
1.199002775445515978e-01
1.870448676586128345e-01
1.584546499215421234e-01
1.393227702705486515e-01
1.356769454993760893e-01
1.118866920128019915e-01
7.276763512050121729e-02
1.428986848577697144e-01
5.662258677801457196e-02
9.749435549507609600e-02
1.005062003917326502e-01
8.572101309594312712e-02
9.839749590318078165e-02
1.468878565067965880e-01
9.239905790264792140e-02
9.101759391034290603e-02
1.097939061000640787e-01
9.255214528167421406e-02
7.857206210990907991e-02
6.249432727667311033e-02
7.360943329901825649e-02
8.497663792955167938e-02
8.305195376956873987e-02
3.589979294634031842e-02
2.119268498418215574e-02
7.791288155161474327e-02
3.711384944967113797e-02
6.286475042009934122e-02
5.145258887908796958e-02
4.339988283041898431e-02
7.323332181314688716e-02
5.885454040756511046e-02
9.230624443708619620e-02
7.841798131543943617e-02
2.779378881930138351e-02
4.072093866826612812e-02
4.578098915653074086e-02
3.346419939547736616e-02
8.767618224263287741e-02
3.766924707806490469e-02
5.133386902245691552e-02
6.300216072063841155e-02
1.737976156860212423e-02
5.191872413368634614e-02
9.971988340636542270e-02
5.271880708776967989e-02
4.096416683075754239e-02
7.521336624626759337e-02
7.434339596484940138e-02
-1.922928841062244987e-02
4.611988193085093946e-02
6.150099538436708257e-02
7.552100751734497353e-02
8.503242032494984226e-02
4.201603944770063159e-02
5.096198658178972829e-02
2.995585971682955539e-02
8.639385978818146794e-02
-1.442887038600475930e-02
7.550947336988515779e-03
9.734539439369153946e-02
4.816248572773900588e-02
3.636160653343061683e-02
7.961550767500658043e-02
-1.193993505197499250e-03
5.636580681988257596e-02
7.113849691103305006e-02
5.144175043971387778e-02
-5.193285270006072624e-02
3.787985698632768961e-02
1.972827079744073758e-02
1.037001344743960218e-01
8.193159516360278005e-02
4.049564790367908562e-02
-4.978703871587143726e-03
4.909198439769307809e-02
1.375735488252801536e-02
6.438117053805844647e-02
5.861233759749936989e-02
3.753289182894013754e-02
6.004429110440610146e-02
1.265917873447425512e-01
-1.620624869617184882e-04
1.495807081929391436e-02
5.741347787926303486e-02
2.485592836110984277e-02
6.187785143613419581e-02
1.151189083357249954e-02
5.249573439497440264e-02
5.072439609661156396e-02
7.131212827846894475e-02
4.657573804259965145e-02
8.370467909004697393e-02
2.425582871055865369e-02
6.515943022104213334e-02
3.494245462081747855e-03
-9.950005302146784636e-03
1.838986767461028848e-02
1.227871468427237933e-01
1.075870048696317832e-01
7.686478121746789793e-02
4.347893893253976932e-02
9.808415395159356120e-02
2.583681908461739340e-02
1.739004489996953673e-02
7.725573445085534563e-02
8.404627749252399638e-02
1.038996261033811319e-01
7.460986758364759885e-02
8.093297325714010615e-02
1.581264477678803460e-01
1.047072819378391528e-01
9.884582386124204922e-02
1.325849314446152227e-01
1.120937937346526692e-01
1.865230206808017321e-01
1.489069396041542981e-01
1.339196517280475673e-01
1.262391780746334180e-01
9.697345575148907937e-02
1.687641499038496085e-01
1.424366948276568345e-01
1.184428811689429151e-01
1.404935537946521151e-01
2.192823270080419273e-01
1.780150033055714065e-01
1.936084322714515804e-01
1.967559398812774307e-01
2.486777094891659268e-01
1.726776648450761842e-01
1.904575983195972710e-01
2.233868639958059843e-01
1.935245727452939435e-01
2.018122470573706917e-01
1.853614731432107754e-01
1.636365761905768657e-01
2.183007129057973061e-01
1.730507533911260221e-01
1.906985720559429276e-01
1.811514375815468647e-01
5.755595746142928848e-02
1.603449747786581669e-01
1.604939707789893311e-01
8.522951100133702163e-02
1.113988153915393131e-01
1.413893620647201366e-01
1.334526383864511612e-01
1.771926867232400116e-01
2.005588198659408183e-01
1.455519316996937706e-01
1.514730806908268224e-01
1.965921390118109957e-01
2.578987750311930172e-01
2.627160455641145420e-01
3.411968114608650016e-01
3.983799659811589899e-01
4.513061274214671958e-01
5.099045369556680640e-01
5.669168997456522918e-01
7.005099526472426952e-01
7.787756587090107763e-01
9.530146685402102191e-01
1.037297425105227822e+00
1.097900684271691185e+00
1.187813454245815636e+00
1.222600513078557327e+00
1.308962587821789869e+00
1.422146346334766553e+00
1.387018497511310233e+00
1.363595240143922638e+00
1.348189740426895655e+00
1.274788187454933386e+00
1.211049261222016948e+00
1.125785847906178860e+00
1.081574044826743020e+00
8.588394032066311023e-01
7.980667329331135873e-01
6.461779653531734002e-01
6.015689464150681953e-01
5.190341467003840581e-01
4.571850893954312878e-01
3.304883707230718004e-01
2.767667038601356877e-01
2.704887495901750483e-01
2.229678482374963244e-01
1.658326719571029673e-01
7.879506701548918968e-02
1.296172095088914400e-01
1.234688172097354042e-01
1.119760656197548165e-01
5.402712579977966834e-02
6.642853553095226515e-02
1.266688482989781206e-01
1.488930642330845155e-01
1.293085613217920815e-01
9.289829408480637651e-02
1.018715268150560960e-01
8.680422578055396743e-02
1.356641567249625424e-01
1.629146685218495760e-01
1.557907077213660230e-01
1.572031278466552162e-01
1.223589665504416502e-01
1.415203887074047429e-01
1.418778396927822261e-01
1.875488218069994995e-01
1.704486010591502732e-01
2.052878795754022601e-01
1.947002798076160612e-01
1.633591869243189443e-01
1.506705039064724083e-01
2.612598862179527082e-01
1.959305478239583287e-01
2.183176605752388810e-01
2.733828097708883575e-01
2.422407449273246138e-01
2.017467643879418404e-01
2.400844076758051893e-01
2.878722155077206857e-01
2.591349212402477287e-01
3.543964515656618519e-01
1.970096976883366768e-01
2.499155568762037316e-01
2.243215924904908287e-01
2.899624420882324083e-01
2.324275279300644370e-01
2.497633103495240925e-01
2.568499576775874482e-01
2.818075605020965990e-01
2.716439962403276454e-01
3.069017908651923143e-01
2.454670578379254953e-01
2.889207700952776126e-01
2.693689397632167415e-01
2.161971773113699480e-01
3.054031672929552466e-01
2.474739512098685923e-01
2.710175357908018445e-01
2.355455035274640341e-01
3.437254698786209595e-01
3.035670016512043712e-01
2.358154021273401180e-01
2.536141617728642772e-01
2.487479528084013403e-01
1.923141120923387848e-01
2.477216336974700506e-01
2.237446577481182197e-01
2.485165666143731855e-01
2.050119478702966125e-01
1.685646191482969014e-01
1.733301681917279735e-01
1.529055548718420421e-01
1.868867022303584424e-01
1.971206074230359429e-01
1.259051515073024430e-01
1.731360807758578202e-01
1.764628064161283816e-01
1.614221510653272573e-01
1.004153720137507255e-01
1.854951482061192869e-01
1.385581467374715214e-01
7.368938331051722024e-02
9.830694983577305257e-02
9.139025725533556077e-02
9.653679623027144885e-02
1.420109618120537487e-01
1.000533070261167695e-01
8.310969130694989548e-02
1.296948398037763850e-01
9.234312614879629233e-02
1.365203671025888021e-01
7.209082026799749909e-02
1.131210320651498402e-01
-1.506710885429116825e-03
7.953711616381742289e-02
4.835857977133221908e-02
5.877915807817038485e-02
6.026006312685366906e-02
6.427456997762133473e-02
9.097749968905201323e-02
5.626544843122577993e-02
3.718315948800295784e-02
4.993948440782431525e-02
6.011404126031797551e-03
8.847745780648490210e-02
9.544474513781537120e-03
5.149164030168554979e-02
6.370522237352289896e-02
4.250960233633786778e-02
4.767165658535011535e-03
1.014312655146341544e-03
5.560813801792974242e-02
3.208464750097515805e-02
5.823942348733645615e-03
-5.944659745193044131e-03
-2.146832050301576700e-03
2.230288449156326430e-02
8.833853506033564895e-02
-2.125303205719118391e-02
-5.532757405054929134e-02
1.501108331127315801e-02
-5.232471441039953514e-03
2.164973171887907277e-03
-2.151651795441034132e-02
5.050266829089704312e-02
-2.765759182355199963e-03
2.580766463377144604e-02
5.788159720247096351e-02
3.676880060202520478e-03
-1.444809344730177414e-02
5.770928201659320141e-03
6.485928676448662888e-03
2.501384169164932308e-02
8.972290104399132521e-03
1.140435491707139301e-02
-5.564700838838820135e-03
1.413469805809729196e-02
1.762645287055805005e-02
2.400439547187904060e-02
