1.332206681357380296e+00
1.296066229680693738e+00
1.287671349252013098e+00
1.226902958430867052e+00
1.201256138112429150e+00
1.030036031313116940e+00
9.242168490507273182e-01
8.535198481702831463e-01
7.702861752745654433e-01
6.747626449128860671e-01
5.376668765841653430e-01
5.188601316466466828e-01
3.833410950408967510e-01
2.688767299264453459e-01
2.609041568962849889e-01
2.049892222502061878e-01
1.587674513598373305e-01
1.411765723818425855e-01
1.193091074267524920e-01
6.853412258033211857e-02
5.212998680560353149e-02
4.488915812746466227e-02
1.308028684698320787e-01
5.996136668975074469e-02
1.014392410493749758e-01
1.037308036929368849e-01
5.959970340149060158e-02
8.984238466616994989e-02
9.764196686546576520e-02
5.811886982993547113e-02
6.517830054797299488e-02
1.127866371237771365e-01
9.865695717543357390e-02
3.892332137221252847e-02
9.183344204962275159e-02
9.204964742805904487e-02
1.116637427135971083e-01
8.486206707178793607e-02
1.384626136905047211e-01
1.502737220712336008e-01
1.446643726295369914e-01
1.424211947386983257e-01
1.410753644743680535e-01
1.774887702393457833e-01
1.297205247333610978e-01
2.360230691785609181e-01
2.206185680392808990e-01
1.209770942910484148e-01
2.439471548250989885e-01
2.133636115874497641e-01
2.171670882556686888e-01
2.022181945802905279e-01
2.383834581680350784e-01
2.091589123502652636e-01
2.037268118369330028e-01
2.161684722877402764e-01
2.182847418592047672e-01
2.340837223817920365e-01
2.449233645341510612e-01
1.680533466273702869e-01
2.551499722045206253e-01
2.365587471357806504e-01
2.623938331043023653e-01
2.467425337236609506e-01
1.800958834218553128e-01
2.451428406742348909e-01
2.230009986901554109e-01
1.787997632932972758e-01
2.134422039926094916e-01
1.944981455193939002e-01
2.443117776314221723e-01
2.628959001245478322e-01
2.270095239011656607e-01
2.331113491567233797e-01
1.783245737812166332e-01
2.215878434867593338e-01
1.819389073451311845e-01
1.381744772462503712e-01
1.799603753014538676e-01
1.865296782704071454e-01
2.055847406028917801e-01
1.543394633439670871e-01
1.258162512038931979e-01
1.620336197008901136e-01
1.417277401988181473e-01
1.194030041298869416e-01
1.367397350186807525e-01
1.550240691412128058e-01
1.123422989087938390e-01
1.947234249324990285e-01
6.724385016802168769e-02
1.006824609271014803e-01
1.052437755499672362e-01
3.339263015729040246e-02
7.995136898295918115e-02
2.818746763111526846e-02
4.484602829409593816e-02
3.650695414510059245e-02
3.060227749943283948e-02
1.305971639487438496e-01
3.699863484519391732e-02
5.902421040867879276e-02
5.166279083855026405e-03
4.125780893979384689e-02
-1.421439161416915981e-02
8.774218132374489443e-02
3.806042461370541530e-02
2.920282635986029551e-02
9.406495237413124710e-04
1.688394058932208772e-02
6.071537257935943899e-02
-1.684775418227403565e-03
1.074643550309483525e-02
-3.766782607195208465e-02
3.530524985853061154e-02
4.060044993477868180e-06
6.658618954574667403e-03
-3.767296849905088507e-02
-4.459677070505349561e-02
-2.254217210368669039e-02
5.497220753607968274e-03
-7.688355165571536531e-04
-9.275922440223138138e-03
-5.550105188058992306e-02
-5.285998803037887661e-02
-1.645140720595340833e-02
-9.485565493527468861e-02
-4.519363719554552600e-02
-7.979580253602569506e-03
2.640200490164723926e-02
-2.073843036182304936e-02
4.235161753774842330e-03
1.639278499812272388e-03
-4.421467066959434977e-02
2.913144256637168611e-02
-5.275414883891785256e-03
-1.800193666600018866e-02
1.703475115795084413e-02
4.775099237792342771e-03
-3.386055976490828096e-03
-7.116846357846437487e-02
-1.460773708251508068e-02
-2.250607603688268427e-02
-2.668257180214382573e-02
-4.518842096257368740e-03
-4.706537166215356283e-02
1.335036528006587619e-03
-3.083085418748193751e-02
-6.422726528151668363e-03
-7.203995316578318264e-02
-2.140156695519109323e-02
-8.777564396751098841e-02
1.211606785853255874e-02
-2.044277652064071735e-02
-3.739181807810740971e-02
-1.281238587596914349e-02
-3.026375338307877444e-02
-6.177636267473222975e-02
-3.303014995474268245e-02
-4.014028825584815829e-02
-5.072196246524621199e-02
-4.303876233518537375e-02
-3.255302993683555079e-02
6.238446061826545541e-03
1.048174824294873658e-02
-4.867946409641492334e-03
2.239602253903436729e-02
3.191710020167799061e-02
6.139254229772628246e-02
-4.165185275689323868e-02
1.584399309964784619e-02
1.801362100852398063e-02
8.374347105941315483e-03
-1.558064717476365796e-02
3.016397739428145625e-02
6.512643153601846424e-02
6.182307530201594514e-02
6.410566592160686639e-02
2.781117923577122730e-02
-4.026516500848895119e-02
3.695405506244372335e-02
2.448858939688285802e-02
1.152682047601116810e-01
5.601986484627440727e-02
4.991330153675022779e-02
6.656852677081873115e-02
8.702208786721357670e-02
7.431240550139886492e-02
8.081831469898029252e-02
1.183117742526492433e-01
4.102394621709307132e-02
1.160585888807542931e-01
8.722144001100426425e-02
1.376965900645753527e-01
1.035675410379078565e-01
8.834863092408583307e-02
1.183109955022171450e-01
9.446780113077485330e-02
1.561533514127912969e-01
1.236169040142623132e-01
8.126365339120029951e-02
9.152399711613959377e-02
1.055617674462985545e-01
1.019006453706510495e-01
1.096413870671189839e-01
5.666617820427911900e-02
1.514606686638405586e-01
7.559050847514220406e-02
6.177937431040732286e-02
4.972127211140051767e-02
4.613887699951275956e-02
9.558190340478220359e-02
5.501571284972470166e-02
2.285116971476694459e-02
5.069203279844783361e-02
7.599983213709946006e-02
9.374610989426496177e-02
4.046808033894192663e-02
2.150560573147314997e-02
7.856327122527449747e-02
1.989020199583580728e-01
1.065514747933186124e-01
1.864774482011371526e-01
2.819940916714619439e-01
4.129858252988243827e-01
4.035002768278609930e-01
5.124475951975049348e-01
6.344083891389260543e-01
6.655304402265791452e-01
8.475208750522970069e-01
8.707525722163593773e-01
1.015935415639185324e+00
1.160075945403731046e+00
1.134680972790432119e+00
1.208425150606481591e+00
1.234856384098291127e+00
1.259570740703932268e+00
1.241374429319220818e+00
1.246555600054845891e+00
1.177658275650090847e+00
1.115512275026722122e+00
1.019310926287187113e+00
9.248343196325792270e-01
8.291023111097789444e-01
7.238649796847311801e-01
6.101252110411387042e-01
5.446286854608599626e-01
4.268565098067731989e-01
3.666189978688820794e-01
2.899144591557012429e-01
2.651624389646254909e-01
1.300705595888635158e-01
1.260806771974031792e-01
1.038133755192895136e-01
9.062969263479206394e-02
3.564728546151009481e-02
7.116902972178959508e-02
-3.248545342546130948e-02
2.611596480118893310e-02
6.845786440147358376e-02
1.925009819852007559e-02
8.559999111594052135e-03
5.482280366722388359e-02
2.290908045884579997e-02
-1.443844239286697778e-02
5.542911693399699136e-02
1.668777115694296959e-02
6.746250850494373008e-02
7.934421117939956247e-02
9.762892722865242068e-02
8.045417124602580183e-02
9.300062686099833109e-02
7.278200250951977202e-02
1.178274545167548870e-01
1.219621195239487255e-01
1.262641937089369337e-01
1.282081781357384820e-01
8.673491593570367697e-02
1.558921584346737721e-01
1.449211030638624387e-01
4.793772141487270128e-02
1.785243762036851922e-01
1.378462053779719865e-01
1.558228266478851598e-01
1.466978033781598245e-01
1.833282731375091845e-01
1.761585651314007406e-01
1.659558384942449449e-01
1.215888455653721251e-01
2.310862722763158128e-01
1.777098219745194274e-01
1.543921424788576025e-01
2.706262100604814869e-01
2.285842122897147333e-01
1.806076316755632627e-01
1.568162672559862691e-01
1.974372552442495710e-01
2.429318785362419297e-01
1.626798650985071260e-01
1.947070297920108217e-01
2.403678942793363305e-01
1.418080816720504456e-01
1.666974637303984541e-01
1.882404571647789959e-01
1.831836828880399615e-01
2.041955976889624491e-01
1.239250167423747578e-01
2.010179527367341734e-01
1.732443798266402601e-01
1.876684984022029823e-01
1.382506542869452737e-01
1.180175457296574748e-01
1.411530401301639981e-01
1.527064908315767522e-01
1.361310308296819205e-01
1.041791361643840397e-01
1.040875895193050515e-01
1.114733172358688962e-01
1.854974287138081157e-01
1.468854520365441840e-01
1.119339362921905612e-01
1.005626466593662061e-01
1.320934600948847348e-01
9.083718026992813888e-02
8.321477533614382582e-02
4.186923784788578601e-02
1.042282738216730176e-01
4.813917583014513252e-02
3.215528086841944883e-02
5.073961861312097088e-02
9.566194748829201511e-02
4.575746745184853387e-02
4.064676142945165827e-03
1.995119028215042861e-02
4.650296535582618823e-02
3.969915030613493240e-02
2.022424534767884585e-03
-4.491282254894529008e-02
8.276679975605299999e-03
1.489227910606812089e-02
4.947152084759362523e-03
3.710763232501124165e-02
4.007554617460330759e-02
3.233734133333270727e-02
-4.014710395727056486e-02
-1.073571019655538555e-02
-4.196766118870655371e-02
-3.109251202822783250e-02
-1.208361795996226729e-02
-5.821642620321287875e-02
-2.503022158579042492e-02
-7.113009955462092082e-02
-3.133963237272113789e-02
-5.251958186527276584e-02
-5.175104333171676174e-02
-3.970893454164175357e-02
-3.142160303653836195e-02
-7.046462821041993285e-02
-3.234476220748491726e-02
-4.780059244223353737e-02
-6.440978373679605296e-02
-3.453853265964051955e-02
-1.783153698229272138e-02
1.560612063602498378e-02
-8.472728074894825268e-02
-9.984458657881903343e-03
-6.068417264964884317e-02
-3.751613489254834732e-02
-8.343981866330552055e-02
-3.208045482153473738e-02
-7.023386746488356758e-02
-4.771216708532682177e-02
-7.019065004226759941e-02
-6.792022791831370254e-02
-7.132174963570425685e-02
7.218347771521478606e-03
-7.562892028092117747e-02
-2.206345761614629530e-02
-5.763795209524552599e-02
-6.962161572938661835e-02
-3.994123290749970051e-02
-1.992773839459007629e-02
-7.686357665780589599e-02
1.971151580857627428e-02
5.570214962934784408e-03
-4.888088847597887865e-02
-3.364347789507865505e-02
-3.740491717353372492e-02
-4.539851287729390616e-02
-2.521564664485340113e-02
-6.713853320515665579e-02
-8.540193763713690989e-03
-5.598546217274388143e-02
-2.766282381084389508e-02
-4.748259185480220579e-02
-6.365905967962132150e-02
-7.676321458365947814e-02
-5.044228278769333218e-02
-4.697161150440919836e-02
-6.614335226663062284e-03
-5.534485192536253706e-02
-5.098024013348176342e-03
-7.641237249158326639e-02
-4.971287964731556375e-02
-2.446099838241400093e-04
-8.294678763451822368e-03
-2.045231072887684562e-02
-6.596087652269547186e-02
6.287690477749116602e-03
-3.002898303679337952e-02
5.681787006544869456e-03
-1.488552839148300777e-02
-8.584641474649760962e-03
-8.751086540974520323e-03
6.708300432748934283e-02
-2.868209240843994090e-04
-1.165374186130826994e-02
4.172945541336049724e-02
-2.500075139985677430e-02
1.256844828059656971e-02
8.827471898201712242e-02
4.476664159354563216e-02
4.414965302772089206e-02
1.249740157240053356e-01
7.078078735312477721e-02
5.333377766259706637e-02
9.809810148861780599e-02
7.373848189020476562e-02
8.780583889579277046e-02
8.927172206373723551e-02
4.441785377690392334e-02
1.201356846980439763e-01
1.670872953204851352e-01
4.065112444760271559e-02
1.457962922170176201e-01
9.949243580883559979e-02
8.408068287001699281e-02
1.137938446771497303e-01
1.228865043076040747e-01
1.061079719853602887e-01
7.317614770357805387e-02
8.517302314785935025e-02
9.349983468926188757e-02
9.701021702453954676e-02
1.148965369730227115e-01
3.233590919959990900e-02
7.930907321648203445e-02
6.575751174087986206e-02
6.640625049987913808e-02
9.110106842478965516e-02
4.107950114857436552e-02
4.046351666156291355e-02
3.079701085690790541e-02
7.917398969196945413e-02
6.156628551613017863e-02
8.127610624482031754e-02
1.418733320988525559e-01
1.535655674163292905e-01
1.971871666016496438e-01
2.789356061646729446e-01
3.064463295899221285e-01
4.153936565268178671e-01
5.204265086651268524e-01
5.609748577202526842e-01
7.080171356702287255e-01
7.494909689551021437e-01
9.411946910683750556e-01
9.932226066880297521e-01
1.052459408371556382e+00
1.176236847251869611e+00
1.178001000753681193e+00
1.197770007906966416e+00
1.235309937955925363e+00
1.221792772178017072e+00
1.194170015906272253e+00
1.211028022743634969e+00
1.144916397093580285e+00
1.023872604390286600e+00
9.940783093325290531e-01
8.146825167289128977e-01
7.830165752569844262e-01
6.169642981429550588e-01
5.535382706581158940e-01
4.407048692114613475e-01
3.677229708589532242e-01
3.029699243739157333e-01
2.190865920613248030e-01
1.794738161696377288e-01
1.165165343017163374e-01
6.694441502290199297e-02
2.568886581234609140e-02
6.309784521397654444e-02
9.945902463371091018e-02
1.391444759240687695e-02
5.213456690348781258e-02
6.240079067399668944e-02
1.778041753108761114e-02
1.038018331899729502e-02
4.428586903346045517e-02
6.078878272234398278e-02
6.546601698744963782e-02
1.674570569824627986e-02
1.115572195711956871e-01
5.317819670341878552e-02
6.038159986360099041e-02
7.555737958413706601e-02
1.093121828847827132e-01
1.563711006465084985e-01
9.283719505938065053e-02
6.796506179285267957e-02
1.125681156564157792e-01
1.280664322550846279e-01
1.008567719277344843e-01
8.631673845357458463e-02
1.705423146158995262e-01
1.751041810369570462e-01
1.501314307668751846e-01
1.912179013295322860e-01
1.530088110226392462e-01
1.265970167287104042e-01
2.032619344539061124e-01
1.748096430436656135e-01
2.471713508064631581e-01
1.374531262642471885e-01
2.080994635019955963e-01
1.627546180633698825e-01
2.302298031129312306e-01
2.387268008658930130e-01
1.860431691492156758e-01
2.660036225679680011e-01
1.627602447834513300e-01
2.332687689813018606e-01
2.334561955826544855e-01
2.370778821605883102e-01
2.525528500310771918e-01
2.323477365312948684e-01
2.349682229051631988e-01
1.883697394490689292e-01
1.966691922438234819e-01
2.101527959204009810e-01
2.506605970350869739e-01
2.305907292573844691e-01
2.187475646594811141e-01
1.314720165911442695e-01
1.629140342477498338e-01
2.103777909699415805e-01
1.804023614032302381e-01
1.833336742660423291e-01
2.122772039266968003e-01
1.837509608829588081e-01
1.297125192254759418e-01
1.533877437834061386e-01
1.723415014047242344e-01
1.810568417949224851e-01
1.294994406481413118e-01
1.723206684220014440e-01
7.045517257529340660e-02
1.272720301026493139e-01
7.628882232107757344e-02
9.128315219271762593e-02
1.333916226511492331e-01
9.148515681360014362e-02
7.204246711865451569e-02
6.822014221663133537e-02
1.260665333536096222e-01
1.056596083979014222e-01
7.384576839238432555e-02
1.978309797674845938e-02
7.997165008893136751e-03
3.947093800897842619e-02
4.297052216143434911e-02
1.297776510594082222e-01
2.120760979644619598e-02
2.947266261751296454e-02
2.813548674584461298e-02
4.904353287289862223e-03
8.289011036045794423e-02
1.485750879410560263e-02
-3.610405160919773898e-02
3.511564712540488076e-02
3.035301311316776149e-02
4.017319109274829214e-02
-6.076812833272771108e-04
-3.186375011008264757e-02
8.046774442426331275e-03
6.346057760908026257e-03
-1.558148569040527023e-02
-2.157949580266412329e-02
1.354470536860834587e-02
-2.466254584098058131e-02
3.710969965373514534e-02
2.023657487173832759e-02
2.921089934986777908e-02
-3.506405899281244548e-02
-6.683071224971297297e-03
-2.472487056450087956e-02
-2.743036976536913224e-02
4.165166726788603613e-02
2.367936690087948243e-02
-2.248446036763543029e-03
3.661503193301726689e-02
2.406662687844083465e-02
-2.508790969173564644e-02
-5.882455115466909273e-02
-8.379367023180217533e-02
-4.521918833338348098e-02
3.428006061982274977e-02
-1.552942227025361221e-02
1.199357926815784563e-02
2.658518752621389161e-03
-1.413930854337172409e-02
-2.708809219403830043e-02
3.008967792190524529e-03
4.871052545977937187e-02
-3.578169299922363822e-04
-5.850015419498746927e-02
-6.723526890231899811e-02
-3.788277284584068601e-03
-1.984494612368505745e-02
-5.079911082987190185e-02
2.612836783931208121e-02
-2.379651113060859274e-02
9.166284442462242429e-03
2.216113291790629963e-02
-4.978868744513362254e-02
-1.005145527205578843e-02
-3.084261566910611457e-02
1.494944239006323894e-02
3.425968090754189649e-02
2.879127050927417220e-03
6.916031526900769111e-03
-9.510686771544579060e-03
1.723490039887970102e-02
-2.818698495210469543e-02
-5.660803666084115310e-02
2.486084550011339461e-02
1.986960344507394602e-02
3.462111589100362596e-02
2.562201090217456831e-02
-2.459644405791495958e-02
-1.859368403514989609e-02
4.709995130614427761e-02
-1.235981791224541847e-02
1.660697278607898425e-02
-3.299997133776530478e-03
7.061947750516811562e-02
-7.115332244456213338e-03
5.695098158030851426e-02
1.701025191757377791e-02
6.765888131356813384e-02
7.260537984906428877e-02
7.015481524298068650e-02
1.094174398236178319e-01
1.323546953709524576e-01
-3.364960577787067669e-02
7.981732943939508218e-02
7.481988893513348560e-02
1.262791145196378584e-01
1.355147772330333733e-01
6.335538282881925110e-02
1.150767181080313561e-01
1.006266457433412781e-01
1.440155309414564433e-01
1.667254680175238590e-01
1.050655084109238940e-01
1.415146711734443785e-01
1.152180095043680991e-01
9.975189405847051383e-02
1.860457229773306576e-01
1.854321416576115711e-01
1.230452494053988488e-01
1.883168220085198741e-01
1.176486030773932073e-01
1.780599446288453902e-01
1.218683912168099376e-01
1.512546696915322009e-01
1.443222019911283016e-01
7.182509112776820637e-02
1.312298585964668807e-01
1.340093511489903466e-01
9.839174055472812985e-02
1.133001715478840765e-01
1.565751325144111861e-01
1.180798548016300659e-01
1.017180567549112041e-01
7.403063234278263460e-02
9.009938258700272984e-02
1.115615347827180331e-01
1.092099318463514573e-01
9.608148141508920936e-02
1.167972843769154029e-01
1.279321996093942260e-01
2.237372054537819510e-01
2.534556457019432885e-01
2.547844534650064441e-01
3.193958604055679995e-01
4.132849086724425525e-01
4.697581239382858098e-01
4.988902012593483537e-01
6.253319392192064896e-01
7.032056245815319073e-01
8.407512799652392399e-01
8.458776081978109929e-01
9.314085941286877057e-01
1.118176036495345027e+00
1.192041399834130377e+00
1.264387009951522645e+00
1.266954974731294259e+00
1.272165405003212513e+00
1.302199922005049526e+00
1.243091406515456132e+00
1.218696261774264711e+00
1.216232108667173240e+00
1.101458820520654580e+00
1.005081387486021383e+00
8.922775310660248094e-01
8.032659169086092676e-01
7.231933763981482910e-01
6.319457866157472958e-01
4.859556822642763785e-01
4.437066515255714272e-01
4.208080170560890010e-01
2.756621893946917257e-01
2.571183632523389995e-01
1.920597194487901338e-01
1.644099817220960047e-01
1.626218145516573899e-01
1.277773582343061376e-01
1.202169715968613439e-01
6.115888584150630525e-02
7.135788144707798375e-02
1.127192048043375860e-01
5.571065592351152895e-02
9.492808248566361740e-02
1.173819682181593410e-01
1.134045532683751328e-01
7.970868589308219287e-02
9.399595495684046065e-02
1.145389886253611461e-01
8.763673017198907178e-02
9.148408344545372328e-02
1.082042434885726878e-01
1.665876745198309195e-01
9.716757673730974654e-02
1.521607854147319361e-01
1.603901225353215054e-01
2.086582101515044863e-01
2.258968361891250665e-01
1.417300963547631631e-01
1.972697607557602761e-01
1.678380052811556944e-01
2.067502304937123003e-01
1.650795386254736985e-01
2.159535799124589206e-01
2.659040071457151044e-01
1.843700467684377398e-01
2.521012345853533843e-01
2.495255468839804591e-01
2.769978915176567469e-01
2.490855236675848794e-01
2.536079911408092857e-01
2.775531934617656016e-01
3.195207630006630661e-01
2.607163218892050160e-01
2.757685980267896575e-01
2.763477270746965142e-01
2.345426125942891016e-01
2.513401379650009315e-01
2.452693224982945286e-01
2.941579971577416575e-01
2.707573755953022188e-01
2.690801710457827456e-01
2.929106377984656007e-01
2.520927421634955867e-01
2.728391823723306242e-01
3.006311725834385773e-01
2.778507668456494661e-01
2.971019000618616568e-01
2.153721292314934865e-01
2.710463285782496734e-01
2.624852825555309965e-01
2.703560563313227583e-01
2.131621361848760887e-01
2.307564776763997294e-01
2.070748124434059201e-01
2.238921067017378697e-01
2.918567917756824670e-01
2.162592925656142140e-01
1.899886303058962722e-01
1.735949370418501669e-01
1.829439473402651728e-01
1.946682935991541630e-01
2.138866457119784625e-01
2.023947729453435262e-01
2.026806836993690908e-01
2.076851041066650194e-01
1.892060645228655358e-01
1.881147076855251010e-01
2.334466394767868713e-01
1.647189070666071897e-01
1.446317286517764256e-01
1.371472658457358884e-01
1.183125713386484756e-01
9.922116801633225347e-02
7.465193948852064110e-02
1.949340426169110796e-01
8.694486813762941635e-02
1.293176905819021227e-01
1.032578551450533955e-01
9.384345928991061347e-02
1.011841170517310262e-01
9.169605898570082347e-02
2.468532741511755141e-02
8.656458360333205149e-02
9.853048678300679875e-02
9.412833165936759783e-02
4.329421955699766511e-02
8.710383026627399605e-02
3.833484698535671864e-02
-2.502883167505755291e-02
7.464450800629605226e-03
7.891102624543667315e-03
1.056905226597273373e-01
5.904029047010675435e-02
1.819987575906401034e-03
7.716770434525946354e-02
7.897898640205350262e-02
6.916506274339881410e-02
5.068338120676062208e-02
5.939154686219269563e-02
2.002157989263564017e-02
6.188304199293213903e-02
4.892716775595189194e-02
-1.401204747878231904e-02
2.550683547317480343e-02
4.382835609854252717e-02
-4.985394016478461587e-03
3.364043253390945620e-02
1.617869183501235639e-02
-1.033007526007451160e-02
7.755493506108590562e-02
5.480635688648985426e-02
2.633861078892219335e-02
7.126897961058484277e-02
8.845880040231703101e-02
9.437081053956214438e-03
8.134059232467297229e-02
6.938236474575341928e-02
6.570436408040765397e-02
8.700931259855129718e-02
1.124579393945261685e-01
6.653120702683244791e-02
6.513834497670048518e-02
3.433535255184518020e-02
2.738610923144884149e-02
7.051279154263170867e-02
2.405425138154537734e-02
8.514081530022285516e-02
2.760029814021562264e-02
1.052441599448962206e-01
6.508562153931862770e-02
4.356716453917134496e-02
9.514108312302295423e-03
7.960386977758401872e-03
6.472403565877257736e-02
9.046807544934004630e-02
3.652190452503728535e-03
7.643132029135554784e-02
6.539655966637142326e-02
9.279857721369004497e-02
7.724699793133840697e-02
7.665978888763444465e-02
6.459423992369414669e-02
6.936425862662454200e-02
5.225088743868763763e-02
4.141792436081379036e-02
5.877483477169498371e-02
4.438908123948427653e-02
5.534749301038414948e-02
9.993941690219183827e-02
4.772586509631565610e-02
7.601716343068110060e-02
4.050965553712632811e-02
7.957920822349003054e-02
1.318062702686871868e-01
9.829218322216165538e-02
6.938250032580160764e-02
1.026263982493359345e-01
1.047699663032699152e-01
1.043395403758382856e-01
1.369739517691549446e-01
1.188378260949736476e-01
1.416434322196705453e-01
1.198373404423197230e-01
1.716737036642347336e-01
2.057443987214572778e-01
1.483404837866909021e-01
1.652385999019900520e-01
1.798323116014786394e-01
1.788176056362213717e-01
1.983417539489495118e-01
2.119685208780097974e-01
1.473960991724119762e-01
2.029408315143576280e-01
2.016045099792557194e-01
2.426322666994253918e-01
2.010558573731585918e-01
1.733191474237376073e-01
2.412952966471699767e-01
2.356061693999726148e-01
2.296032254271568041e-01
2.360692379872625923e-01
1.669402526556771627e-01
1.618568410838068239e-01
2.006456005108051277e-01
1.787898247076754599e-01
1.413089375815489435e-01
1.684435640851806859e-01
1.973332821548210436e-01
9.479930738425046410e-02
1.797988960670655612e-01
1.056471204139839692e-01
1.517353591177201255e-01
1.509519030380929994e-01
1.409736077832217105e-01
1.665171639023728667e-01
2.240253226875704717e-01
1.812127485871589949e-01
2.200175119122417533e-01
2.473206814011460197e-01
2.870005742815242566e-01
3.244787793805038456e-01
3.617459035352560970e-01
4.531917140747619976e-01
6.014716982428257586e-01
6.647829478943263481e-01
7.169302058367511554e-01
8.822035931819156573e-01
8.841148631594439866e-01
1.037406426988707109e+00
1.076040847217797802e+00
1.254142452741446201e+00
1.247559783219643670e+00
1.350465575746506497e+00
1.379337224089337788e+00
1.386431457846294402e+00
1.334489153917394200e+00
1.229093994295263448e+00
1.244219940508556776e+00
1.152845719046876827e+00
1.068459052321482083e+00
9.554944810950258827e-01
8.441300278684765734e-01
7.332651701868543315e-01
6.783923471481134726e-01
5.662575012850815659e-01
4.615958776192264912e-01
3.836294216660239842e-01
3.229486145132414165e-01
2.339057602546103787e-01
2.357354505532579247e-01
1.933171679779480123e-01
1.322986032818077029e-01
1.592537421577841505e-01
1.230909316123816183e-01
1.412112633563286646e-01
1.580871992707544582e-01
1.020842339750691052e-01
1.559101518978230072e-01
1.093341120451370024e-01
1.403026647174781816e-01
1.393773264364320252e-01
9.106484307998523320e-02
1.335843586579570363e-01
1.426690220372323903e-01
1.638123900710305447e-01
1.460852146165645959e-01
1.519388413464740073e-01
1.255152255548634965e-01
1.715190876444357415e-01
1.350257131602976834e-01
1.746381840735811986e-01
1.895677088200120042e-01
2.353052214324231894e-01
1.397813455968609786e-01
2.335545550020841077e-01
2.481407524173252777e-01
2.146285055237764361e-01
2.415288958756603710e-01
2.172373971376311830e-01
1.970845657075045165e-01
2.819372926280171443e-01
2.512012900506117030e-01
2.693435113705390238e-01
1.987429210911513533e-01
2.687241056229985325e-01
2.328063188943235440e-01
3.264050878451947302e-01
2.920177211471478573e-01
3.026676796511913459e-01
2.433096858038593935e-01
3.161124765782745150e-01
2.965931555402075981e-01
3.250642209214911205e-01
3.192002389882535041e-01
3.457200995750897565e-01
2.931251137301931209e-01
3.259219195785688639e-01
2.995991950642306612e-01
2.638761707501636189e-01
3.083602287208536685e-01
2.630555077410589027e-01
3.022270504107176792e-01
2.686280649738180260e-01
2.787566250189018602e-01
2.517525502276234395e-01
3.324768225182443970e-01
2.532274830273613109e-01
2.665214936078554864e-01
2.584222448408359241e-01
2.611151793513077912e-01
2.259544477003849750e-01
2.470695365833749102e-01
2.486854896321548103e-01
2.431799147220154445e-01
2.722442839590738517e-01
2.436130306112290200e-01
2.747841837868176262e-01
2.117005725805876371e-01
2.020093601786661919e-01
1.681095659940927134e-01
1.753033184428139379e-01
1.897025101527338165e-01
1.720307841658987313e-01
2.130969628306194630e-01
1.627014659558733978e-01
1.280038208275613432e-01
1.171178910957991343e-01
2.029333021139207438e-01
1.521503280539714953e-01
1.075906587758299338e-01
1.818740792352965263e-01
1.129557219268075841e-01
6.760849104412866573e-02
8.319434160170144366e-02
1.014080017701817077e-01
9.398047446044202613e-02
1.068236345576216439e-01
1.554584801133889471e-01
7.981802194191657540e-02
8.687103413371680127e-02
6.274256278174039636e-02
8.258645338427000882e-02
1.535918923177937989e-01
3.213721465381637332e-02
8.005947714881507526e-03
3.483070347188471638e-02
2.845789145709062828e-02
7.038189310505493790e-02
9.659932223721452715e-02
6.632600762405978234e-02
7.763595515846559436e-02
6.026228490018153972e-02
4.488977875719495081e-02
6.150532393164877959e-02
1.179721397972243596e-02
1.220536402848784729e-01
4.523428673686352708e-02
3.563379651634535072e-02
2.384844389964123693e-02
4.758182874109469218e-02
5.986544331365327432e-02
5.078016604684994217e-02
4.754531644249897215e-02
2.762052726310851650e-02
4.808743891035297674e-02
1.024409614787623046e-01
3.216632441297106321e-02
7.833277121891238370e-02
3.260743807248972503e-02
4.180193893950566453e-02
7.394017803542057843e-02
-3.056288008649405558e-02
6.340835200207495248e-02
1.629428294204954622e-02
4.070909945921596940e-02
4.937588420646601278e-02
7.986775865284212461e-02
4.608446433626824795e-02
5.112490078851299885e-02
9.064347820542967282e-03
8.054121653334481157e-03
4.742796151016905049e-02
5.812599753487988907e-02
7.476557119788360128e-02
5.300381834066897335e-02
2.110724553214629248e-02
4.363091623367278821e-02
2.528070471148876480e-02
1.316393240250658681e-02
1.968350101190513915e-02
-8.144498024361956912e-04
1.173418432279594442e-02
-3.721648195674873150e-03
6.622334315065889210e-02
3.468916219374611198e-03
2.295496755267057917e-02
2.765602414645412788e-02
6.235521425099057463e-02
5.569236111132014333e-02
5.610607358915228882e-02
7.495626710145447680e-04
5.869918031989700136e-02
4.201034327925540213e-02
2.835929196517512907e-02
5.168543122126585676e-02
4.347468211722042841e-02
2.276521478105926477e-03
8.542362987992230261e-02
2.865698983183615628e-02
1.267581205823581081e-01
2.775235761020174163e-02
1.126331378683045337e-01
9.000435703143641608e-02
1.515272823663930679e-01
5.775497136719130731e-02
1.454681460393107417e-01
1.458090748977382001e-01
1.191107856562541867e-01
1.626368318687352321e-01
1.048590435696495904e-01
1.532927287666356886e-01
1.253827962822682829e-01
1.484158501539882824e-01
1.786026878991816558e-01
1.520974888852089923e-01
1.471327106120008388e-01
1.586479328770086517e-01
1.643758352184094829e-01
1.736028533522762374e-01
1.939794466881842316e-01
1.838077385388688367e-01
2.036585265113976528e-01
1.819661608209215964e-01
1.235764611094343074e-01
1.761529449326004471e-01
2.020010373416568361e-01
2.350248904084466794e-01
1.060264222176104665e-01
1.633535846049297136e-01
1.880467762173932411e-01
1.515344920957361619e-01
1.143662053451831029e-01
1.443655092853871891e-01
1.532944153090080863e-01
1.577115227372904716e-01
7.505746936463113250e-02
1.558082759637470227e-01
1.548617984004094228e-01
1.345280241500656782e-01
1.115351717309807228e-01
1.881675578855524222e-01
1.407153632923416886e-01
1.709760720700392866e-01
1.962467449908451012e-01
2.387034721207216825e-01
2.547413773520337821e-01
3.053669991186783728e-01
3.581060045064320962e-01
3.875224600713091938e-01
4.608556222448220163e-01
6.169907201075617298e-01
6.903573118808324915e-01
7.914420538744921796e-01
9.212275920678265617e-01
9.862119939212798947e-01
1.112209601321703989e+00
1.140999480673677180e+00
1.295735575739884737e+00
1.359321922256456761e+00
1.351506412770282051e+00
1.367456173377909590e+00
1.316838696733241054e+00
1.313898320076587689e+00
1.214000423355992009e+00
1.191040761076031407e+00
1.019437753304835326e+00
9.370636148093979267e-01
9.063624378962976680e-01
7.444776927561673752e-01
6.634078842472327375e-01
5.092448385636025865e-01
4.858057571054747448e-01
3.672963504855463190e-01
2.990118575532008105e-01
2.488205749958917190e-01
1.982160602671833582e-01
1.779261744769594089e-01
1.435533769187114783e-01
8.578167034675386604e-02
1.295916193635469060e-01
7.603452155801114498e-02
9.211822074762839041e-02
1.237315950450948998e-01
5.982524828312942022e-02
1.106281631710535340e-01
6.387628228705120870e-02
1.093144425215423210e-01
5.369348376645018128e-02
1.053532858597410055e-01
5.393070449783853026e-02
9.137500214088058181e-02
8.658339970199042945e-02
1.266177062244868978e-01
1.247500510061987089e-01
1.345604722394661001e-01
1.493847854723167334e-01
1.348462131289797361e-01
1.944201734453576969e-01
1.194005605667127073e-01
1.523393821517002866e-01
1.700912622019479792e-01
1.889084029572878909e-01
1.887736027212300050e-01
1.830713472283220233e-01
1.942763286371144427e-01
2.024765565636842679e-01
2.148256275168572982e-01
2.106952044177194394e-01
2.153247404550250876e-01
2.083580074122056425e-01
2.392740398940281787e-01
2.553929591428312773e-01
1.889002440103827729e-01
2.705972113578772875e-01
2.467946192558918561e-01
2.462720515512727137e-01
2.780318056587394171e-01
2.854570416165329028e-01
2.394630818067551847e-01
2.905171264734525138e-01
2.629864278097494568e-01
2.272958380869783690e-01
2.380774688852772825e-01
2.821606367154894657e-01
2.591001134318282606e-01
2.069504832754587575e-01
2.970673435917059457e-01
2.827456589336371784e-01
2.710089539303946471e-01
2.393096209427991172e-01
2.697649443197840391e-01
1.964488452521683248e-01
1.947210183630490310e-01
2.262078455276271827e-01
2.219087497482388760e-01
2.219667782470379491e-01
1.454450729332917025e-01
2.105466425684574816e-01
1.375835051316719182e-01
2.080193121570792780e-01
1.248327702535933503e-01
2.157734808336359833e-01
1.878602677128091702e-01
1.821140318865654417e-01
1.625514012237608275e-01
1.777495270549303841e-01
1.802197009756916213e-01
9.504381144577318807e-02
7.851399362100386359e-02
1.541657130964952938e-01
1.021565563933155424e-01
1.054697797754087230e-01
1.233118042250893470e-01
1.413241568024818373e-01
1.132497381547514226e-01
1.233394845042707910e-01
9.336647109745742357e-02
5.377853348281974588e-02
9.682096628204116262e-02
8.130375156127210567e-03
9.897417133122587973e-02
4.211503135339377674e-02
7.652406499129220385e-02
3.867209491048023695e-02
-1.696883190723495749e-06
5.405021134245254627e-02
5.019456885803489504e-02
9.743820862564055163e-03
5.297416505401675302e-02
3.448205954217095637e-02
9.598281360989367045e-03
3.416331879628563273e-02
2.007688174613055793e-02
3.910662554107788812e-03
2.119685823640907879e-02
2.750454729509362040e-03
-7.654524716869930828e-03
-3.028964922578672794e-02
1.676702041800508941e-02
-1.376338117632264733e-02
1.761028276444517177e-02
4.168338553746727890e-03
5.005722905245694153e-03
2.863262904535409173e-02
-1.722389585846480220e-03
-1.858007060738602056e-02
1.559339552152532761e-03
1.322365475404128909e-02
1.591253363739540683e-02
-1.633462629840351510e-02
6.859072794875836765e-02
-3.776672210979764577e-02
-1.533391467374657993e-02
-8.421873580068581569e-03
1.471799960139016407e-02
9.824497337829326757e-03
4.411593078828714154e-02
1.945516928546001459e-02
-8.682959817878969921e-03
2.516453744342368043e-02
-1.115452482371648464e-02
-4.298876794349421049e-02
3.953961892421385682e-02
-1.051755039936003860e-02
-3.986595409025576325e-02
4.590986387399913909e-02
6.043794103547665136e-03
7.466483776113929521e-03
-5.566571283438725287e-02
3.108051135193767855e-02
-5.446783927897908689e-02
3.978310572011150431e-02
-3.160260658231774100e-02
-4.910377794323727424e-02
3.358482176290619736e-02
-6.968474164901575230e-02
3.654002702447848097e-03
-3.163438602624626256e-02
3.557059948952320111e-02
-2.461968750281904456e-02
-2.628742558287417916e-03
-6.267006258415333542e-02
-3.089164802781350222e-03
3.673153397712113771e-02
5.581703895006207700e-02
4.015152436845255413e-02
5.167172393254559210e-02
5.397866382712255412e-03
-6.832378686876458551e-04
-1.060103732492333889e-02
-2.723055959326902906e-02
2.687646100305256247e-02
2.881221059808890608e-02
2.489054319018376912e-02
4.518117018504054505e-02
-9.420358553440231347e-03
2.399857534378734350e-02
6.335056405075414898e-02
-2.221455722368537167e-03
2.333504884586978800e-02
7.578167658132634044e-02
2.793832448014992378e-02
5.882065475376497404e-02
2.479668320127440331e-02
4.936358428996028003e-02
1.542746118558718793e-01
5.806085690619462725e-02
1.043725590859890529e-01
1.065997140899781759e-01
8.244509629707334752e-02
1.198605246012239972e-01
3.783805920764027331e-02
1.694174649939021726e-01
9.803551411232930279e-02
8.503615022170829540e-02
9.479651288765887640e-02
8.197908215565413714e-02
1.191849254478467290e-01
1.397549492784308789e-01
1.064650512245844949e-01
1.137507872012631788e-01
1.665827319024693332e-01
1.091473484293152135e-01
1.369985609268022098e-01
5.848878520988920471e-02
1.257541370135300540e-01
1.045381395754362008e-01
1.016931928975451094e-01
4.951806311563065194e-02
1.022288393944717350e-01
9.471686731913693535e-02
1.023946733843804358e-01
1.220091375390039423e-01
3.525508491488781038e-02
8.154644388381608600e-02
5.866039249659378563e-02
1.388787104823473451e-01
8.724664084508940154e-02
1.434495530298876831e-01
1.045689185120819154e-01
1.467860684403672344e-01
1.398516710075117797e-01
2.605187156124679215e-01
2.406471654413236960e-01
3.589245852321829577e-01
4.606398110550697922e-01
5.287834596870832904e-01
5.523460363675861684e-01
7.050453837406397417e-01
8.541935687817421297e-01
9.342467610550537760e-01
1.005605043716615299e+00
1.067861505937208078e+00
1.184085385225988274e+00
1.213055747147917973e+00
1.233375471707974569e+00
1.267070220400971614e+00
1.285090709851377966e+00
1.213227669566086853e+00
1.179704265793176665e+00
1.101394881262786729e+00
9.893400056802902354e-01
9.209118680675140167e-01
8.307135466015475034e-01
7.289262503027341689e-01
6.557034518588802374e-01
5.321169885571644942e-01
4.045630693001373568e-01
3.729150014082495135e-01
2.650554376530442346e-01
1.952534089490289004e-01
2.222423080252253491e-01
1.411516308257458885e-01
9.330964136977268342e-02
5.894989689317896298e-02
8.384296998213149055e-02
8.820630433308487839e-02
6.742352049038807804e-02
5.877656893202450744e-02
4.192957718309506948e-02
-1.649214478409313789e-02
1.780207229449180112e-02
5.031226850668681777e-02
2.276194338670147616e-02
1.774910844087874279e-02
3.843840648295577395e-02
1.488515920399560710e-02
9.166411319075432051e-04
5.615502703492016717e-02
8.235975539316744976e-02
7.680680642122067470e-02
1.373396113649617278e-01
1.123560560568756389e-01
1.054542145269138226e-01
1.264166843497963044e-01
4.184585268019817839e-02
5.925051643224180792e-02
1.299417440329232176e-01
1.659549877052520772e-01
7.981764258198686957e-02
8.788101161586402144e-02
1.662457685279058184e-01
1.506240591317795918e-01
1.615674703127788214e-01
1.472546504912494170e-01
1.406170945268121475e-01
1.579045867185681906e-01
1.732949292494391780e-01
1.395104772327968867e-01
1.437391837075567835e-01
1.783641146821229873e-01
2.467839962201138770e-01
1.640657471104605414e-01
2.056945825516480197e-01
1.960440943059015562e-01
1.721480067678404224e-01
1.954734043201599158e-01
2.071893316357390491e-01
2.158625649401244573e-01
1.937086238755086343e-01
2.342176055400964629e-01
1.899069187610689102e-01
1.714085627528757205e-01
2.600592705314162534e-01
2.012447546247850827e-01
1.689818258293149245e-01
2.341249247420208457e-01
1.405471440950389062e-01
1.940631960502321174e-01
1.289380919017892035e-01
1.094055918791697612e-01
1.519397827450551519e-01
1.225620014094764704e-01
2.170261401212341401e-01
1.359145567370660668e-01
1.342776373291530989e-01
1.381450880493257649e-01
1.351615109116847679e-01
1.297390299997121521e-01
1.453466041902023165e-01
1.431469285741870101e-01
1.024695047040262985e-01
1.083298139093535062e-01
1.291827126677076998e-01
8.037198520549257430e-02
6.772605738714530810e-02
5.674292966289132961e-02
4.118036238106434488e-02
7.100982747460755917e-02
9.594208753106706067e-02
3.655263349001201117e-02
6.140285430983132009e-02
6.795924423091162514e-02
7.370237922473638070e-02
5.056731795643478605e-02
3.139904623013965723e-02
2.173539534983642829e-03
-1.024979743138081795e-02
1.300698191687976735e-02
1.720801621918593288e-02
-5.108950477723014916e-02
1.711198696220299353e-02
-4.206223968854345963e-02
1.380820445847813494e-02
-2.003617192165348115e-02
-4.264789278411916518e-03
5.754487651554070216e-03
-8.332073939690293196e-03
-4.188429649250434428e-02
1.718158221625754045e-02
-3.557735873730189652e-02
-5.399191371532791051e-02
-1.900807874399417646e-02
-5.803621453387743101e-02
-7.470999420780760625e-02
-5.696573566362413132e-02
-3.840513790560647067e-02
-6.051389867896470043e-02
-5.011475210105917344e-02
-1.075890839724718134e-01
-4.388651845696041331e-03
-4.075638256827567724e-02
-6.731209314864655680e-02
-4.938807192735546192e-03
-8.774466118083078248e-02
-7.483707579047579883e-02
-6.142862116127437155e-02
-6.769887294883449036e-02
-6.098053441533199392e-02
-2.895933034031631173e-02
-1.960733625455247930e-02
-1.727937099730942477e-02
-6.226426130514044199e-03
-6.977536810866423467e-02
-3.551378661034205325e-02
-7.026911508743308166e-02
-7.108409776121869805e-02
-9.391276413351476449e-02
-2.461317230814157042e-03
-1.071750399029627182e-02
1.998512179786698234e-02
-2.432150085787440630e-02
-3.532476855393467535e-02
-6.268394492455268974e-02
-1.420706425872667739e-02
-3.568684435213718281e-02
-8.664418610925869735e-02
-4.490566141603215961e-02
-8.856290562475674366e-02
-3.712930264214912845e-02
-1.961067339690293621e-02
-5.705475025424096291e-02
-6.948258859027911516e-02
1.215945359885806099e-02
-3.721133865609337066e-02
-2.735827034522721191e-02
-3.360732304111930385e-02
-1.328753875055144890e-02
-2.008049271074544700e-02
-4.709972340925835249e-02
-8.885796501808204684e-02
-5.452946152681825698e-02
-3.283425009005340456e-02
-1.020570199202604222e-03
1.548248430366661738e-02
-3.582279258071346950e-02
3.222330508658866055e-02
-6.440577077970764674e-03
-1.149416923879702235e-02
-6.430514859661839999e-03
1.275946773349040386e-02
-3.882694517934472123e-03
2.856421598251487892e-04
3.192337490672203515e-02
4.354034838828589604e-02
1.513761597835586864e-02
1.790795504138689709e-02
1.162521758494503010e-03
2.094055632515021137e-02
7.237639684473526347e-02
4.558081014216323890e-02
7.731910298377073221e-02
3.518080961704626169e-02
7.033902255679774784e-02
8.445917713724086784e-02
1.227206964613559159e-01
1.989958944194812618e-02
1.123111357142405897e-01
9.028169165000973773e-02
9.260106691464739526e-02
3.646445225350281039e-02
5.235499091632109941e-02
1.142946745167815747e-01
1.448421046332351858e-01
1.079733634660701713e-01
1.468003876682443531e-01
1.579116067067245360e-02
4.994872712980504004e-02
4.523124676169427982e-02
1.275327843275043671e-01
1.089558908844239782e-01
8.936685756131222680e-02
1.142736099129006144e-01
7.330442079040788705e-02
1.156320021595440006e-01
1.207532843667600275e-01
1.546007303533990240e-02
8.565908298749086436e-02
8.137936032489642701e-02
2.393771899346272547e-02
1.278763457240275625e-02
5.534341462636910985e-02
7.197965380651272227e-02
9.143406991649991045e-02
1.253191244312132357e-01
1.060440834319252845e-01
1.363074891850626358e-01
2.377388101005149801e-01
2.186805220080553225e-01
2.461806787993572609e-01
3.491591227374294393e-01
3.889084399600291064e-01
4.739918310603143392e-01
5.492898884316342878e-01
6.888993596254350260e-01
8.240887647023842355e-01
8.973256253976364949e-01
1.001406656512693560e+00
1.090727179280494452e+00
1.188082603363905143e+00
1.180108739847361976e+00
1.223552440930288476e+00
1.270155935436965589e+00
1.254474082314539052e+00
1.203225655048231202e+00
1.184585309222954574e+00
1.047876709374937709e+00
1.059029496609371623e+00
9.112951959792315870e-01
7.752288383942893546e-01
7.623993139489405602e-01
6.326047348009740112e-01
5.465725956189398937e-01
4.950661442000113821e-01
3.869211299743386401e-01
3.233484578307807000e-01
2.338344412760151037e-01
2.362036616225534902e-01
1.427591720862612934e-01
5.366069918391231514e-02
2.233568712196168371e-02
7.643722623235049696e-02
1.058793159045290366e-02
3.411135297248112791e-02
4.222119511482681775e-02
1.084354144106664669e-02
-1.273149292298240282e-02
-1.111044769468119003e-02
1.563512695075681275e-02
4.323721481410614659e-02
-4.185177016131864935e-03
1.004450601603573412e-01
5.956004411791243625e-02
6.070884188762860206e-02
5.282497636968601362e-02
6.389570214386111613e-02
7.864273627803974875e-02
7.785255364686424762e-02
1.214486294291774737e-01
1.258865801127002360e-01
1.005413307914106991e-01
7.937340361291955748e-02
8.066790750579427849e-02
1.146078340145396807e-01
1.144271283185100269e-01
1.463468067356511193e-01
1.865340341885580733e-01
1.514088218883872794e-01
1.276067898067708151e-01
1.165990906720353049e-01
1.563565009238617742e-01
1.742078570809263982e-01
1.426878933875056765e-01
1.770971238152997951e-01
2.200015295297785556e-01
1.736544228051233596e-01
1.862699186628582471e-01
2.190087376435007893e-01
2.460832046770930204e-01
2.230859285533307312e-01
1.612819072547079513e-01
2.503479042401656196e-01
1.888138463936971656e-01
1.951949135299899662e-01
1.709344656180940003e-01
1.954311029098533270e-01
2.197333423620682069e-01
1.748207789237104792e-01
2.034176080221997140e-01
1.596682694982259620e-01
2.219381603000630254e-01
1.886379326893812824e-01
2.057018056299926845e-01
1.783054755316790529e-01
1.971558253504880343e-01
1.632396594996140538e-01
1.488703765995718076e-01
1.808119128315082147e-01
2.107752025434144194e-01
1.152909546475952562e-01
1.281484269779480378e-01
1.850578243901579989e-01
1.501023221442025768e-01
1.473393044903927862e-01
1.999936866083443232e-01
1.183207569619383615e-01
9.390078073770291578e-02
9.112155222681345146e-02
1.428953524789585428e-01
5.085436462371288602e-02
6.635875039421439137e-02
7.662117630189832496e-02
3.757037599493408958e-02
5.023038358100383877e-02
1.060799580431699141e-01
3.545152130423471354e-02
4.012203162901364917e-03
5.334219631478567814e-02
-1.668715730103879913e-02
8.138174276028439791e-02
2.228627497007550778e-02
1.613095295524027972e-02
2.397281833677761265e-02
4.699186245643697385e-02
4.048577861875582440e-03
-5.506120117704821348e-02
-1.401762329958326433e-02
2.829569251159673449e-02
-3.086871493176918807e-02
-1.208861156650031798e-02
5.802649248103086688e-05
-2.783641413279282564e-02
5.548726592451418138e-03
-2.926821814121829957e-02
3.900269969532240560e-02
1.859872764670685713e-02
-1.568898164637143322e-02
3.057780530332486479e-02
-8.594503694218109946e-03
-8.445796462809535693e-03
-1.918389987689540777e-03
-1.284348973722258119e-02
-6.011692927739356596e-05
-1.359305003604872886e-02
-1.216407394931425662e-02
3.019026865569980275e-02
2.233250642328302171e-02
-5.898477904531189420e-02
-2.591214010860136419e-02
-2.926701362035936949e-02
-8.029545473160938640e-02
2.532153767504038977e-02
-5.440495895750532135e-02
9.763410046459315705e-04
-7.161854038897072505e-02
-3.372545104947993755e-02
-3.610761460682525292e-02
-1.876872521269050409e-03
-2.249367768542702428e-02
-1.134395021961678851e-03
-2.179867717937605115e-02
-4.327077654736699586e-02
-5.074828914857233003e-02
-1.464075902328974138e-03
-5.550537198866038746e-02
-2.976069767945227484e-02
-6.052297660299287008e-02
-2.284008702354732231e-02
-8.985838744536282785e-03
-3.087731126045741015e-02
-8.075206039209746611e-02
-1.007044553545527465e-04
-3.669280339918383482e-02
3.440665580991669747e-02
-9.313744732861364145e-03
5.701664461738420453e-03
-8.324128422690468820e-02
-3.920503904669181416e-02
-2.077907355893429675e-03
-2.049347880114070833e-02
-6.613669766521704241e-02
-5.266514804339789135e-02
-1.547700817891790176e-02
-1.892705257213947792e-02
-7.457653484103514419e-02
3.479944327583500696e-02
-1.130137921038069926e-02
1.778541992001260105e-02
3.095042726494148105e-02
-2.568063960839316734e-02
2.151066019406573659e-03
-1.379258727195755221e-02
2.793215148733949049e-02
3.266060906644394773e-02
-1.051711490713884423e-02
-7.291642791764810921e-03
-1.080911178343435183e-02
4.123763687627676755e-02
1.653663688731182510e-02
-3.201232353862583369e-03
5.121987205462984194e-02
9.049550884524363431e-03
2.247403285657858379e-02
4.877914477994282211e-02
6.804436296433737097e-02
7.514138385565601042e-02
8.734284578173986957e-02
5.076334278797448030e-02
1.137128827655968233e-01
8.929151218251220323e-02
1.201879720860019596e-01
9.079741481391870317e-02
5.877908849786752515e-02
1.592854305439545815e-01
8.193151546121180129e-02
1.004774723104497058e-01
1.532113969711985935e-01
1.564546345930235283e-01
1.497527196955928119e-01
6.811147967209855991e-02
1.162373919225989372e-01
1.274593443988806529e-01
1.134904193333555605e-01
1.086771893717547594e-01
1.661894430755977148e-01
1.618210996757697973e-01
1.053433683858120973e-01
1.306339491385467844e-01
8.827401204731266660e-02
1.556367698197463068e-01
9.090942819740978342e-02
8.443150878887363542e-02
1.546743873826009752e-01
1.188338911756005867e-01
4.676841289401548890e-02
8.628204018265649144e-02
8.969783871055414526e-02
4.147221006047888126e-02
5.232777279893541938e-02
1.034304908263579126e-01
1.503641918785875997e-01
1.772267842683613037e-01
2.262724217517292358e-01
2.051749075915012266e-01
2.315869801230983627e-01
3.097476151727562299e-01
3.663047336529683951e-01
4.052116745840180778e-01
5.227337080975184014e-01
6.096059007950329622e-01
7.568766129285598998e-01
7.923550425472137837e-01
9.020205540892207718e-01
9.668084138147119422e-01
1.043757837107866182e+00
1.166076124176427475e+00
1.279925458448879505e+00
1.269004548603080984e+00
1.296756036076277097e+00
1.323307636005147225e+00
1.307489735077946857e+00
1.218356997318725599e+00
1.177180881405544444e+00
1.079783598793290000e+00
9.640556220795830633e-01
8.608500441488361465e-01
8.169341318124294649e-01
7.197504131476953892e-01
5.469405308054423598e-01
5.136833959017218509e-01
4.541655961742217529e-01
3.682549552340176335e-01
2.570745379317022627e-01
2.328110685672326596e-01
1.858952815252210289e-01
1.226446405179539290e-01
1.601692196966180148e-01
1.155578228022084153e-01
1.508215166917024619e-01
5.034124126039888486e-02
7.528303362465997572e-02
1.015481046698270690e-01
3.808367574698716135e-03
7.781026962929954438e-02
1.493159024765312176e-02
2.309718463743084746e-02
6.653872793855984680e-02
1.128578889726630230e-01
7.900155042360937352e-02
6.791782190457211488e-02
1.115863106953648154e-01
1.261022375357190861e-01
1.286805851662243538e-01
7.058927680891603773e-02
1.376979768785586700e-01
1.653688959290944560e-01
1.435099118225944270e-01
1.631062423599922151e-01
1.940081760262110655e-01
1.298721836803496676e-01
1.650073566723811169e-01
1.431919729810010034e-01
1.730163380777086368e-01
1.594257578557562727e-01
1.977489872350549349e-01
2.522033786540866518e-01
2.004795287537071702e-01
2.193359377107855501e-01
2.655596518509293347e-01
2.040824257933220032e-01
2.197802877989263881e-01
2.348060660196150673e-01
2.285166117341652092e-01
2.847782975636909408e-01
2.186853751206872809e-01
2.444644553501268414e-01
2.901763643262971204e-01
2.618449961955522376e-01
2.371013051504793079e-01
2.467278089700488675e-01
2.740169047696269233e-01
2.143838883748067636e-01
3.009284734835040998e-01
2.630868848071531430e-01
2.758794893093386436e-01
2.503053053770759595e-01
2.536755259892973235e-01
2.615556265247756529e-01
2.643598201964185712e-01
2.980550110103823980e-01
2.603813946663361412e-01
2.539335030484779487e-01
2.305513689407532874e-01
2.552894368117977764e-01
2.155707283028869270e-01
2.356612745533595010e-01
2.184456507228222377e-01
1.761964894683846483e-01
2.245819688874675091e-01
1.735376201392101470e-01
2.657273387048397773e-01
1.983730620869001982e-01
1.940854897290932024e-01
1.221816139168955817e-01
2.243121431591462434e-01
1.273145780138324468e-01
8.742468276327096388e-02
1.516679468033349520e-01
8.052597884941449513e-02
1.378647745000160241e-01
1.189291719112356011e-01
6.742257410535607010e-02
1.055236224283886970e-01
1.160721161856365508e-01
1.423508077656860105e-01
7.510977149858460988e-02
1.283319159525798947e-01
1.185397587244177986e-01
7.391471589158579714e-02
5.986421204668086749e-02
4.503143531365073893e-02
7.820817189297880889e-02
5.181547472328668080e-02
5.934335997036607052e-02
7.585184767470615208e-02
8.598817424790873576e-02
6.095059246152774446e-02
2.787791353037567810e-02
2.450363119010635568e-02
1.174310275807582266e-02
8.522692243748440644e-02
4.184244435573239440e-02
7.348702991139663410e-02
8.577255824197073386e-02
2.541651374418141263e-03
9.462284487067124106e-02
6.488668766400990107e-02
6.065060909986108584e-02
5.904859264452973905e-02
6.354454672292446371e-02
3.666325211743765022e-02
1.098129596560609711e-03
3.559664020931476575e-02
-1.538383846246366843e-02
2.736095815196733921e-03
-4.570215422320597631e-04
1.438801959050975063e-02
1.808708944897578427e-02
-2.712846033209552477e-02
7.701711617301244817e-03
3.126457983033337218e-02
-1.575880821104324800e-02
1.194278199014961114e-02
4.009740285972304696e-02
-2.765043775575588142e-02
1.312645174743011164e-02
3.197387746979316048e-02
6.161732038673918554e-02
7.706151197202951164e-02
4.693784248685893556e-02
8.296109424671296861e-02
9.302934461881307016e-02
4.507510233606053240e-02
1.143183700028825925e-02
2.431394613537762872e-02
3.162914866770356881e-02
5.013998694683104163e-02
-1.811005603211202075e-02
2.337346256648824630e-02
4.149997574309645387e-02
4.380655848889471182e-02
3.344454453604681077e-02
-3.696587237613374599e-04
3.355309295567122235e-02
7.281644074325552968e-03
1.795974208464324456e-03
8.997971368671578429e-02
-1.852780399822560875e-02
4.032053098662528867e-02
6.160226089897040402e-02
6.926038363226624806e-02
4.950965505152893353e-02
4.140381377174951610e-02
7.961488411994058212e-02
4.810520073015682463e-02
8.496666527475885133e-02
8.928480115069505063e-02
4.901421202256488197e-02
9.602653793352119993e-02
2.253542597280293672e-02
8.980133880207097352e-02
1.160939872398231848e-02
1.060687556327560566e-01
1.493982156964364649e-01
8.772609528571148618e-02
9.466538878651913069e-02
1.428632846622147345e-01
9.505338764415546815e-02
2.818430717961967202e-02
1.177394174190288800e-01
8.847970019861235713e-02
1.176958808242515586e-01
9.528503119161746415e-02
1.802951850882952012e-01
1.548979621600757584e-01
1.349971607387487338e-01
1.701525527846848018e-01
1.560326341962320895e-01
2.098980954463055548e-01
1.834840581436702478e-01
2.164180404489509379e-01
1.595894145079976845e-01
1.872961848870652868e-01
2.161780679682578643e-01
1.933337872454457818e-01
1.206566419783487443e-01
1.821492815039501001e-01
1.606261847209266846e-01
2.273880315664518759e-01
2.105731041275801241e-01
2.182167946518813739e-01
1.610296617864092061e-01
1.572456541697091204e-01
1.413173336333585217e-01
1.672005001332051988e-01
1.699315494658369674e-01
1.977429478587046652e-01
1.557051671231783063e-01
1.310620937734328639e-01
1.842314788565257155e-01
1.229145128215076016e-01
1.844545049595902875e-01
2.268985796427383794e-01
1.340404399971531491e-01
7.505927216651281375e-02
1.645807595503206988e-01
1.823150965335426088e-01
1.856798114218229101e-01
2.383699688565664165e-01
2.408882629327204761e-01
2.524794256162137263e-01
3.058183399397952362e-01
3.810303543166512208e-01
4.577656743914168547e-01
5.324991354094976703e-01
6.349803569907126466e-01
6.999243312388128135e-01
8.889183069642129231e-01
9.238994020183507461e-01
1.005715495232829326e+00
1.136735501013249161e+00
1.192824307252742688e+00
1.263768283832333639e+00
1.328116996349528733e+00
1.350905117668063316e+00
1.312694778093681069e+00
1.350592509681552533e+00
1.285942512145131555e+00
1.212647416160176350e+00
1.197898510957663198e+00
1.078339151707810029e+00
9.328210838131271165e-01
8.444744282675835656e-01
7.430582083759503798e-01
6.859666873375060980e-01
5.436843966371738279e-01
4.606430773330184025e-01
3.699049781616437493e-01
3.586373039781378669e-01
2.725753405352175918e-01
2.033886251958505198e-01
1.385637807849962877e-01
1.601629114603117798e-01
1.241720784393699761e-01
1.224255844467300458e-01
1.569024611254075940e-01
1.615037357060133405e-01
8.465034954894762320e-02
8.274907743792966897e-02
1.138215504225796870e-01
1.342925557448260698e-01
1.438107501308287794e-01
1.718084249930034724e-01
1.313568875560303384e-01
1.286235519379479719e-01
1.230962801421823238e-01
1.175641370107400607e-01
1.626146150890080688e-01
2.189590594053884565e-01
1.644331185698476860e-01
2.293571760802685933e-01
2.133754900302309854e-01
1.165468401516338848e-01
2.088436058353007607e-01
1.350990584928883909e-01
2.242600839389349565e-01
1.932722116536731982e-01
2.183388461809408210e-01
1.984842149257182164e-01
2.465113619707675618e-01
3.013791178825135364e-01
3.163658418117634707e-01
2.231865804971027156e-01
2.518327183912024148e-01
2.906257201374561339e-01
2.704015838813934591e-01
2.553168476866592984e-01
3.043867061511162375e-01
2.671637766519066037e-01
2.951007786155271928e-01
3.084000699254275668e-01
2.975177051095765912e-01
2.702901891006464496e-01
2.956933425239285929e-01
3.174552972272280948e-01
2.904552929325270316e-01
3.086118135923069383e-01
3.186291182316858261e-01
3.262853381077639447e-01
2.964463449293557873e-01
2.752731180435610825e-01
3.080928206119086243e-01
2.850177046978581430e-01
2.585201528549158079e-01
2.450536276110057976e-01
2.965901655111291557e-01
2.402002462246078940e-01
3.188660920838050084e-01
2.552656813048049811e-01
2.181014915212116378e-01
3.095137655259350140e-01
2.521732061805019853e-01
2.564595322103703778e-01
2.165765975545550226e-01
2.738871201260199006e-01
2.260899646341574531e-01
1.655096923052275515e-01
2.108959303090430504e-01
2.314809955055221469e-01
1.823465933140615558e-01
1.556630372127317530e-01
1.846544902800813792e-01
2.446613035806878833e-01
2.214879231421372219e-01
2.112415451048841597e-01
1.973291167966582937e-01
1.548012568684969392e-01
1.373333990786039793e-01
1.558966117679063679e-01
1.661351901990916757e-01
9.911693496849610652e-02
1.244034552361711204e-01
1.673176294069121106e-01
1.417735889924903181e-01
1.450951689779082232e-01
3.610401736476267359e-02
1.143183093711510612e-01
1.054274908005660288e-01
6.207417742618678153e-02
1.063084285733809503e-01
1.277049156475319469e-01
7.891798706745285774e-02
9.929701653890554702e-02
6.840913639807315316e-02
8.901853201187012732e-02
1.758679517753125587e-02
4.917764728316070810e-02
4.866033972903489879e-02
6.225299243218192224e-02
3.652864464115970072e-02
8.743763977599462722e-02
1.012183223527127474e-01
7.685653765886371613e-02
7.157042556383830245e-02
6.423029928202694805e-02
9.466940814154078954e-02
2.161110050157966089e-02
-8.923526014397907546e-03
1.758406065129987372e-02
3.679803477696320935e-02
5.884739990234041929e-02
7.717101175326385176e-02
4.701623804700626186e-02
2.829750078258982254e-02
4.871215282726966411e-02
7.986327612333837811e-02
4.519449451193242179e-02
3.461631838000811534e-02
8.084415680912104829e-02
1.091621100559523744e-01
5.744334586272327459e-02
2.535324168399740938e-02
2.521257389868168663e-02
9.830153293813501114e-02
7.155870428315327936e-02
6.191250137501248807e-02
6.411002743716599783e-02
3.673127018020543033e-02
7.330640439297436695e-02
8.124790089244907088e-02
5.416156815126960816e-02
3.605335070446395729e-02
4.272624557462004896e-02
4.704996801368396819e-02
7.900972861283266091e-02
7.650723070777673551e-02
5.690344721522240523e-02
6.035569202192381244e-02
5.094333664351545499e-02
-2.718228821077588175e-02
2.995365769578158324e-02
4.467189394668142494e-02
5.367347205395296694e-02
-5.857391522260536887e-03
8.668864999648900893e-02
2.165230731570264369e-02
7.087782577529683214e-02
4.497158207697851684e-02
6.852499261466502012e-02
1.120486241457927662e-02
4.163984754227977036e-02
9.991575941846980724e-02
4.661783690037159950e-02
2.275015904824377252e-02
7.393777713196411638e-02
6.910650837412943281e-02
5.733189958479742443e-02
1.013536980735727233e-01
6.328577338441160327e-02
6.119654924631930809e-02
1.097023139879411413e-01
7.578588267431564385e-02
7.523713065863898986e-02
1.915768767327155342e-01
1.374735729031670850e-01
1.677396629950462792e-01
1.211457484873431911e-01
1.081553174539102435e-01
9.728158551234225571e-02
1.338037120577766081e-01
8.669162821334625013e-02
8.717875564507628072e-02
1.425810844897396068e-01
1.532696351789332168e-01
1.584040307715540719e-01
1.898317408667714312e-01
1.565722176580697234e-01
1.972604030629110938e-01
1.851892306216760264e-01
1.780640375684140742e-01
1.536615650302735336e-01
2.560175953513000868e-01
2.413238132566745131e-01
1.836120282544155269e-01
2.268605433503660951e-01
2.086921925202194494e-01
2.194711910551614686e-01
1.689106133829027800e-01
2.262691580959465265e-01
1.378816009557238820e-01
1.171910343031585949e-01
1.657620740198462728e-01
1.510021581573090521e-01
1.830649303953089113e-01
1.092649774503116067e-01
1.607241997485741869e-01
1.321367121303487213e-01
1.938107109098346215e-01
9.969888065990592518e-02
1.906672643802796441e-01
1.839968767842125319e-01
1.518616225160402400e-01
1.801620421021573604e-01
2.047303759344447083e-01
2.006935576862295956e-01
2.595612543722538024e-01
2.566150603965094978e-01
3.469524623222397519e-01
3.648718105268856093e-01
4.387443147505916130e-01
5.510717766725928835e-01
5.770072706910421845e-01
7.515840053917398622e-01
8.036637643842682310e-01
9.279405838951160224e-01
1.013455236623268085e+00
1.122727406865973387e+00
1.174599248677608898e+00
1.268949361897193207e+00
1.294277526773400577e+00
1.417024346601810203e+00
1.320816001629602665e+00
1.353864384332347015e+00
1.261171995887592878e+00
1.199929728941315110e+00
1.177226022749769285e+00
9.735778183861452106e-01
9.358923409669288596e-01
8.406402071069714044e-01
7.833163870202057844e-01
6.562970032122756869e-01
5.203881894054641633e-01
4.750644268520727298e-01
3.985955981350769450e-01
3.470996652929472237e-01
2.237505865868485155e-01
2.278542716214789488e-01
1.947241128510191766e-01
1.706965344218248082e-01
1.553482892354202949e-01
1.335688376232637142e-01
1.395857822211084287e-01
1.392567810299936704e-01
6.006626890991274836e-02
1.058408594206754483e-01
1.175681653738432086e-01
8.661689647593132091e-02
9.027660812406027024e-02
1.782915383377877139e-01
1.037564985584108063e-01
1.476651972379142141e-01
1.559751402279728749e-01
1.666715536481941928e-01
1.738789327153034137e-01
1.439135094757447164e-01
1.466590738055621734e-01
1.483258361101619238e-01
1.638198929953194050e-01
1.628296507388766190e-01
1.644661508044040210e-01
1.340236998555107417e-01
2.039256006553890888e-01
1.694588399013966240e-01
2.013026125426777835e-01
1.868587127983419860e-01
1.748638734259040373e-01
1.895966343243525865e-01
2.516974095029336222e-01
1.825237876253025526e-01
2.280108528513547228e-01
2.552189444565307053e-01
2.295166985231581191e-01
2.293665220871007882e-01
2.405485824464651534e-01
2.357248327161008128e-01
2.202297092212761043e-01
2.597813466398971038e-01
2.092527179868281795e-01
2.645325634090769373e-01
2.971991964785696827e-01
2.723245006108697130e-01
2.869212343448639957e-01
2.753064776270982006e-01
2.643281809660684711e-01
2.685287281050128816e-01
3.058824284949685501e-01
2.930423095722843319e-01
2.863018686280093816e-01
3.077808666799335402e-01
2.948225861117245716e-01
2.450827656759266837e-01
2.386852873670301245e-01
2.734169562567080325e-01
2.604351224012567134e-01
2.764597989084802698e-01
2.423661033331597769e-01
2.487767130278411565e-01
2.677778382879207886e-01
1.869863698525351947e-01
2.067676644491337479e-01
2.433526931865174769e-01
2.034768377147316287e-01
2.060067659728636591e-01
1.760135903746835873e-01
1.980076646936872187e-01
1.774286272802129139e-01
1.581375619092546536e-01
1.822060363686102691e-01
1.376318826284226582e-01
1.655006257342389597e-01
1.553743584278885204e-01
1.451389759733721918e-01
1.556855035199818937e-01
1.913385739776203576e-01
8.248624779084753889e-02
8.776262232825443599e-02
9.635164489952198486e-02
8.268908143466338623e-02
5.406557791955431125e-02
5.995372875122517708e-02
1.294530742803837731e-01
4.969123462007895425e-02
9.550447318468588409e-02
5.348295101130470797e-02
6.904139874800369059e-02
4.802460427234942625e-02
3.959316476332564588e-02
4.480782883803247074e-02
8.879630700053066372e-02
4.306028632403061107e-02
4.121598655103553277e-02
4.929685539041619297e-02
8.476503054026035544e-02
2.753509128134437600e-02
1.654183903180063767e-02
1.334367394651918802e-02
3.821179645356805737e-02
-2.841402358212091750e-03
-9.479962886821399065e-03
9.711156308565551884e-03
2.800948071968027697e-02
-8.299328624648168173e-03
5.332690901819776147e-02
3.906923286748340690e-02
2.391551421096999724e-02
4.422031067704777080e-02
1.728026850196035663e-02
6.576024253795809127e-02
-1.780177732542567726e-02
-3.932200819251001345e-02
-2.690382874782964312e-02
1.933817477149983588e-02
3.421444236722752386e-02
3.917531065967474330e-02
6.495829097339544944e-02
-5.881671816698188018e-03
1.617658085128899706e-02
-5.870406288549674667e-02
-2.300636502302095404e-02
