1.242347058412021976e+00
1.222796611277255252e+00
1.194764609063134086e+00
1.133760448216562855e+00
1.088394052027761738e+00
9.803218918926737135e-01
8.790946673953208279e-01
8.539178949734800295e-01
7.117914717120296109e-01
5.938029104522651869e-01
5.117608756964243666e-01
4.001127117222559315e-01
4.016825633751404667e-01
2.633093925301184801e-01
2.390526322614491272e-01
2.049260936207737971e-01
1.005479492742511888e-01
1.180666409436174485e-01
1.067414438271997723e-01
6.839083339875418055e-02
6.675383112965947718e-02
8.980383403077939197e-02
1.026736160797178943e-01
7.495052651988146075e-02
1.787433347012248527e-02
5.051451035583996024e-02
5.099340638936445541e-02
3.713421379887592300e-02
3.452162407318302983e-02
8.946443842856371953e-02
6.942144006939177103e-02
1.140348053368190478e-01
1.326990611362660888e-01
3.917109565210075833e-02
1.674004745225454449e-01
1.341387204725973392e-01
1.400674418536286547e-01
1.467711692000661095e-01
1.310023887590008318e-01
1.026601742866328770e-01
1.444843823371383396e-01
6.949240668385728292e-02
2.132966177106721262e-01
1.463450841217971421e-01
1.814843733941619297e-01
1.392964696206453468e-01
2.226746021242367868e-01
1.932511833254893507e-01
2.323691204916766284e-01
2.373162881352584297e-01
1.579524109272289201e-01
2.064669758944782108e-01
2.055681046310998406e-01
1.935628928795915527e-01
2.505529823063517569e-01
2.286326623263807423e-01
2.397456533282622815e-01
2.295458227456685374e-01
2.417772439287715625e-01
2.252933976018608175e-01
2.742854134197783011e-01
2.511348613814117225e-01
1.961712435594658299e-01
2.485414602175183840e-01
2.355202548013966835e-01
2.539525671374415206e-01
2.356794193791790226e-01
2.418982973595773800e-01
2.494405098255371711e-01
2.665796586522090617e-01
2.274023763836075518e-01
2.288609808820496749e-01
2.695381351367546197e-01
2.307865912463567815e-01
9.359231959920474853e-02
1.696071825328314409e-01
1.953236736252770833e-01
2.119211103683879549e-01
2.246435369284122407e-01
1.280180704324968555e-01
1.491363519014668182e-01
1.739779523758856472e-01
1.476613539175546663e-01
1.519548650240272192e-01
1.369233312050786300e-01
1.491158791159117036e-01
1.802899946094055905e-01
1.153443049466523485e-01
1.053044595294020669e-01
1.193315178269092891e-01
1.060052886259164606e-01
1.698923672458674539e-01
8.081034334512869621e-02
1.020340800809174109e-01
5.936980348559092735e-02
6.074485997223359746e-02
3.644282265637802803e-02
6.848418373325636244e-02
1.597438953804222045e-02
5.073880276165666781e-02
7.917685187915524114e-02
5.923957589194228657e-02
3.156820707743661358e-02
8.987606765385815211e-02
4.352059253284426554e-03
7.105309669667279893e-02
-8.700524492895288231e-04
3.141941745425796267e-02
-1.044568966376531807e-02
1.951360674466991532e-02
4.500523024892391644e-02
-1.013296235098024196e-02
4.633680831417722606e-02
-4.480435204302714997e-03
-2.339356347002800526e-02
4.005387271437211433e-02
-2.774011397838169191e-02
-6.541502343061153524e-02
-6.147635054871279647e-02
6.689881737163318187e-03
-4.016194733622915902e-02
-2.266765881710143538e-02
-2.545895692358290940e-02
2.157407433867550295e-02
1.516372707663454084e-03
6.511419694629171084e-04
-4.210542750082195418e-03
-3.014745972325746232e-02
-4.777523202023688936e-02
-5.630511749461197812e-02
-1.006093905736482608e-02
-3.504784216260277419e-02
2.791758635962659357e-03
-2.954242340868537542e-02
-7.225799450645525868e-03
2.521501149883664458e-02
3.809297333729901730e-02
-2.935976818624102397e-02
-5.683052251605490851e-03
-7.616303886296110770e-02
-5.799005050622892121e-02
-2.315966023915041333e-02
-3.591566003439763261e-03
-4.430869609699724515e-02
-5.292158515284084430e-02
-5.126360594899556644e-02
-3.852797983791303449e-03
-2.438076031316808306e-02
-1.827631529863488202e-02
-1.956469049227188561e-02
-1.233404835574716460e-02
-2.914579711841489007e-02
-1.847301920204612660e-02
-1.918601382306549252e-02
-8.520953458780605727e-02
-1.190662345343244596e-02
-2.395306974714483950e-02
-2.805361678642967482e-02
-6.013142872868387778e-02
-4.022086893275875902e-02
-3.454414910035293051e-02
-9.890006439032313079e-02
-3.195131277227301891e-02
-3.579427981950816101e-02
-1.833893417609348472e-02
-3.983980643113029657e-02
-3.911165295133180175e-02
-3.248846396680402787e-02
-8.411319926081115006e-02
-5.154141949838351999e-02
-2.751419560711507173e-02
-7.261755568967193097e-02
-3.516828729625412486e-02
-5.243518544835862327e-02
-5.561437504209616745e-02
-1.262412375808634121e-02
-6.774454428238921300e-02
-4.379021969800776098e-02
-7.719983635519264697e-02
-4.046748185884502247e-02
-8.444395897715736843e-02
-1.956228444167276009e-02
1.065254000999104472e-02
-2.692709947140246168e-02
-1.230367845996251444e-02
-3.877973541019997389e-02
-3.001656290261437571e-02
6.496177092574960399e-03
-3.079181996634168528e-02
-2.878402721725321217e-02
-5.910146580049944337e-02
-2.471650933739803768e-02
-5.796272933925164517e-03
-3.169081655463058117e-02
1.797360528089973764e-02
3.521288788807963588e-02
8.444004154444746668e-03
3.795551036993429633e-02
2.868818478198448957e-02
9.357697664777003821e-02
5.482426724244177096e-03
8.624678649027986421e-02
7.736895796746312559e-02
4.107423906067633051e-02
7.628319499216264232e-02
8.982369743452935096e-02
1.218358925232188583e-01
1.000816778327393158e-01
4.567340194604721515e-02
1.023161973657994717e-01
1.248562771842477853e-01
1.651201852966371064e-01
8.243437989041237091e-02
1.589290840023825646e-01
1.125357924005384036e-01
5.493302425850730974e-02
1.549010327275128496e-01
8.169037546189023002e-02
1.280772323937978963e-01
6.990916012524539536e-02
1.313422500776491031e-01
1.014234007375122149e-01
7.061457855557397301e-02
5.865262940117721424e-02
5.950834014552878332e-02
5.279347811092741788e-02
2.218804075150823674e-02
3.050516492186935297e-02
1.238713679792402544e-01
4.877899727039688993e-02
6.860014013413198719e-02
4.536330403079662926e-02
1.026467422861812584e-01
1.030797069904720448e-01
7.659397897732347915e-02
8.836295926445672522e-02
1.068918566837448458e-01
1.537245237201427528e-01
2.402434676042419781e-01
2.667797740081093161e-01
3.187865265119248503e-01
3.975283438845781947e-01
5.385998409511200125e-01
5.752136639006609764e-01
6.991545475257677777e-01
7.872551172961663735e-01
8.730375318684767683e-01
9.387712583040616066e-01
1.069008978724381276e+00
1.105750430383984906e+00
1.130655959497287810e+00
1.138816212065997702e+00
1.140843738200136626e+00
1.184301670690541153e+00
1.134846628994623297e+00
1.111838643681810179e+00
9.937296694947181930e-01
9.199350480658217144e-01
7.444352865953771659e-01
7.347914313353629545e-01
6.498512658518840190e-01
5.718953740603867075e-01
3.670082257085873212e-01
3.101713030899496126e-01
3.061363764135223153e-01
2.331353495906080819e-01
1.302002955398113282e-01
1.448980647166738245e-01
8.873034833352770601e-02
4.450711917128946649e-02
2.059971815881973811e-02
1.180871514317424764e-02
2.302259826768321416e-03
-2.898431786036872321e-02
6.980408463948395426e-02
6.245917178278283938e-02
5.056866086117012271e-02
1.538236614116892526e-02
-3.017799824648434437e-03
-2.628159089119262021e-02
5.203425242004442591e-02
2.517355036295721576e-02
9.366491223693841628e-02
4.903783213907739191e-02
5.358655318518502908e-02
3.066898714240864909e-02
1.194259291300642511e-01
6.343885376122938846e-03
7.776457025539114387e-02
6.120820986931979624e-02
1.176357484541806497e-01
9.786196373471933718e-02
7.931450120373817469e-02
1.181337536084276496e-01
1.552803464684363033e-01
1.343502994500929415e-01
1.498814973205945811e-01
1.682093139765265533e-01
1.322021998067149928e-01
1.995773761414394998e-01
1.543122000139144356e-01
1.586114773941527389e-01
2.251279809300047730e-01
1.642581748293677202e-01
1.964918060506218034e-01
1.280863718206874946e-01
1.423895628349092224e-01
2.181222406978952089e-01
1.719145011711785687e-01
2.152056503967528789e-01
2.379967141455937851e-01
1.645032313702499693e-01
2.726392143373262966e-01
1.714956486550142378e-01
2.118912971061266692e-01
2.340797543362178323e-01
2.100897421432220968e-01
2.188689786009382909e-01
1.775197520008615082e-01
1.842041371173124831e-01
2.035204696897723875e-01
2.095500619497855932e-01
1.469846376313221625e-01
1.977586899987441305e-01
1.620151009152065447e-01
1.520501752987279409e-01
2.067123781549369543e-01
1.571244197326576442e-01
1.566669502751506515e-01
1.666183547477172733e-01
1.637422527509706238e-01
1.384584773963818127e-01
1.329911014683881065e-01
1.031358701211528561e-01
1.258105655408334744e-01
1.225491252648088225e-01
1.367215348687469134e-01
1.347659646710122339e-01
7.373323715566852676e-02
1.177336077460620495e-01
4.810942980561189880e-02
8.116636580178199223e-02
1.021621617163204904e-01
9.964480421563845502e-02
7.038517640428020028e-02
8.288975061151498958e-02
5.461085877334759947e-02
2.216554570509846056e-02
6.800151674533305712e-02
-4.497099539009889735e-02
3.726361916476377684e-02
2.998390728920462267e-03
1.184225977883793940e-02
7.689842084874284889e-02
2.195513681992860427e-02
-1.927939551948891495e-02
-5.920302737296649631e-02
-3.309335291467527251e-02
1.612277447515624712e-02
-2.942184553057862473e-02
-2.185380041960811176e-02
-2.971257447886065800e-02
-5.156449542845765316e-02
2.855382278117821193e-02
-2.154218872841860005e-02
-1.711630990506294442e-02
2.313205390016305485e-02
-3.885705869213458563e-02
-4.878573725394929478e-02
-3.479526853282560034e-02
-7.850530854826344440e-02
-3.245373265135587104e-02
-4.168018098218639195e-02
-4.742619462423462717e-02
-9.525824519846765037e-03
-3.676581647955655396e-02
-3.383312883037992852e-02
-3.327096494612650363e-02
-3.177037307182874887e-02
-5.258339832688038729e-02
-9.189246954614757601e-02
-7.113596885501433098e-02
-5.516419132476631237e-02
-2.646745776208766360e-02
-3.458207813135205644e-02
-6.681272465588035392e-03
-4.537371100317363209e-02
3.147151457935692953e-02
-1.080065181293034943e-02
-6.863529876353956227e-02
-5.159574467341308812e-02
-6.204597811056083989e-02
-2.739854370520921831e-02
-3.052895726469693691e-02
-2.698904608575970407e-02
-1.076164705370148134e-01
-7.071937709519357518e-02
-7.698231220518009232e-02
-4.485706215036511235e-02
-7.838317200902579496e-02
-6.608516306739427304e-02
-8.513191926682026067e-02
-4.272892100313556429e-02
6.978412345516625537e-03
-2.463760968512829913e-02
-1.644269990847691681e-02
1.368966129042246266e-02
-2.256444016412739381e-02
-3.223431924330973086e-02
-9.943494814889050626e-02
-1.722846972779688152e-02
-6.136756671599742641e-02
-3.422396261626372421e-02
-2.327704631289649606e-02
-5.201229820813254440e-02
-4.296729038739787593e-02
-9.366128902195514083e-02
-7.991629510145660531e-02
-4.500071001095273804e-02
-1.049407758541506253e-01
4.940510968814038062e-03
-4.900504052064759419e-02
-3.377737828970708844e-02
-8.898631387575965668e-02
-6.450696910770700732e-02
-5.216844650486508750e-02
-1.017775195615423234e-01
-3.052126011392915228e-02
-3.761158290738302046e-03
-3.877630022323727554e-02
-3.405468355478882131e-02
-4.144144182782194541e-02
-5.850890199577819112e-02
-3.065919351879791907e-02
-2.610105960426089416e-02
-1.050138500115624374e-02
-4.932907228658048315e-02
-2.185624789582468058e-02
-3.432928225962539326e-02
-2.456277432276920969e-02
-1.264046730961462806e-03
-7.325175306733021363e-02
2.811889918358072282e-02
1.168339825432478107e-02
4.704023130578079831e-02
-5.747088670681391176e-02
4.408161473617774190e-02
-5.963771670330561547e-03
5.538970154188502248e-02
6.027282311135150061e-02
9.652591314888331331e-02
6.043010408268501693e-02
-7.137563382822106894e-03
4.550166113730978040e-02
7.923757801156942893e-02
7.478502458025076960e-02
4.535084975365519938e-02
1.042113656491186480e-01
1.650489737752197650e-01
9.607773401078430198e-02
1.299557204962464851e-01
1.103709547877043951e-01
7.802561811603353492e-02
6.522610901163147790e-02
1.145217667098889502e-01
1.154495600465464400e-01
9.811476748564984529e-02
1.104404690736968675e-01
7.648718212306790387e-02
1.046813374361657278e-01
1.054020146240042810e-01
8.153343844885430070e-02
6.487420547326555598e-02
5.632913066264502722e-02
1.538749357871906642e-01
5.254129787289103792e-02
8.681728937422636405e-02
1.019851659258668303e-01
1.077454834182060839e-01
1.314945119359943460e-01
2.741821783154565345e-02
6.409667815089462040e-02
3.764982956209666359e-02
7.726714975145808351e-02
5.162210824891501348e-02
8.964240122584853088e-02
7.419026664054644005e-02
9.151367699620285845e-02
1.292465533273555178e-01
1.613136538668211162e-01
2.556188710073660220e-01
2.933365734316699669e-01
3.757167675843721688e-01
4.019905053561750319e-01
5.391338277618745733e-01
6.122764986274434884e-01
7.575476569002441707e-01
8.726647216272729324e-01
9.167515024361178044e-01
1.009271317202924845e+00
1.049776297693622018e+00
1.125629977351645161e+00
1.145042065653727459e+00
1.178459144235371570e+00
1.164075368848657588e+00
1.160749635447961836e+00
1.124240703101670347e+00
1.054341271653834511e+00
9.837664516770378009e-01
9.448044622965117156e-01
7.980720687021286563e-01
7.280541542354215245e-01
6.039053415686123083e-01
5.412300887952080641e-01
4.614128058077285321e-01
3.856275904931174558e-01
3.111060943221814479e-01
2.631213058353625289e-01
1.499638467163027233e-01
1.064556809575293306e-01
1.442234210760414692e-01
5.404202466126671600e-02
6.902186875779303676e-02
8.685168542595561592e-02
3.582341388814891392e-02
2.212644952449208807e-02
1.128666690238103176e-03
4.515999947546048970e-02
4.148192987720551728e-02
8.754081092784347928e-02
5.645058993681674464e-02
9.277285612888477861e-02
8.675515585155156584e-02
8.339357866151347887e-02
3.800069209879532173e-02
1.136060960736654663e-01
5.413821712868917280e-02
7.352185817449743976e-02
6.982154844795014637e-02
1.041914182927494853e-01
8.046047258664046353e-02
6.028829060424763242e-02
2.030364088322196003e-01
8.419744047386784613e-02
1.704328381765640721e-01
1.687186059934897564e-01
1.621539576241170511e-01
1.449816643484973522e-01
1.173582218647711006e-01
1.712737573923132084e-01
2.081163902735691240e-01
1.972533886146287940e-01
1.863867726246692391e-01
2.385296649826585402e-01
2.184104297384741045e-01
1.947568827442877348e-01
2.273257669852193352e-01
2.073083683673078714e-01
1.704193902349712686e-01
2.870514067492620502e-01
2.384056327148401100e-01
1.447574567741759521e-01
2.539798908613043471e-01
2.677954528219652630e-01
2.547928783656165930e-01
2.705095134080181540e-01
2.479953323908589136e-01
2.104692423885144437e-01
2.433371819373496281e-01
2.733143965581292245e-01
2.664479116070405107e-01
1.927037566101394428e-01
2.667412693812486468e-01
2.087782809732160461e-01
2.124303862765661022e-01
2.147066826709255749e-01
2.704171165487407880e-01
1.613850608822496313e-01
1.885832968729242443e-01
2.155700405692322630e-01
1.933941190007543165e-01
1.872188071955875333e-01
2.117372758802945898e-01
1.323705001011665217e-01
1.518605975249147921e-01
2.461104661806895466e-01
1.271622744204201072e-01
1.559186750924653753e-01
1.313050531052007974e-01
8.087203720996968825e-02
1.000271842197477390e-01
9.406944477748749311e-02
1.461544907068560439e-01
8.451436157516872827e-02
1.418050213184215425e-01
7.687554519924080787e-02
1.074631377643600616e-01
9.679170230522592122e-02
8.182426390914787628e-02
1.012642395955923591e-01
7.589434997103407243e-02
8.778027162018917084e-02
1.351493025686799181e-02
1.856868711921027398e-02
3.246308564899080817e-02
1.234129781316542496e-02
5.146896643999328280e-02
3.975630439616294892e-02
8.339855271574803108e-02
5.514013017489068774e-02
1.100176667730701219e-02
3.103066676396558365e-02
4.973555359167180362e-02
4.245093288822054944e-02
2.350019432619691179e-02
-1.068947121278233242e-02
1.519412038189142146e-02
-1.760800819228692388e-02
3.471882646655474747e-02
3.396968472940635475e-02
-8.796152476077371760e-03
1.347485287468855840e-02
1.323278152024773800e-02
8.630087532878562284e-03
-1.908583619322746366e-02
-1.780194099153477316e-02
2.470592812802816646e-02
1.496919887012802125e-02
2.248724592713081255e-02
5.676130191760051999e-03
-4.180803135555481720e-02
4.427514704648519671e-03
-1.031528638505152702e-03
-1.907097585083381702e-02
-5.519165416349076231e-02
-4.276731051824615021e-02
-2.557146121148777193e-02
-1.881540005161638166e-03
2.319954623878512159e-02
4.378685986346343706e-02
-1.515196537051086145e-02
1.672036640296400978e-02
8.433218012747835043e-03
3.358342709423233624e-02
4.425101682160667571e-02
4.000223543691008160e-02
2.357113770122999663e-02
-2.237525917773132422e-03
4.373365523519447129e-03
2.940994003594855043e-03
-8.887359418128671501e-03
-3.315528281709034797e-02
-5.979073264358911177e-02
-4.710322945512333825e-02
-6.620866304104889265e-03
9.812461072079663171e-04
1.438635191427915967e-02
4.308790360260318815e-03
2.458724849095605958e-02
-1.962558962876512561e-03
3.262624412786601508e-02
2.076034417885574274e-02
-1.589600483129642236e-02
4.048242592957543295e-02
-5.011266084391900050e-03
9.118389119201204644e-04
3.947745578169800131e-03
2.302579277678878933e-02
5.694445600877480473e-02
-1.966572369734166659e-02
3.668820115917283825e-02
5.700740840573458035e-02
4.729970478115134297e-02
-1.334122680947442616e-02
4.406100830867103191e-02
1.667471170309552803e-02
-2.687716815187071034e-02
-2.208839776685250778e-02
-2.919476786159967002e-02
1.557073321630442903e-02
2.129885641314344796e-02
1.796441995150074508e-02
-1.103860559774289332e-02
-1.422148333520156273e-02
3.038206768239659628e-02
4.316033037106448145e-02
2.596137677270578259e-02
1.009696185453906603e-03
1.522624110235935163e-02
5.284750948199979509e-02
1.372781597431998492e-02
5.751571402436264635e-02
3.552833389154106541e-02
4.285884635605566317e-02
8.682981866412251004e-02
6.043744309604915516e-02
4.100626264146491062e-02
2.723772042623149453e-02
1.704033424182842260e-02
8.411829751085664331e-02
8.482953888839626921e-02
1.416701700995947055e-01
1.113935429571067393e-01
1.215819879417685129e-01
9.588620804984362977e-02
9.737666837499406314e-02
1.466358302319360762e-01
1.205888213155539845e-01
1.093012992059612665e-01
1.816386531754672351e-01
1.376643626304859813e-01
1.245505556217195164e-01
2.145150035227881835e-01
1.389452824485545579e-01
1.479837299209171841e-01
2.033444045355024543e-01
2.249182802349257437e-01
1.694170433780755047e-01
2.165065909750460149e-01
1.622616615899248327e-01
1.383096377618139583e-01
1.319731884820842804e-01
2.036127185752988622e-01
1.757056077119099335e-01
1.646531811814195279e-01
1.296785525070121015e-01
1.361586707860656664e-01
1.563388113265403168e-01
1.089053034528634362e-01
9.779332878058116796e-02
1.171393526872565038e-01
1.297791497287324181e-01
1.172722914797776073e-01
1.723797350632539083e-01
1.747695267555230414e-01
1.385526735008057175e-01
1.086182870215685603e-01
1.625333592873974276e-01
1.554373011821676143e-01
1.095974991358812656e-01
2.797031739723430110e-01
2.330857068161118761e-01
3.793527614928303149e-01
3.793390844500709735e-01
4.894667531827041063e-01
5.760318840693173792e-01
6.442881184884067247e-01
7.183675229816002261e-01
8.084704885488003256e-01
9.036589279740466774e-01
9.469376893606904488e-01
1.046591255042101043e+00
1.077502650022575059e+00
1.175690085704677479e+00
1.178418967699525366e+00
1.254571077152738967e+00
1.163640468926293137e+00
1.193506977814358327e+00
1.161592280485692408e+00
1.099199820446102649e+00
9.666850457142776021e-01
9.678900781894859140e-01
8.331422754438673195e-01
7.237592922207808366e-01
6.100948333490611164e-01
5.490486808443517663e-01
4.225387041507414065e-01
3.971710430340164577e-01
2.751856909670896689e-01
2.551512818604647070e-01
2.136731603892151332e-01
1.639634292435284690e-01
1.394057018519189728e-01
1.170098918755799883e-01
1.180608390668544255e-01
1.367556451222358416e-01
1.413872997595036762e-01
1.254280373773224710e-01
1.354074588798941381e-01
1.266598680948749778e-01
9.440640474353874378e-02
8.998642093749144311e-02
1.571466962374164500e-01
1.087849957797042272e-01
7.943821227599026646e-02
1.343876381484575000e-01
1.740220824812604428e-01
1.559470328632640568e-01
1.304574994129476806e-01
1.778644028711841851e-01
1.176632739863147786e-01
1.685256479448422606e-01
1.541492634455049748e-01
1.491483341664707474e-01
1.528489788778051861e-01
1.891863200396940448e-01
1.899803329186190715e-01
2.275129480741339971e-01
1.738073245388921662e-01
2.951488816433626705e-01
2.249965106959672945e-01
2.351559509351789645e-01
2.544788462561323183e-01
1.905366136232146124e-01
3.041623098962962790e-01
2.281770474339279986e-01
2.825271592764424522e-01
2.736568095908117892e-01
2.529788102900272229e-01
2.905131352329399785e-01
2.669485043754813991e-01
2.869065330703559069e-01
2.986816989432964919e-01
2.817260864155697320e-01
2.921779043950098464e-01
2.675488218660014850e-01
2.590260659189519976e-01
3.140608751706411850e-01
2.630868582859060001e-01
3.322225184784020069e-01
2.587794381705867952e-01
2.855500044016452965e-01
3.022223590363736223e-01
3.155257553292061257e-01
2.838085619430905648e-01
3.377438175687397237e-01
2.231866678242004076e-01
2.026654296355740459e-01
2.179991626599766530e-01
2.124151172554964162e-01
2.159329063344698763e-01
2.318102349749165403e-01
2.273378552358299443e-01
2.245813570931556313e-01
1.951459492530080997e-01
2.254348112788285285e-01
2.425829609508551588e-01
1.980987139648657802e-01
1.976747401939250581e-01
2.288189975762413841e-01
2.176316940190129168e-01
1.720738486359373320e-01
2.159965520877666634e-01
1.639157281950540945e-01
1.854581435680605350e-01
1.249786995692071107e-01
1.307028144920331925e-01
1.113270306345299082e-01
1.406712568225484405e-01
1.210524336424645131e-01
1.071851611883163358e-01
1.327778056522877781e-01
1.480577927151249806e-01
1.100963975245085880e-01
1.166180197533077112e-01
1.029992850002285493e-01
7.200626088639253131e-02
8.300714056197992796e-02
1.344901274296730898e-01
7.758401157221404831e-02
1.449799760838849094e-01
6.745473976927583715e-02
5.766787955493955092e-02
1.389075676263196724e-01
1.149550451039522414e-01
5.360396909717301400e-02
6.392208902934989889e-02
1.739744491185989117e-03
8.475890184938847383e-02
4.560576723471473221e-02
5.766699858539859475e-02
2.350464126866447928e-02
9.353487743693972289e-02
3.502827417568962765e-02
6.691004216195867160e-02
5.055058402268725742e-02
9.839694214735120181e-02
7.740496228770187004e-02
5.497880514627297155e-02
4.488943374582152895e-02
1.776341571701854638e-02
-3.531030369198218111e-04
9.486646801461974532e-03
5.828400811248181379e-02
7.305534819191734919e-02
8.290431792088839846e-02
4.729034657142207332e-02
4.967476346725301084e-02
3.369408325041394620e-02
3.630302286094493069e-02
6.765576698724898308e-02
2.599987034945367564e-02
5.384791626506029577e-02
5.146286239960279341e-02
4.649281257904226000e-02
4.513509908710659074e-02
8.082313936298705925e-02
6.344336344073929490e-02
5.775042827731888956e-02
6.844213852046356072e-02
3.441555266278020775e-02
8.011851946783350720e-02
8.013001603477498680e-02
3.349129582186552434e-02
5.052505705363426192e-02
4.106778202163062497e-02
6.835746619665859780e-02
5.961517021386265186e-02
1.756817470993912722e-02
4.431753490109675842e-02
8.947088810499739808e-02
3.923235055334145516e-02
7.744777734297465799e-02
9.669305611552532487e-02
4.823813630640051003e-02
8.827273880719678500e-02
1.627798973675712718e-02
5.515275080523262402e-02
6.197664626365437246e-02
3.374072038282611291e-02
3.689701733433611158e-02
6.584757270013832930e-02
5.503894900926572381e-02
6.458727494568794469e-02
1.350015601336401194e-01
4.554529047799771996e-02
1.265890717059350856e-02
2.892619720418548868e-02
5.037219769514893891e-02
1.040281995483394173e-02
6.108775944525479673e-02
9.867439186914707394e-02
1.054120159535573281e-01
5.818913441086739913e-02
7.580681402120703627e-02
8.907786840702872078e-02
1.453744897320576324e-01
6.640152399891556534e-02
3.999752508351950286e-02
5.910922684761329982e-02
4.804993632601543135e-02
8.608842970376648362e-02
1.009908133910155659e-01
8.294169550181335060e-02
6.259494763667880490e-02
7.113381686998333786e-02
1.221606253554098354e-01
8.344622193691880740e-02
1.809980023601658328e-01
8.030023004696774935e-02
8.413753634052095753e-02
9.247399716888834997e-02
1.634386243984593812e-01
1.240633633689219306e-01
1.272032356128847685e-01
1.994482345091013187e-01
7.321610072252870971e-02
1.657545891590287701e-01
1.543707227392293879e-01
2.429587872112827229e-01
1.584739869195670448e-01
1.549485470221736438e-01
2.032682398236630161e-01
1.969501131945554651e-01
2.081101941925854737e-01
1.818558648424720980e-01
1.780682024726315538e-01
1.702364276022420020e-01
2.074967434138666744e-01
2.053817586060337208e-01
2.107221868673553045e-01
2.727526942913127694e-01
2.443828087778231739e-01
1.946410355361875011e-01
1.796162316451091201e-01
2.273909273762669270e-01
2.093304890804966456e-01
1.921905519202274648e-01
1.987508065357135034e-01
1.438832303836098947e-01
1.937402426781393017e-01
1.482616406697981892e-01
1.565425768924500471e-01
1.794340263644558509e-01
1.826084746648949930e-01
9.162278836843323893e-02
2.043547959551920701e-01
1.897443056623026592e-01
1.454542571581363408e-01
1.715674838780408273e-01
2.103326757321695439e-01
2.192886215762855917e-01
2.264202898701442590e-01
2.830870242150045346e-01
3.831947085329447389e-01
3.946477872636490192e-01
4.973363160835814201e-01
5.939449255727693444e-01
6.766905744441317205e-01
7.507616906091711950e-01
8.375278262995587975e-01
9.151929462330077314e-01
1.045752348181640867e+00
1.085757691545617298e+00
1.238505717337266221e+00
1.217011739247403135e+00
1.260519786903448125e+00
1.241106530549137332e+00
1.267600776019098596e+00
1.157430609564530366e+00
1.175304809542668805e+00
1.087598184126559620e+00
1.096724540180941565e+00
9.229996399609765589e-01
8.061668174121491282e-01
7.626461557582466799e-01
6.458291254612364973e-01
5.088807630858692699e-01
5.201692387149334795e-01
3.590232326715203093e-01
3.207354324407657442e-01
2.884264861214758668e-01
2.374783376027355397e-01
2.244098504068889333e-01
1.306451567252744361e-01
1.435860103991130066e-01
1.090138098465119609e-01
1.425188110338171665e-01
1.453142211115457938e-01
1.036380118190890209e-01
1.083113914051322402e-01
9.731409016345507479e-02
8.257166503494528520e-02
1.363660449403499841e-01
9.259382552795286658e-02
1.253481865164586262e-01
1.492048910659932726e-01
9.105447732223179158e-02
1.462855404252351998e-01
1.152811071439328733e-01
1.644074735693826783e-01
1.612514034993300649e-01
1.441956967227558395e-01
1.806715930742902876e-01
1.939223399856547236e-01
1.484911749183294993e-01
1.949447215169209935e-01
1.773779964138647580e-01
2.267778013115854807e-01
1.433243534699276678e-01
2.309471132842715879e-01
1.852754513546854831e-01
2.169022727464826050e-01
2.779894591604493703e-01
1.980126371102018945e-01
2.554451333155622339e-01
2.230968243767580683e-01
2.999005240051630938e-01
2.757500784238637870e-01
3.484655938586009860e-01
2.780020393042899052e-01
3.041839592032842265e-01
2.770716492335704162e-01
3.410034484173242730e-01
2.898494506231461543e-01
3.290245580319210439e-01
2.380251497233940583e-01
2.947920468437521535e-01
2.794057829141654015e-01
3.156491239849499308e-01
3.301992843724412263e-01
3.497496008027182746e-01
2.561421585971245252e-01
3.253715768683509424e-01
2.785743608915401959e-01
3.244129495891294734e-01
2.837148733074839058e-01
3.259941711288415478e-01
2.552854598163690758e-01
2.995151554851821496e-01
2.290931312846807288e-01
2.229603406819548606e-01
2.200580035749415408e-01
2.449247048705417984e-01
2.377205327779682298e-01
2.523724007844902473e-01
2.404693480551012841e-01
2.201398794839694584e-01
2.292144934290659963e-01
2.042154089480677781e-01
2.231664967628196050e-01
1.702707608567670117e-01
2.066163551358342898e-01
1.356537556944862333e-01
2.251000966165155048e-01
1.391097111827740151e-01
1.298820853959422594e-01
2.013536140441630762e-01
1.349565344746656848e-01
1.851839055360800790e-01
1.400823636986716081e-01
8.346513040542835604e-02
1.193809398402562172e-01
5.061226345930076170e-02
1.288078538437347209e-01
1.360457062784138083e-01
1.221389770700301025e-01
7.783964145182997729e-02
1.010613245569379620e-01
5.028794148503697159e-02
1.023355988903094510e-01
1.007035327691165605e-01
5.970694883583665263e-02
5.214279150418897613e-02
4.126358730491572896e-02
1.147500658759167402e-01
4.326612985762030850e-02
9.875439929656683324e-02
5.540778654332011166e-02
1.504427121383155805e-02
3.457343174501195660e-02
4.760780789897588183e-02
3.279134235204668457e-02
7.098246617239231671e-02
3.337801917110325839e-02
4.899131521545148360e-02
3.586902835678651424e-02
3.396663476931514880e-02
2.534928478957331616e-02
3.083202227196912490e-02
7.920873001547776293e-02
3.535737066679180834e-02
5.340684564298386894e-02
5.741154619981228557e-02
6.639734870952845869e-03
2.169377859335255843e-03
-8.944362190679448765e-03
1.065422739873360392e-02
5.369026175267319761e-02
-1.966744152785298433e-02
4.552560201984787169e-02
6.021976138427087566e-03
4.886053660797465281e-02
1.459544601794712793e-02
4.604261785390707795e-02
5.077478595320587818e-02
7.111841902495155687e-03
1.895522487696246414e-02
1.246584477611243150e-02
2.467927170612274623e-02
2.521530520240760492e-02
4.450361924879665115e-02
9.746819197912569288e-02
6.754399704630158208e-02
-1.390915882124754005e-02
-4.168865601957501971e-03
4.339933396133859034e-02
2.120819020952124934e-03
7.506344330164733958e-03
-6.216543069966867091e-03
2.226359308485752544e-02
-1.263314228829799657e-02
6.050063749132846003e-02
5.031364620558706480e-02
-2.174482578109086447e-02
4.530806906799408895e-02
4.280251817435867800e-02
3.876856838132142213e-02
3.052761186015852043e-02
2.716012875721227765e-02
3.782710825768092339e-02
-6.703997396743082565e-03
1.020999406502351436e-02
6.961512357441149157e-02
2.689917872312026087e-02
3.418358141579909415e-02
7.550427392583500263e-02
4.953367325738800703e-02
9.075597418310303588e-02
2.008716475551882916e-02
1.730171766689074866e-02
2.164402199109556613e-02
4.162839786668278558e-02
5.751556744029417967e-02
4.429474316300091585e-02
5.413437756042458610e-02
4.929788176923195764e-03
2.856825478968463838e-02
6.452404546679635367e-02
3.263152860473732264e-02
-3.619379107414125163e-04
7.799336022211339481e-02
1.722315893802251960e-02
4.252709964853870761e-02
5.120975321663316648e-02
-5.607407615818120472e-04
2.637140951732470581e-02
4.668709664091148098e-02
9.320803889695913891e-02
7.700026761106468220e-02
1.538029245655917476e-01
1.379391455144578227e-01
7.800795155118139812e-02
9.629458091571625744e-02
6.856563925966907558e-02
7.904684333635873805e-02
8.121078570477419101e-02
6.081037288862199686e-02
8.731166282298483128e-02
1.694663003811836544e-01
1.482853584597299545e-01
7.595978441800502190e-02
1.266614589348751818e-01
1.683775396859300832e-01
1.292053475203608082e-01
1.630128178324171395e-01
8.536354416667125966e-02
1.088091216317200738e-01
1.423691554966817208e-01
1.654694789706108171e-01
1.732819640116244897e-01
1.069239205712136237e-01
1.612753760333713871e-01
1.902925545072692293e-01
1.218882317429794554e-01
1.571000884445107881e-01
1.588971668681613270e-01
1.732548649627455029e-01
1.571745210545788807e-01
1.421341180266648130e-01
1.279389813419165023e-01
1.326645834295806792e-01
1.827516159449490141e-01
8.900059306812804771e-02
8.817541768950662440e-02
1.234887818463306225e-01
7.476026954888666254e-02
7.162318067933870491e-02
1.895014449153943903e-01
1.269724524659165410e-01
1.475976709691048105e-01
1.438354874899923919e-01
1.954774585736679671e-01
2.059026986096528511e-01
2.048769761139122292e-01
2.931607113749846727e-01
3.174230320875331968e-01
3.923066692964955471e-01
4.589903802222097817e-01
5.131260238866458545e-01
6.710762119331772357e-01
7.006900055544174055e-01
8.391252119558425537e-01
8.585608402454071308e-01
1.043822188054047473e+00
1.090488305368612965e+00
1.140032209907620997e+00
1.188293388297712472e+00
1.221821009078390086e+00
1.231084725859985740e+00
1.220308395890747244e+00
1.191545716314024395e+00
1.158055821592710810e+00
1.034807805394009073e+00
9.233057838247479276e-01
8.558047798423908947e-01
6.897312961077162186e-01
6.241761433169267237e-01
5.758164340123758107e-01
4.657920310990246726e-01
4.191502307800381022e-01
3.263102340665396950e-01
2.737406164427635957e-01
2.074744605931983510e-01
1.889630947805935324e-01
1.253260932240295167e-01
7.609535931668694186e-02
1.275218313232790723e-01
9.870941749644232543e-02
8.950162152803396720e-02
1.210337150650710458e-01
2.989375794584102353e-02
9.109407889006593262e-02
7.031992228700260916e-02
1.879933282994158267e-02
7.685601223848062546e-02
9.264935573976439132e-02
4.602912230076194183e-02
6.577401217488518248e-02
7.555041309069036870e-02
6.418457979001354619e-02
1.236689892155431458e-01
1.522681304512999434e-01
9.529259802373896138e-02
1.117681226607886436e-01
1.312205831786997789e-01
1.625192959212606592e-01
8.984396582913459217e-02
1.482374490368648379e-01
1.281267676836175262e-01
1.548985800409866942e-01
1.568143577488078089e-01
1.906170526614053284e-01
1.834975108510100150e-01
1.666539547537844168e-01
1.786094265161227712e-01
2.051399748479870166e-01
1.689749526826508363e-01
2.278259777276875897e-01
1.588853207858823557e-01
2.829573328654213515e-01
2.615494950153953724e-01
2.246494234088489139e-01
2.405601181633761076e-01
2.175413947865380559e-01
2.265451173973901111e-01
2.460658675050297894e-01
2.312121432641311425e-01
2.238162277593880867e-01
2.630829847086726403e-01
2.309447209400982415e-01
2.409493226623969919e-01
2.329624838571563161e-01
2.391645800119659993e-01
2.371003600800626610e-01
1.998694865181210589e-01
1.647869300247687407e-01
2.168142700767664022e-01
2.477470615859456160e-01
2.453590830411318535e-01
2.212326053918607094e-01
1.834158059394922213e-01
1.593343853090994910e-01
2.175351921354551910e-01
2.360939854520689718e-01
1.950230179279816567e-01
2.358838272187981366e-01
2.021070114337196744e-01
1.667771186967546559e-01
1.319606086503938014e-01
1.411533941917240409e-01
8.623067788891286556e-02
1.580535908570948056e-01
1.476640092650520764e-01
1.580129689277241234e-01
1.195936572643133966e-01
1.008101072137790183e-01
1.136591886769151016e-01
9.459202147074317890e-02
1.212755556009732644e-01
1.321119912700350618e-01
6.757192782812457277e-02
1.229762742050260621e-01
1.099867840284741993e-01
5.630631507996070040e-02
6.803103096576038067e-02
4.393219690155612811e-02
4.214637662305507904e-02
1.765693077493216134e-02
1.099163857948269249e-02
4.198678131244615308e-02
4.799176098267667057e-03
-5.983258404550217957e-04
5.366944223425364896e-02
4.845915349703881769e-02
2.025275767188361095e-02
7.908909108514106112e-04
5.097656274809860000e-02
-2.805514035932245645e-02
9.970713339961988220e-03
-4.367313375802062136e-02
-2.313416548782470591e-02
-2.317385767564192345e-02
1.263597520200504531e-02
-2.708015498538289892e-02
-1.884025853157642733e-02
-2.525115206522848127e-02
-1.740966892984814607e-02
-9.731230176545598021e-03
-2.262428815249881500e-02
1.807470003462621072e-03
3.130623476782760928e-02
1.949036028708648824e-02
3.934489545572811275e-02
-3.439500831710402828e-02
-4.304296481981145089e-03
-1.911727691685110794e-02
3.509672676955079285e-02
-4.346881396687936328e-03
-5.642305807970340176e-03
-1.483705072749254457e-02
-3.185399916792858860e-02
4.267688699278700259e-02
-6.115494420592196972e-02
-3.023394501641485724e-02
7.168295439477744002e-04
-4.717177195955723351e-02
-3.481517323398115177e-02
2.208307652320194020e-03
-3.382271256618154393e-02
-6.222720216730658060e-02
2.548466637295722370e-02
-2.838635676454044979e-02
-3.957621963833410361e-02
8.111777788767839809e-03
-5.696401776967624508e-02
-7.114627629157407873e-02
-3.550290702079281213e-02
-2.398984426735597392e-02
-7.677855508241412941e-02
-4.536672197612362512e-02
-2.737722194857039604e-02
-4.430911209378034232e-02
-5.507141816107437998e-02
-5.916026120579481740e-02
-3.643378007276814462e-02
-1.948299249206222189e-02
-3.801452838689998309e-02
-7.168392138121904011e-02
-5.006318463049060086e-02
-1.458377305471583729e-02
-3.184937694050141155e-02
-8.015559461274537889e-02
2.770914562233248168e-02
-1.063842964016674733e-02
-9.576434827501294905e-03
-4.731294950264763877e-02
-2.818913817559460383e-02
-4.686787339533599051e-02
-1.555578400808256545e-02
-1.665985974371901601e-02
-9.004088681405021666e-02
7.239945756745073957e-03
-8.404898295345627351e-03
-9.525869549929316671e-03
-5.023536967848574175e-02
-1.858226481781924400e-02
-8.098194190024943229e-02
-8.892911898400655824e-03
-2.766200511705180914e-02
-3.257448688154411520e-03
-6.000098160406525105e-02
-4.069842134573108117e-02
-2.604472559125250997e-02
-1.016766962496105237e-02
2.042023429621869779e-04
3.808291109892603804e-02
-1.363479304409781143e-02
-1.763411619991108598e-02
4.463321149435558327e-02
-8.775053894345397759e-03
3.393465161859533785e-02
-1.034084075896429464e-02
1.443885171008962853e-03
7.763165564282380193e-02
6.094827798960218701e-02
5.588404175298251897e-02
8.096562804882473374e-02
6.033150754070323168e-02
4.837597108451472533e-02
5.113546618723465581e-02
8.295360266150932083e-02
7.119329055120338090e-02
7.093440718067453576e-02
1.367616646669815861e-01
1.099796970870935975e-01
6.801384511426748769e-02
1.449865473786064451e-01
7.964364793150166544e-02
1.006953568375180130e-01
1.070585635381306744e-01
1.332478952403565176e-01
1.336703786976217445e-01
7.483030183748801134e-02
1.268644670719768497e-01
8.610675256198102590e-02
1.137445207804275299e-01
6.585852361671422350e-02
1.221552374136238989e-01
7.150588144569243465e-02
1.097671577720844560e-01
8.497330373494285660e-02
1.090445940875382491e-01
8.164658756693408959e-02
8.268941145005001547e-02
4.909189683922375591e-02
6.968217088261877135e-02
7.987612609883447401e-03
8.503928717866102160e-02
1.252643553222493877e-01
6.958621042331852857e-02
1.007865139490695117e-01
5.914157865246828794e-02
1.205404513339285305e-01
1.351175775635481691e-01
1.721950513662680315e-01
2.070288240667371715e-01
2.436256671208623659e-01
2.949249550831497535e-01
3.552697998579968930e-01
4.946449599868312230e-01
5.383651225484605840e-01
6.171686782725455123e-01
7.570849561413688367e-01
8.312094919343552268e-01
9.221650473251827851e-01
9.925379691327607112e-01
1.101984421458606533e+00
1.097550373266495072e+00
1.129832479435067816e+00
1.138411390588146999e+00
1.167599437978757981e+00
1.153305387156645212e+00
1.067915513609711597e+00
1.053824605593342900e+00
9.670985013117502360e-01
9.114047394883062481e-01
8.303038281043226831e-01
6.638558804731693463e-01
5.716521815633480719e-01
4.618710521353391329e-01
4.046576540460236071e-01
2.741906534800653272e-01
2.334101717362115358e-01
2.314865534942724956e-01
1.795328995734218336e-01
1.437646122954983341e-01
9.478168714354032187e-02
7.737714747296590978e-02
7.331252075104448263e-02
1.995719452091040957e-02
4.143647473624080535e-02
4.674593169933850129e-02
2.692582207278002709e-02
1.534086781068866312e-02
5.090766954204400258e-02
-4.697003069437524769e-02
-5.716138247852902560e-02
1.880888056162334510e-02
-1.388308571774012762e-02
9.081407065262343814e-02
9.828453193756392370e-02
5.530016784244191214e-02
2.496423976477354922e-04
2.689542415220011473e-02
4.181340010553880743e-02
6.837231035272851865e-02
1.795056299321153015e-02
1.329490920094594242e-01
8.530017881389477530e-02
8.694199423983856034e-02
1.187192522343026302e-01
1.081105870920023304e-01
7.417977971603886833e-02
1.670178278081677348e-01
1.110861339588237184e-01
1.270718637760998582e-01
1.793315353102132859e-01
1.083422865082009634e-01
1.433088403735278127e-01
1.990241702081427533e-01
1.702938528614236779e-01
1.409915622887074615e-01
1.657363668980034455e-01
1.601264415518852124e-01
1.364289871697994816e-01
1.421673397116184623e-01
1.853598230837986416e-01
1.334646456095395783e-01
1.677101082439783619e-01
1.556891785784820792e-01
1.890703084133429912e-01
2.136505862703090841e-01
1.823079540626613704e-01
1.947033212707435235e-01
2.277387446314785568e-01
1.661923524763619098e-01
1.947974896988234339e-01
2.277307994448515283e-01
2.389564068486012272e-01
2.225777188705420351e-01
1.590493645371925391e-01
1.566058254804518213e-01
1.962139768535602902e-01
1.979335237418693438e-01
1.910072968786085124e-01
9.907936864152003253e-02
1.051084022257652850e-01
1.835693571881323594e-01
1.508927799248285795e-01
1.411218521089829536e-01
1.172020775099624490e-01
9.720006451165293104e-02
1.127732483530718699e-01
8.696382768185817458e-02
9.598169177087431669e-02
1.647671940281706937e-01
9.726067988039488466e-02
6.317478918538108057e-02
5.878771255100648241e-02
6.668653023791282219e-02
8.765977964232958553e-03
7.443726097026941158e-02
1.035632189515623691e-01
6.022190672228438374e-02
2.101652506003737209e-02
1.633758233620825201e-02
2.343482821753953282e-02
2.683770967494755050e-02
1.669108981452192136e-02
2.342734606403032438e-02
2.081302787690711420e-03
3.576854667015379879e-02
-5.956489932946069932e-02
-4.013819182993805940e-02
2.440013043257363567e-02
-2.198370962482861651e-02
-1.268404376011094542e-02
-3.003930359042415732e-02
-6.241515401123289702e-02
-1.290759259281993448e-02
-2.107134721991493070e-02
5.808672010157524268e-02
-2.547949809150458142e-02
8.988819980022690059e-03
-3.456971553755253113e-02
6.002810038885246502e-03
-5.659784082764780788e-02
-7.161583792101781920e-02
-7.549392902774015868e-02
-5.900235961372631011e-02
-5.402090528648647444e-02
-7.425488146821090929e-02
-1.676103816118987982e-02
-1.353071979216394216e-01
-2.653060393439380521e-02
-5.337260686293031353e-02
3.185933574638401267e-03
-4.964686966096632653e-02
-5.023174686756633894e-02
-1.355954408398783728e-02
-7.769192858815615610e-02
-4.814035471719577824e-02
-2.046412222439422321e-02
-4.214166235587768483e-02
-1.328675022616358087e-02
-6.575406844746405077e-02
-6.585831100755572265e-02
-2.502661828311989606e-02
-7.172863460105818878e-02
-6.893959093764567836e-02
-4.785763825932196763e-02
-3.326964628350928543e-02
-1.922349739356135970e-02
-4.856195943283964089e-02
-3.051513124370567112e-02
-1.603221670242710450e-03
-1.848533262859274745e-02
-5.350951532141797612e-02
-3.320862845432596966e-02
8.208488397562517525e-03
-2.593979356715808357e-02
-5.202601370808655756e-02
1.512506589125995476e-02
-5.516666948962356543e-03
-9.672605715516292835e-03
-5.715069818893862147e-02
-7.022231204122279802e-02
-8.995076460999062995e-03
-6.945753211144772843e-02
-9.229985956297459548e-02
-2.655916168255075677e-02
3.227582536930201362e-03
-8.726694993344022433e-02
3.731431968569912105e-03
-6.731822697737380179e-02
-3.121010575571406959e-02
-8.999907881370859675e-03
-4.525765079848678707e-02
-2.270591401338162979e-02
-5.244678426729117160e-02
-1.227285142913634580e-02
2.485117822269754251e-03
-4.814823627330743622e-02
-5.853694187450140390e-02
-5.382999560952075879e-02
-2.430105309731587712e-02
-7.139509273347786900e-02
-1.896561078229747760e-02
-3.011598831114143532e-02
-2.116246516840256109e-02
-3.097859635806576861e-02
-8.091021911068592420e-03
-5.341264888798262500e-02
-1.030905963458748908e-01
-1.381401829582865060e-03
-5.770158796652934130e-02
-8.816964146484647380e-03
-4.457951779232528083e-02
1.950450462253539713e-02
-2.489108814479864054e-02
-2.068629177120970622e-02
3.024055618475132712e-02
2.870318791847894374e-02
3.761431357487702437e-02
-8.463430560502173405e-03
-4.084559361590307802e-03
5.319891122693980873e-02
3.094390060465167930e-02
9.747052955228756310e-03
5.645186282244268883e-02
1.320904594801290410e-01
5.222598633312291322e-02
4.532586435053462259e-02
6.033538353299536250e-02
5.839240424101632687e-02
1.181908264776058148e-01
1.434897722920426277e-01
1.111175372067564893e-01
1.100897495094227962e-01
1.029482591699716065e-01
1.617248920726823136e-01
1.384098545429669480e-01
1.597055944106154368e-01
6.659503968980172439e-02
1.545639158890277087e-01
1.312945343782620788e-01
1.475937858802079117e-01
1.591645330202887121e-01
8.070917744200574451e-02
1.129127436118672057e-01
6.750547785846588988e-02
1.416345326920178671e-01
6.431870990375360142e-02
3.526248053145203398e-02
5.150498441987182152e-02
5.880466430659426341e-02
4.812329384538403115e-02
7.526780420302106589e-02
9.428816072242710011e-02
2.830061443260785403e-02
1.067442018737793652e-01
8.370192186926744826e-02
1.178739803727905933e-01
1.017268460918930029e-01
1.474263262757647963e-01
1.054442776468267617e-01
1.753762564874979668e-01
1.938910803819121065e-01
2.867213905937658902e-01
3.460753909874052514e-01
4.259250864991565022e-01
5.012733195713804379e-01
5.930769996763809448e-01
6.679674867842254615e-01
7.422720599070791181e-01
8.813791114443887409e-01
9.138420371648257046e-01
1.003669984296484907e+00
1.105166289409988067e+00
1.130942638732257866e+00
1.156571013840089313e+00
1.219860929083379730e+00
1.090732665802212287e+00
1.167547365910039492e+00
1.029155989025196671e+00
1.026910385344706356e+00
9.775584740220877311e-01
8.778016590876354108e-01
7.479690549382279618e-01
6.858219288143554415e-01
5.542519358190829415e-01
4.488428136563396009e-01
3.768555537626963048e-01
3.022679154904585053e-01
2.849175513644740532e-01
2.905949185314289362e-01
1.745431069886589359e-01
1.112278801296462949e-01
5.865093627320727004e-02
5.533328961515336653e-02
2.522139397830052213e-02
1.661266149674090614e-02
2.169789873741780756e-02
3.350859816140519531e-02
8.356899557071674478e-03
7.219826492294408038e-02
7.708116031007984648e-02
3.934056449094990027e-02
-1.307130180372178749e-02
6.034708567210836372e-02
7.844073639447346480e-02
3.145353905238987280e-02
2.599329255076124681e-02
1.212497159028952110e-01
5.662968000723361817e-02
6.754213573902988210e-02
6.605944060978516386e-02
7.692054989849568536e-02
9.008163525116573422e-02
1.084898987186180552e-01
8.393633966014092673e-02
5.217087396487898876e-02
1.421865645446926396e-01
1.204560559633726519e-01
1.064789188378300888e-01
1.543573330904263741e-01
1.584474560652626429e-01
1.977939949203292025e-01
9.670576621330283229e-02
1.765800574451941718e-01
1.706963190731245750e-01
1.600292980854427227e-01
2.212594951037957780e-01
2.094773970807866093e-01
2.040864357783693794e-01
1.847656150842941214e-01
2.413640636402328565e-01
1.625356532094371642e-01
2.510981323701697021e-01
1.979827259588411437e-01
2.158970554608456716e-01
2.676616033647091775e-01
2.674112631362763892e-01
2.397834176629071445e-01
2.404094130829617926e-01
2.219791942175884936e-01
2.579189727752603800e-01
2.444309158268981319e-01
2.470811590656691592e-01
1.942852942943698313e-01
2.272931464853091277e-01
2.151441384400520351e-01
1.918614444070153024e-01
2.115493214719110227e-01
2.515716841640532331e-01
2.186084255849830571e-01
1.946483109884069029e-01
1.814433598702120676e-01
1.752780798776920335e-01
1.869212796540341559e-01
1.748900254467717630e-01
2.032296620455627256e-01
1.509237152483707822e-01
1.886731306604096936e-01
1.370169615705420507e-01
1.770103174949298197e-01
2.048249371221476378e-01
1.999440734255750474e-01
1.621939233302406025e-01
1.837543139030075046e-01
8.379583072165094904e-02
7.909820109184033388e-02
1.048640004631974376e-01
1.129790859461591995e-01
8.670392773451218726e-02
8.681640340805991951e-02
1.059810639192884096e-01
6.661418685236047965e-02
4.991624326436491094e-02
7.730983936442091531e-02
6.723978733269937724e-02
3.964588267538649013e-02
3.522100273700450035e-02
6.269186697087179849e-02
2.010331214758002624e-02
-5.931936687166535979e-03
-6.940001938728677586e-03
-6.400182436236597980e-03
-8.778088040220745000e-03
3.679252638362586619e-02
1.194024635777320327e-02
3.780536655607813490e-02
2.163943238855154522e-02
1.391437170904874857e-02
1.894840417790578241e-02
3.401516729150871887e-02
-1.125927321386232735e-02
2.422944629232778521e-02
1.823145160791055791e-02
3.683272311305654800e-02
-5.552347446511789880e-02
2.258017999556639552e-02
1.848911288293557387e-02
-1.849700071350540015e-02
-1.340320641997069101e-02
-2.040654884334358599e-02
-9.600003922984970753e-03
2.261309044868606982e-02
-1.504571629478697152e-02
4.770871026494697548e-02
-3.071831147290058142e-02
-5.765773501371813936e-02
-3.184413753158456262e-02
-5.908184684441830821e-03
6.939881232801699967e-03
1.037374640073660328e-02
-3.499796170559887204e-02
-3.125847315323764669e-03
-1.147095139378044235e-02
3.908036518026574563e-02
-1.493941106110570696e-02
1.320561142727132847e-02
6.115079731894001829e-03
4.193138572562608857e-02
1.580524490883579436e-02
-3.084850327496526518e-02
6.279746197782233585e-02
7.776815177254665229e-03
4.433993967160214378e-02
1.293735878010357498e-02
3.928057338980788307e-03
8.534415541983747869e-03
-5.215396699280607645e-02
-2.911470021918667259e-02
1.401840095265806212e-02
5.523525655678275526e-02
-2.563075178440463869e-02
2.332136838336754114e-02
3.461132436443321858e-02
2.227712333391691779e-02
-1.084238476307885363e-02
1.331343271877306195e-02
-5.066429133380088989e-02
6.666886511601285981e-02
7.539437817820890397e-02
1.237514865263169769e-02
2.659721743885957914e-03
1.691248792147734270e-02
5.549861564050780766e-02
1.301039228201124331e-02
-1.296049560898075367e-02
2.664120664958299564e-02
1.717396517797353112e-02
1.575563045098425999e-02
2.367588540331375460e-02
-8.657817462236771372e-03
-9.099694397574823942e-03
-4.292427672459084298e-02
5.866402032441422540e-03
3.965472771201464935e-03
2.538527302358404431e-03
4.786851835758594575e-02
7.385813193082378658e-02
-1.275235347696324073e-02
6.201182359814986361e-02
1.170861915014616804e-02
2.631422038171401384e-02
1.803431221250451078e-02
1.589821161238882952e-02
8.161479577481635383e-02
2.402457139351017734e-02
9.386641004753427941e-02
7.452847480392824076e-02
7.795962342551338020e-02
4.381322975290377619e-02
1.392852606909602553e-01
7.947426315058657431e-02
5.836177549601328368e-02
8.263165361575468271e-02
8.840877883622022537e-02
9.992133681095230480e-02
1.164664791804041338e-01
1.079534355180039873e-01
9.048870749738205377e-02
9.127156691926162357e-02
1.362060765522456751e-01
7.046709793020951296e-02
2.001524016245566640e-01
1.412974109592042282e-01
1.780173249992479390e-01
1.503915630480325283e-01
2.012009681053685550e-01
1.395642065704752743e-01
2.247051010763120860e-01
1.678182211353211328e-01
1.235085338139777916e-01
1.460704712518670623e-01
1.734693937279709330e-01
1.504787067596333461e-01
1.982577747542561553e-01
1.278611885035927931e-01
1.281956528791962646e-01
1.280055402401228948e-01
1.569605090994513619e-01
1.629438570339363790e-01
1.071468610536201876e-01
1.614099413748392720e-01
1.561383226497409238e-01
1.310277045372810756e-01
9.931538286676265537e-02
1.349961011895927654e-01
1.056222593981962360e-01
1.382986791901286150e-01
1.133109826676950149e-01
1.245386192780302270e-01
1.163990423799616397e-01
1.899059510677072182e-01
1.987283128255959985e-01
2.656463840109202224e-01
3.345214408258171401e-01
3.245221666545980432e-01
3.685387546907241685e-01
4.935562304289751734e-01
6.028099629131162818e-01
6.230115424639949273e-01
7.188076840321161454e-01
8.290512477636224897e-01
9.794432303927543826e-01
9.970583949891496101e-01
1.111945089785380647e+00
1.153280325149883545e+00
1.242233619651742060e+00
1.243130794939513395e+00
1.259444911294694602e+00
1.217763433827851571e+00
1.161224392996971222e+00
1.152262171608009478e+00
1.085821594417166081e+00
9.663929179667696268e-01
8.884616913691597562e-01
8.159276641735065949e-01
6.507051567772500489e-01
5.993978431046596000e-01
5.257341109649662503e-01
4.390113242567205143e-01
3.848400919253773811e-01
2.492692175394246590e-01
2.562040180359220765e-01
1.677747658785583296e-01
1.996496133587924993e-01
1.408496904473984235e-01
1.006736607247548099e-01
7.684423669730794382e-02
1.233490664801098341e-01
9.881134762068413679e-02
1.130825919270398994e-01
8.690615470800842901e-02
3.887900891621023231e-02
1.403176484158734083e-01
1.176841595061157153e-01
1.336283302944830942e-01
6.382586553796533446e-02
1.975206786778216650e-01
1.458432705560984977e-01
2.011228440379965732e-01
1.354300311578727489e-01
1.506959647763545518e-01
1.592343925738920196e-01
1.135805060449882331e-01
1.723680951303617481e-01
1.735866616175636146e-01
1.762749367137961265e-01
1.750022165230878390e-01
1.854033181433010491e-01
2.412340710136309518e-01
1.879249742116143318e-01
2.008219518385250257e-01
2.344346215647886145e-01
2.333326615990169994e-01
2.386086136049884177e-01
2.312403109961803649e-01
2.064687364254716440e-01
2.092315516628871497e-01
2.599646194233362628e-01
2.393852702411506939e-01
2.697983679584402550e-01
2.677986083289780606e-01
3.146581591264431266e-01
2.630399566316414250e-01
2.977086686430874818e-01
2.447426375284875721e-01
2.997769915137156738e-01
3.083948395858243097e-01
3.185452481214356979e-01
2.748079311815560533e-01
3.142292357778143086e-01
3.330901796563066619e-01
2.739102518623580118e-01
2.942933886581777791e-01
2.997640301629531656e-01
2.684905467654783440e-01
2.737677053333306132e-01
2.625990196253756848e-01
2.827095401815026277e-01
2.518478572764326628e-01
2.382889359370183591e-01
3.204638794067844465e-01
2.743909727179610347e-01
2.222609246984105780e-01
2.124916461091448106e-01
1.728957444977684277e-01
2.077154862574997485e-01
1.930998961636647415e-01
2.235692599044407092e-01
2.112561489359996159e-01
1.709638658008326706e-01
2.295556875884079973e-01
1.583140770348639703e-01
2.150378355625541527e-01
1.568775826157546016e-01
2.066223984126012714e-01
1.504298352614757139e-01
1.438662548801012964e-01
1.975012722666093512e-01
1.183691174557762738e-01
1.821587950370409104e-01
1.316809392996223793e-01
1.105983379873658329e-01
1.333549954167891904e-01
1.376295416666955818e-01
8.618400790586003279e-02
1.132922194672546790e-01
1.182411218942101272e-01
7.205089781766410573e-02
1.238909310648098339e-01
1.189282159405459227e-01
1.012703960847396167e-01
9.759768306985212860e-02
8.901537072147183705e-02
6.390379146817681821e-02
8.317178599517634219e-02
1.264199062251105954e-01
-1.415266388155713567e-02
4.107522691271289772e-02
4.532205618957681204e-02
3.761053782020983005e-02
3.026616020427431303e-02
6.699398433580182333e-02
9.771669599837666531e-02
4.895901426637772058e-02
1.067859112884987360e-01
1.131363441198202924e-01
8.096432542628578810e-02
4.266395273648299069e-02
1.342790610277040664e-02
5.935397843954216823e-02
7.338755407073149772e-02
6.580991230115867952e-02
1.004422044270825154e-01
1.208275311274737696e-01
8.325590789412293247e-02
5.193545780228517317e-02
3.114934025994638492e-02
2.408630159342930316e-02
8.248858813857622152e-02
3.368351820707461003e-02
3.486984401869511196e-02
3.391153431413814617e-02
5.851654523067106178e-02
2.828290003283583098e-02
9.239373872756605210e-02
8.999292921952131707e-03
9.088287198502510711e-02
2.210823711986282039e-02
9.179120599254880775e-03
5.939525248258899215e-02
6.700192389210056498e-02
5.522378539273887360e-02
5.514743735112884876e-02
6.137948898153249705e-02
4.674152682840322648e-02
2.399975133464314278e-02
1.629235990644214288e-02
5.997272710347932578e-02
6.392486149746240409e-02
7.440823271288812824e-02
2.864683982620955249e-02
8.146677226801327110e-02
1.049529598911328881e-01
4.727064734392123074e-02
3.874988442797315524e-03
1.425038316633060048e-02
3.192971247282696406e-02
-1.125901119895396374e-02
5.242250215781258521e-02
6.134055072497106992e-02
5.948440961911703739e-02
6.953979591751785483e-03
-9.038671516587340471e-03
7.068948196155237784e-02
1.156008667883064722e-01
9.321856641563029677e-02
5.013175356138321881e-02
2.513901141904451714e-02
3.475525274364273109e-02
6.747783670567905623e-02
3.584752761603310356e-02
4.318756776595117364e-02
5.276089307928418654e-02
9.080558399060897901e-02
9.627507489241822480e-02
1.016105556051544317e-01
2.094052588745326515e-02
5.284444062033150091e-02
7.503294758311356005e-02
4.848121165417687561e-02
4.967611168959414070e-02
1.164761142494155632e-01
1.440329893765902314e-01
4.888021641753718949e-02
5.420866047114959035e-02
4.974305545499541764e-02
7.789486252317513737e-02
1.429911910829920751e-01
7.554709961020551756e-02
1.068372586295263660e-01
1.791787637113074205e-01
1.236042381154324465e-01
1.457801751618292840e-01
1.065548562919543252e-01
1.210397733423244637e-01
1.537823010747324526e-01
1.725269556540859894e-01
1.024126174972651293e-01
1.611984074837087555e-01
1.472619384705543266e-01
1.154444895130691956e-01
1.552532684120857820e-01
1.872424726724488397e-01
1.844571152752325360e-01
2.136580931814019146e-01
2.046309891277902360e-01
1.642360489250940248e-01
1.728941766251926304e-01
2.274257254192796063e-01
2.192133734043947291e-01
2.261042154007228133e-01
1.909440371301790729e-01
2.484218913999215184e-01
1.988726442493157776e-01
2.789124454244893969e-01
1.998124283463343920e-01
2.037215513931271427e-01
2.314841465807104259e-01
1.587660547448788706e-01
1.821287836996638987e-01
1.500705185638440131e-01
1.755415235580906341e-01
1.232147248383183569e-01
2.043266901882664910e-01
1.837829638991138048e-01
1.481561145091020437e-01
1.701646545465400340e-01
1.690394648026425362e-01
1.792308361715959086e-01
1.359108143765667132e-01
1.911282935862505528e-01
1.615676706517840400e-01
2.429008904323181062e-01
2.557895109847482251e-01
2.654285705378428561e-01
3.705405538296248635e-01
4.265720977071181252e-01
4.316133057796442962e-01
4.963106428799342051e-01
5.839229259709663999e-01
7.062381369053695179e-01
7.777468289310287552e-01
8.949864886966579780e-01
1.012636603346446451e+00
1.116343084635630811e+00
1.091950289347614289e+00
1.123900659564910809e+00
1.227893429878002429e+00
1.221367312817431383e+00
1.238271270181616313e+00
1.232157265339475671e+00
1.221416037693655809e+00
1.141330929156288976e+00
1.048200163213281799e+00
9.885857266076987226e-01
8.881763460924744225e-01
7.845730885482592454e-01
6.689729532144719215e-01
5.946113048110054367e-01
5.370268206658900256e-01
4.587861983017871292e-01
3.396947440346001490e-01
3.009389006266151023e-01
2.324251342418605093e-01
2.445607492548121931e-01
1.883606977509899028e-01
1.349148608277575545e-01
1.289539171590735334e-01
5.971060972061063149e-02
1.070936674129371602e-01
1.261938466792166258e-01
1.249832252814716271e-01
9.364557101729392707e-02
1.100636006968051528e-01
1.291858992322518218e-01
1.465429094592666237e-01
1.147649829618440642e-01
1.488171363059824226e-01
1.017318773094507828e-01
1.511251601077405193e-01
1.503206231421170824e-01
9.484615580319583072e-02
1.510455927086397088e-01
1.991830754461396680e-01
1.328137146181423700e-01
1.808345387221169664e-01
2.016129134964959047e-01
2.150457426474516598e-01
2.013976653319013710e-01
1.863500260159569599e-01
2.321230909949450472e-01
2.117171001415271980e-01
1.819382928799337662e-01
2.210072171448894951e-01
1.790712900756930293e-01
2.419929335588819619e-01
2.409590422393874110e-01
2.148093560043661809e-01
3.257765471446278926e-01
2.266626819066153986e-01
2.753859698835247061e-01
2.671978462917427022e-01
2.568731309043105204e-01
2.667270317900976018e-01
2.592699618187584987e-01
2.953182621246296380e-01
3.329949908882227083e-01
3.442588220196973192e-01
3.091813536905337334e-01
2.698896513018594900e-01
3.057449778252087080e-01
2.963087985958569037e-01
3.041281612108233112e-01
2.499815488041821909e-01
2.400818724231970069e-01
3.248663468817532540e-01
2.826158826698159654e-01
2.713038762751027733e-01
2.853763043732975291e-01
2.321343770137554996e-01
3.182390850895969736e-01
2.295398468819076776e-01
2.130465215229090381e-01
2.963054113526410460e-01
3.368863071129318820e-01
2.133727249424404171e-01
2.537908460692733237e-01
3.261956719689487194e-01
1.771498332902536887e-01
2.247483665036430767e-01
2.464683923923958742e-01
1.921931806869646708e-01
2.408670269487465099e-01
2.130573462116855665e-01
1.551349201729174954e-01
1.421445925402500809e-01
1.541341722426472494e-01
1.529183827346670133e-01
1.617167388199088340e-01
2.118295419488764320e-01
1.309669607440045458e-01
1.444130529003412322e-01
1.887002647985690229e-01
1.580818173071918964e-01
1.241223055036575207e-01
1.097566662008528371e-01
6.368774594996501337e-02
9.917784345026071924e-02
1.709027810696906458e-01
7.566462330694799510e-02
1.238597990170949015e-01
6.704866889529340068e-02
1.083867021481633164e-01
1.105451655458329074e-01
5.988535366347631089e-02
5.314071260821487397e-02
8.808518542831519915e-02
8.775828664286580705e-02
8.926357707621572490e-02
6.125315857464257857e-02
2.567792270170470362e-02
5.260198814495042896e-02
2.049396531198078783e-02
6.820131548503050034e-02
1.706097650019414852e-02
2.358191306328551173e-02
4.073349269147794049e-02
8.530439262833375280e-02
6.645290065278499497e-03
2.146742188448224481e-02
2.548627849881870272e-02
5.256621742410554771e-02
1.100059556115570367e-02
4.286961219082119356e-04
1.292210568578663205e-02
4.649917065141763450e-02
-1.342311439184509098e-02
6.594460540696878148e-02
5.569267039496216681e-02
5.340643936235653366e-02
4.545165484042050508e-02
3.497432144998733478e-02
7.447180608488090936e-03
1.782698218945527255e-02
1.640286008771496551e-02
-1.326821105571247134e-02
7.351416091683304899e-02
-7.197728143685584723e-03
1.505911585972960487e-02
1.949512684641593191e-02
3.856894709373269448e-02
1.541157889113618264e-02
6.882805867917906467e-03
5.718388197723989208e-02
1.262394269484987952e-01
9.141223075717540281e-02
2.989243972487332091e-02
-2.324473906814784885e-02
-2.512114631259506140e-02
5.569348400762921814e-02
2.799873897164096084e-02
3.110421241378003715e-02
3.501170187166609271e-02
5.033174111514725907e-03
2.527204388126907258e-02
4.151970994847687529e-02
7.377237837081021543e-02
7.481262246745569444e-02
4.648087012317161232e-02
1.054575203600128901e-02
3.041283970639718087e-02
6.100136829667471283e-02
8.021188539545022478e-02
6.293001770243819570e-02
7.839637628610590658e-03
5.852703363365888145e-02
5.439031281481154778e-03
5.533357543332707157e-02
6.142798710287138836e-02
4.719397623750883758e-02
5.244872446094187013e-03
-9.823360351175904059e-03
1.238916307943423514e-02
3.962528313516709699e-02
-3.139137591445868153e-03
-3.240111925270094950e-02
6.423005213331239860e-02
-1.761979439559505783e-02
2.661217331705653666e-02
3.134562073743724087e-02
-3.806406107717773962e-03
1.429195275637736712e-02
6.636843805824663156e-02
-3.256087011632179118e-02
5.175616824903172403e-02
1.982206483519149964e-02
-5.848987233796041491e-03
2.963239167396981844e-02
5.039325460237199794e-03
2.198597157862107118e-02
4.102896265119837516e-02
4.327287703465257374e-02
4.317780994935987993e-03
4.051739144463910314e-02
7.688277294339711243e-02
-1.964316849576986518e-02
-8.482493159681064182e-03
-2.851607374647446499e-02
6.853196553155604942e-02
1.591638821401424389e-02
9.418407512580405372e-03
3.230526889634696003e-02
4.203812931663224867e-02
2.052044487796060926e-02
5.573010054602584723e-02
1.035134135296489344e-02
-2.227033727767779858e-02
5.820818722479088880e-02
7.357317434098687922e-03
-3.722567149301080763e-02
-7.686226638997670224e-02
-3.273867443760862528e-02
-7.581620320732684187e-03
1.209938148957778563e-02
2.041934510911656842e-02
-3.452834464894249944e-02
8.842213597346753468e-04
-9.139875271511310392e-03
2.240469658635448752e-02
3.505329863785060229e-02
5.745955406870981164e-02
5.079154961539888991e-02
-3.154229205222476573e-02
1.433016222641800980e-02
1.046666609242420318e-03
3.793295190923276668e-03
5.969655832251995545e-03
5.627154387636803395e-02
2.918708565125285523e-02
9.365370884166841770e-03
1.200266928400962885e-02
-2.924655996900935376e-02
2.627444655693808931e-02
