1.304603631431511701e+00
1.273061506901402185e+00
1.224138076772321115e+00
1.178718941496246453e+00
1.110491272935174134e+00
1.064920442354395647e+00
9.450002999546738280e-01
8.357269855787931023e-01
7.543581030843181656e-01
5.913128692413079923e-01
5.340380442751732071e-01
4.339207151834177378e-01
3.699524424418121904e-01
2.743018427186657560e-01
2.766342635464930089e-01
1.751467360657065764e-01
1.214036572373121681e-01
1.185960336752428512e-01
9.616152450999182477e-02
1.004525453865017515e-01
1.202219099747939696e-01
7.224476511917193866e-02
8.316201725530721067e-02
4.522911155045793163e-02
2.590409285775954404e-02
8.183825355302588866e-02
1.183292913642760014e-01
6.000106768321687017e-02
6.865461772487847780e-02
1.077127024435452357e-01
1.070304882141957514e-01
7.845639506167506605e-02
1.339631664847216186e-01
7.714897429061494394e-02
1.131687791466672866e-01
8.148408732721891534e-02
1.219505824115112574e-01
1.428222466345931974e-01
1.197326736044485584e-01
1.360116663295682093e-01
1.521219605747989867e-01
1.624627603547672827e-01
1.426403231926785808e-01
2.169047269288786883e-01
1.746968120048080220e-01
1.935811173261006157e-01
1.468207478108714825e-01
2.008145805106124893e-01
1.637009348734125569e-01
2.327650463649991175e-01
2.151946187141318967e-01
1.937754361252798929e-01
2.145547677997827196e-01
2.446925718974875541e-01
2.226179847265009892e-01
2.154008809704507921e-01
2.465911524309615799e-01
2.349064649021753437e-01
2.768152960436808252e-01
2.848411893440415676e-01
1.967543675748045506e-01
2.313524789862499986e-01
3.147432478404146305e-01
2.577146301898063374e-01
2.653807002994530984e-01
2.481364883724442583e-01
2.460325434489114005e-01
1.648290587282921493e-01
2.497229990891817741e-01
2.763992187151489976e-01
1.918447491276230876e-01
1.984443486349134478e-01
2.143146228945717324e-01
1.629260614125346562e-01
1.955664334855144459e-01
1.665017276286905878e-01
2.106820895337514765e-01
1.963713432424401273e-01
1.745825531350996274e-01
1.644126364351710390e-01
1.742183249226891550e-01
1.966030386553286324e-01
1.412366593072044707e-01
1.527622677956202712e-01
1.859769550885825851e-01
1.127618643098199924e-01
1.616695015928811263e-01
1.154000453093311507e-01
1.714694579164660060e-01
3.064912970045628043e-02
8.099659940134648628e-02
1.031367012976999731e-01
9.667320489711721254e-02
1.078299874143798243e-01
7.316645626358676824e-02
1.105452206432270129e-01
8.922010577557082378e-02
3.040361608228553739e-02
9.004580284713803451e-02
6.030744681868435708e-02
6.505365633556262073e-02
8.184379278281160575e-02
-1.761222659612422456e-02
-1.860059207250735688e-02
4.290808317301168101e-02
-5.025436136232512563e-02
1.452579461399298305e-02
2.153813380317790710e-02
9.784722377122086201e-04
4.528201426119742024e-02
1.273824702446837293e-02
7.718891063653496309e-02
-3.237056307305498370e-02
2.206976094386608328e-02
1.841736498702264274e-02
-9.956045748822889285e-03
7.769307458645579451e-03
-9.489094373169745106e-03
-5.217854781471784054e-02
-5.607988490005700460e-03
3.838117767284235371e-02
3.574039311265440888e-02
-4.403147335359973435e-02
-1.341712546147476488e-02
2.614169964432216595e-02
-5.489266773978195013e-02
-1.432729205537374741e-02
-4.647577947997032916e-02
9.611628807333020413e-03
-1.308935017650786174e-02
-4.499930909371811089e-02
-3.521408339995860115e-02
9.514538819351579108e-03
-2.900101182759306714e-02
-5.029578782321722508e-02
-3.740781374192394398e-03
-1.614687250457310860e-02
-2.651064459047731969e-02
-3.706197421203049486e-02
-1.691520057880123440e-02
-2.515336640514682920e-03
-5.202932029250034729e-02
-4.786314331113575987e-02
-1.726561223358741987e-02
-2.932093650481016472e-02
-2.766239102955788884e-02
-4.990323213223110677e-02
-8.946539954604433575e-03
-5.396825931361765721e-02
5.144349242517706755e-03
8.808296957640262409e-03
1.374166356442526118e-02
3.307990712428687113e-02
-4.175247070876859923e-02
8.443448930469572150e-03
-4.816653932009039990e-02
-7.219446103378865387e-02
-6.538702440226083767e-02
-5.479093905714983725e-02
-7.912140485615021257e-02
2.979033320672945864e-02
-3.722588036985739063e-02
5.801808624285371974e-03
7.645207983228478887e-03
-5.394761091300026568e-02
-2.817883146917685155e-02
-7.333632725889903392e-02
-1.973356056319115065e-02
-1.477175400831741425e-02
1.842505092493749996e-02
-3.541461041591294212e-02
-6.826907236985264860e-03
-5.105503422878404640e-02
1.577359241853617394e-02
-1.169955303147881057e-02
-7.374384383219134698e-02
-6.457638126798211087e-02
-2.864012015097925495e-02
-2.432162455340153989e-02
-4.527381061487719544e-02
-2.402937933973263787e-02
-9.417994047911573685e-02
-5.599310495326055570e-02
-5.336761119188106195e-02
6.614852321807855595e-03
-5.067405633747525812e-02
-8.180057774552948469e-02
1.093698833072399845e-03
7.900584286056715200e-03
-6.417001624818212402e-02
-1.935423950326479320e-02
-5.762049121518680872e-02
-1.862004274405987259e-02
-1.765099319821068768e-02
3.892698916765844480e-02
3.575768192219576369e-02
-1.196714218128904980e-02
2.237042457430701847e-02
3.789475139550982363e-04
3.525411895049402472e-02
2.498370312265112136e-02
1.696435179623222850e-02
6.847457248900065685e-02
3.741357968484485680e-02
1.014839549446503730e-01
3.700941005682799323e-02
7.875562138071698359e-02
3.652162192558720821e-02
8.991018762266844710e-02
1.262360078311533795e-01
1.038235372587419519e-01
1.384056136249774138e-01
6.082316333656215268e-02
1.149252546868987923e-01
9.417425550886812657e-02
6.837637462557304147e-02
1.029516504767719332e-01
1.448698283820076815e-01
1.063521213417396583e-01
1.273817203897704420e-01
8.344490634285847697e-02
1.348756974515148144e-01
1.084445492983591025e-01
1.034181799814947039e-01
1.109535894916699184e-01
1.668145271856439071e-01
1.388172802801075079e-01
6.336751389954917157e-02
9.780359497176802086e-02
7.233787670647537360e-02
7.962787844578422813e-02
6.043193277343059805e-02
7.691792162525605547e-02
1.114984271902071528e-01
2.371299384329286775e-02
5.231323950413729190e-02
5.694055150020237849e-02
4.473497430974854305e-02
6.146970557758378584e-02
5.333425204087016702e-02
1.345572752518729431e-01
8.937634093362907539e-02
2.328305975022703089e-01
2.037448087937402397e-01
2.364006643868322988e-01
2.955851735690699367e-01
4.191563276284855921e-01
4.757134177919498663e-01
6.384629701389740175e-01
6.625808709766298765e-01
8.057944927420324088e-01
8.675650823079074092e-01
9.466402105944383694e-01
1.081033130911238427e+00
1.176062948123201224e+00
1.157016035633029905e+00
1.184936895599619344e+00
1.238046587796593156e+00
1.149813922300925384e+00
1.217576999700170193e+00
1.133026632532176059e+00
1.084468388864744615e+00
1.018201336541488589e+00
9.757238546449586991e-01
8.344121521191323332e-01
7.864043431567516729e-01
6.531914540458446661e-01
5.371538738211824038e-01
4.988402505597798187e-01
3.672960087689902120e-01
2.898085677068031885e-01
2.396715020390932926e-01
2.418388274648461400e-01
1.361565814202530811e-01
9.096337698950729411e-02
1.283306280732365856e-02
5.930172439864669909e-02
4.529900671772571497e-03
-2.611693025349929448e-02
1.328801382807411058e-02
6.352568186651808002e-02
4.756744147977953058e-02
4.156809062546375222e-02
5.580964870826309043e-02
-2.800228387555289689e-02
7.585666053729192559e-03
4.209906685091260176e-02
4.951498073552842993e-03
5.543748779326622411e-02
3.661247897978812949e-02
1.025703170158797917e-01
1.258380780150844536e-02
1.149193840431737834e-02
1.057107385920653397e-01
8.605335116883869317e-02
1.231841955231101071e-01
6.584642042937385864e-02
1.621464754095501282e-01
1.317400475548132777e-01
1.078210052773494187e-01
1.207716781889746904e-01
1.179451510215608345e-01
1.091603763820716277e-01
1.314647049876518925e-01
1.526326461705670989e-01
1.473270032753712377e-01
1.082088690527147762e-01
1.908343911820545025e-01
9.179606618851129940e-02
1.174038979695547491e-01
1.928921809871116388e-01
1.737639332003335646e-01
2.082704978821527109e-01
1.828401560630333045e-01
2.363296591468213859e-01
1.664404844399000327e-01
2.110019733879530401e-01
2.406924428844205988e-01
2.121500281971849811e-01
2.275609585088257392e-01
2.108176831687113006e-01
2.246290444933506936e-01
1.648729322096323946e-01
2.062240535191081636e-01
1.891024654426390894e-01
1.839827710114065040e-01
1.323408762376682979e-01
2.113824012391873342e-01
2.072862703255871630e-01
2.131754265636019163e-01
1.623289367072399680e-01
1.407634526657724483e-01
1.942497921212189005e-01
1.423354134797722992e-01
1.397372788969198365e-01
1.578753681251848784e-01
1.135864665114007799e-01
1.160006386878400797e-01
1.274048867257693840e-01
1.613687914841602788e-01
9.561927579781839825e-02
1.006251296436564968e-01
1.486713296973808940e-01
9.970109773699842304e-02
9.979260663516442698e-02
1.025296467099230668e-01
5.961206999906788068e-02
1.118874422619730580e-01
8.009615214634063785e-02
5.785910245785109984e-02
4.262578709370287017e-02
1.749437059704218866e-02
4.029379103747827290e-02
3.668922346458731304e-02
1.738705078119246600e-02
5.388195018707344491e-02
2.075280852467205339e-02
3.230311315255798843e-02
6.281209593169828631e-03
2.891118949122910980e-02
-1.472361579646495888e-03
1.307687861544151731e-02
-5.652900045813198660e-02
-2.219090681227935125e-02
-1.660048493812694981e-02
5.201434221927141166e-03
-2.403630474348299531e-02
-3.598674513123552993e-02
-1.139845614903593068e-02
-3.528885605096282463e-02
9.278479782874812787e-03
-1.777500537899891903e-02
-3.122761925593039306e-02
-5.691104470041878638e-02
-7.240831853072282609e-02
-4.915355186035220980e-02
-2.141070689887748443e-02
-2.316417137013274813e-02
-2.659752578345188009e-02
-4.737120502360041285e-02
-1.419547194779240129e-02
-5.540253125488348029e-02
-7.530536404985702092e-02
-6.563191735015638795e-02
-3.918464161660310113e-02
-4.359511000953986137e-02
-3.560261352781833588e-03
-1.506140037400394843e-02
-7.882184678587046689e-02
-6.373331882462252018e-02
-4.685832822725613522e-02
-8.444383416288449296e-02
-6.120524525008285560e-02
-3.267987374034907189e-02
-3.400886229511289327e-02
-3.446272792090255416e-02
-4.649386935622648598e-02
-5.838817655443966081e-03
-8.739771353067095350e-02
-1.884836894503433280e-02
-3.367563203528818605e-02
-4.130763748497737892e-02
-4.684563127842681501e-02
-4.480985472573081885e-02
-1.059399051484731236e-01
-5.663325929311761875e-02
-2.538537839447692346e-02
-9.008375908075014205e-02
-1.441902052192492456e-02
-3.314809021874236955e-02
3.692019039146003656e-03
-5.460618191530514087e-02
-4.630372269637054311e-02
-5.487414345073633043e-02
-8.558947630265234530e-02
-4.038008175470136907e-02
-2.770495935645838140e-02
1.487189448070041359e-02
-4.951181468710424971e-02
-7.388155553334582737e-02
-5.339913318423952782e-02
-5.782128008723195350e-02
6.617844593558810939e-03
-6.560382298844615045e-02
-1.639104825603284604e-02
-3.585859131604148681e-02
-9.957419088337547686e-03
-5.559783915272757671e-02
-7.978240169079936495e-02
1.466562326104245417e-02
-2.930552157326008628e-02
5.891813240349576264e-03
8.503603235288800799e-03
-5.888608671621037294e-02
-2.416525429121849783e-02
-1.905909834228522101e-02
-3.967220354137480226e-02
-1.374596658949366057e-02
-1.896260349638842491e-03
-5.902255387793640951e-02
1.569124753112510762e-02
-2.898384385676291974e-02
-3.651921940182820819e-02
-4.097182654958146653e-02
-6.656009061555168138e-02
1.838061163987728119e-02
-2.842483339619367860e-02
-5.647395451881612183e-02
7.375854426774006156e-03
-4.886408680411941097e-02
-2.582164597607227580e-02
-6.248947048657312042e-03
-6.994985230587569269e-02
2.053512268056043727e-02
1.272333045973789850e-02
-2.424485101576811380e-02
8.254256247884153574e-02
-8.517140168767256547e-04
-3.752469640102539666e-02
2.172053156596633061e-02
1.862204039700796065e-02
5.265770784349308592e-02
2.916799830746712868e-02
5.387363386671788906e-02
8.394777415553807132e-02
6.363933148354988800e-02
4.848260719373218702e-02
8.443471161995452778e-02
7.186362488271159921e-02
1.075048557121506265e-01
6.403413779510171155e-02
8.767136982715897919e-02
1.133387705703408910e-01
1.171902870233075822e-01
1.360083782970664124e-01
8.956976425811936926e-02
7.187437233542685877e-02
1.624105374954223358e-01
8.270934221877385140e-02
9.430328387017758440e-02
1.235301036120014240e-01
1.119069765866971544e-01
1.109846712730732377e-01
7.351930633727379871e-02
7.725862548616593828e-02
1.001700314933610808e-01
1.118897031902802292e-01
6.038514336986851999e-02
7.396899683900270972e-02
7.199646786819964561e-02
6.175076865944240101e-02
3.536653682709405694e-02
8.178146366223412733e-02
4.075890241523884988e-02
9.971448446069813842e-02
5.708582871486247989e-02
1.462226580152159450e-01
1.226869870807344443e-01
9.098475080031737106e-02
1.626868877218823339e-01
2.012846456455449073e-01
2.502279799836344409e-01
3.650734370221870306e-01
4.396506315656400488e-01
4.591468234837862705e-01
6.049082907001530618e-01
6.388790616621763396e-01
7.228920923304738011e-01
8.861807634815862533e-01
9.396554739005170687e-01
1.063886686026223938e+00
1.136459289889643953e+00
1.171187602222561797e+00
1.248428264884820393e+00
1.303354488213038564e+00
1.253309076917069165e+00
1.250130411397831320e+00
1.178268352421957932e+00
1.157903328661698872e+00
1.025877452231971132e+00
9.792108326793103057e-01
8.498170101832366319e-01
7.598839269138909502e-01
6.134264087313305858e-01
5.393611914626394999e-01
4.324660168039211605e-01
3.769046661166349232e-01
3.276974023251541523e-01
2.266841248373729911e-01
1.640726606661837284e-01
1.347561696031149003e-01
1.271767016457908406e-01
5.106977262922879346e-02
6.047805337171721640e-02
9.866519093366589443e-02
3.619539706528039635e-02
6.523225034390657540e-02
4.862154468151018427e-03
8.301315202932411930e-02
-2.832920915388091598e-02
-3.174509389536937787e-02
5.735039338040852364e-02
4.123274991589014060e-02
5.509687685280675873e-02
3.786182069175951515e-02
8.373878665005514421e-02
2.636541444215843855e-02
1.083475009003507655e-01
1.444930826153620063e-01
3.093934911312807776e-02
1.155026299605630968e-01
1.589157623139763331e-01
1.203634492883464691e-01
1.024188853613755973e-01
9.634096457495644472e-02
1.407540722987286608e-01
1.556569774560166708e-01
1.133629972081049431e-01
1.767775081358035627e-01
1.637094492749175956e-01
9.638033156584423222e-02
1.864267294716257517e-01
1.176717995524186877e-01
1.681530587079371197e-01
2.257100623186936716e-01
2.034409878320053155e-01
1.770771666425676183e-01
2.250252942096885311e-01
1.950944751410515210e-01
2.444151641830124289e-01
1.961324733018078859e-01
2.064114411942168659e-01
2.331167265735066274e-01
2.678017851729118104e-01
2.312973014769353908e-01
2.425809556871216799e-01
2.300236484746315258e-01
2.720250734943544524e-01
1.789782989002861591e-01
1.854094933957201596e-01
2.014709991643737486e-01
2.558152152002559632e-01
2.397656595724579620e-01
2.569555709124506371e-01
2.324085795134951948e-01
2.499538584744059877e-01
2.290207021975211032e-01
2.290686427324398200e-01
1.550932746004533014e-01
2.421223194422290337e-01
2.000308139900391358e-01
2.300938294248936755e-01
2.232357546418585748e-01
1.857720913325311696e-01
1.556772594983697744e-01
2.007249574950746851e-01
1.340726726382789613e-01
1.650052847164659720e-01
8.719396593940031970e-02
1.527268913424751628e-01
1.615775813168691122e-01
1.496796027889354674e-01
1.111122156853859705e-01
9.654860211154250860e-02
1.316938352097252185e-01
1.411444874500911439e-01
3.962551739775403703e-02
8.476832855368877928e-02
8.727455732318263604e-02
5.642217365957610115e-02
1.087798852303507868e-01
7.805187075422542753e-02
6.613644938797645645e-02
4.843050424405173637e-02
6.558947838001452646e-02
4.054433341061879081e-02
2.043080418049680880e-02
2.665104395221300215e-02
1.428361986759304515e-02
3.279963145827245047e-02
5.824082027593890931e-02
-1.595751144632897439e-02
3.069249153654109163e-02
9.160040183354789534e-02
3.521192042559828650e-02
2.498557198480550606e-02
6.503629914553793467e-02
-5.042033964632062354e-02
6.265416507706608740e-02
-1.325216148521190379e-02
2.005805093419932988e-02
-3.146054228622009036e-02
-3.663839672451339735e-02
-2.864845159775660129e-03
8.484605436622194227e-03
1.139416411853169490e-02
4.332852848911032673e-02
-5.668355834073253441e-02
-5.409991126219758882e-03
-4.724410564110353289e-02
1.866918747871184649e-03
6.691057950592479986e-02
4.084238158215373199e-02
-3.194656240681567616e-02
4.630837732453596534e-03
-1.682149218864725099e-02
4.925496852666617215e-02
2.045898464266506303e-02
-3.648511146117873472e-02
9.983608383378516152e-03
7.495155573856476100e-03
9.750342774271766877e-03
4.846857920541395269e-03
3.313962444199875651e-02
2.227852018285979632e-02
7.196796220257608255e-03
-1.010014845993224657e-02
-2.331270641269817933e-04
-1.098629310141510489e-02
-2.240644433037940891e-02
-3.350061624015533701e-02
1.452239196891567247e-02
4.271657522852839728e-02
1.505257755832875403e-02
-2.770425121932181683e-02
-2.465766810854373020e-02
2.588565773750119842e-02
-1.566053141473205956e-02
8.111233743275498252e-04
-5.695839584865211233e-03
-3.792669908840042708e-02
1.987817583723811010e-02
-1.098575851187911373e-02
-3.977836669690767990e-02
8.876046297661624798e-03
5.899145550940009496e-03
5.531172853636764225e-02
4.099118319077192305e-03
-5.696046370401301046e-02
4.675981181154732075e-02
2.470118693798275047e-02
-1.473227653889593036e-02
7.846803068823476890e-02
-5.143426649361989081e-03
5.206646885658917229e-02
1.435642327509269699e-02
5.393663409390647007e-02
-1.185520776557285119e-02
3.567002178495409098e-03
-8.065803224072132238e-04
-2.570481229176776322e-02
-1.966372870894946001e-02
-4.265130817232754001e-02
3.700269200009144444e-02
4.170611166992906765e-02
4.873698428510256364e-02
-7.999730892757697664e-04
-2.592977553079161418e-02
-1.378464854620308801e-02
3.243970788772586322e-02
7.417691582255204683e-03
-1.290078111480704240e-02
7.249328707110440362e-02
5.588829073573621173e-03
7.596250814435123733e-02
1.585507310652314178e-02
2.211333690609731256e-02
3.839452006793001720e-02
4.254956542494688077e-02
6.581583906015579799e-02
6.326392326589985737e-02
8.956997047250651878e-02
2.515756487678839221e-02
3.969016826323985142e-02
1.016776750113967398e-01
5.018479379094895748e-02
8.172558825909877200e-02
5.399146914350418103e-02
1.245271852298264481e-01
5.976314148098492429e-02
9.864610667088612173e-02
8.613144605146579036e-02
1.334180697604646360e-01
1.405617599374468507e-01
1.755286730331332701e-01
1.490065785378827390e-01
1.231390527574237892e-01
1.539546616743616980e-01
1.715096075078510196e-01
1.843865843837647622e-01
1.619435849462775023e-01
1.935605523398117311e-01
1.651053457765584986e-01
1.360798818633885132e-01
1.407306139520065891e-01
1.642303433246422861e-01
1.627592545159076143e-01
1.669251046313772746e-01
2.138589025331859017e-01
1.674620264318498197e-01
1.864096661477258610e-01
1.712384689927922143e-01
1.744534734889795213e-01
1.205169387019096178e-01
1.565494939790485485e-01
1.849948414543137187e-01
1.183122169739882490e-01
1.160723961125977588e-01
1.165352983630291162e-01
1.536221253025573941e-01
1.052372127656330814e-01
1.176365929199979926e-01
1.202305589830154758e-01
1.195446655497989646e-01
1.217088926626983536e-01
1.822952734777245343e-01
2.409687627731636750e-01
2.070587657566245465e-01
3.047063167107937898e-01
4.195503430545156065e-01
4.093540129147928419e-01
5.153509489377520181e-01
6.026683035755368012e-01
6.587199414010789233e-01
7.881731228582163906e-01
8.446347316280681250e-01
9.847436283901100929e-01
1.138019568742097753e+00
1.229530527144923280e+00
1.186802187139615050e+00
1.244330881356981333e+00
1.340724352887596060e+00
1.319681287013598991e+00
1.328460467864915673e+00
1.281396779127710994e+00
1.195535760347891996e+00
1.186816279245805905e+00
1.010276620022740879e+00
9.534236765837108551e-01
8.560472621687439387e-01
7.304362176869030332e-01
6.467599317138360560e-01
5.711391069526763342e-01
4.842378130076559484e-01
4.237030301789231346e-01
3.914714199928004956e-01
2.792656828009593140e-01
2.222012769161655632e-01
1.846240200943046472e-01
1.186474467385128517e-01
1.565044588703308204e-01
1.051393882699628995e-01
1.555363988355864258e-01
8.090006541019645336e-02
1.043548884610731864e-01
1.325443944008766473e-01
1.031774079313368953e-01
1.134736975712054563e-01
1.261232101550512075e-01
8.891197330016249734e-02
1.717216772821845150e-01
6.559919616075390869e-02
1.192079316024186320e-01
1.247724202153228656e-01
1.659349088282739970e-01
1.334209358593956285e-01
1.070367541137773049e-01
1.554964016433547924e-01
1.742153891378898367e-01
1.468189485623478396e-01
1.485244304152393557e-01
1.783283400201080005e-01
1.502672596138396877e-01
2.067550460670884716e-01
1.938322386558869459e-01
1.930995179003859585e-01
2.489528154752879974e-01
2.453460464418506515e-01
1.939760606409297594e-01
2.261542508060756240e-01
2.339670606007147047e-01
2.759541695062555644e-01
2.528599650915829278e-01
2.619782233490813850e-01
2.612981939873259551e-01
2.839989970590879875e-01
2.230634441019005432e-01
3.117758272769542982e-01
2.841397213939856892e-01
2.442370254364769899e-01
2.411677107301795908e-01
2.889606798574894664e-01
2.804316601671232867e-01
2.802106598637933432e-01
2.933519186501706844e-01
3.127898347220674502e-01
2.673550325998526045e-01
2.259158280581429756e-01
2.881723044586569360e-01
2.860271013693438946e-01
2.870729724662663407e-01
2.621578192477733715e-01
2.791339464829412087e-01
3.127924732297597266e-01
2.541699034484807829e-01
2.493636836056468409e-01
2.633594177231198263e-01
2.860391354253007945e-01
2.251443041472913908e-01
2.509005162721518745e-01
2.042311693566571940e-01
2.679579489172595474e-01
1.921978873343686278e-01
1.917573972845694752e-01
1.919855149251518123e-01
2.023793368211498356e-01
1.552725855181969761e-01
2.309625797862763785e-01
1.836466405018320480e-01
1.675453802942964421e-01
1.773119224832893082e-01
1.861910066354230675e-01
1.385477098277185792e-01
1.919485067459802685e-01
1.455748087925940459e-01
1.138244246928251380e-01
8.989684535678074684e-02
1.128889878358479287e-01
7.644978659112323938e-02
7.796827755795737724e-02
8.683332461991229156e-02
1.537581605971249932e-01
1.454856333860537199e-01
1.043724847965287333e-01
7.795776854188671279e-02
1.183312115957432520e-01
9.921717998942616856e-02
9.684556822333333093e-02
9.070167573158435803e-02
1.104700472907006181e-01
6.161873535891738973e-02
7.884910265555206133e-02
8.584204702748376992e-02
4.204635106679904810e-02
1.116990535964787756e-01
4.227054089739353676e-02
5.735305557674620636e-02
6.620637882096878923e-02
5.660195087657026586e-02
2.593952672432568024e-02
6.953918812073769939e-02
2.128322905587722719e-02
7.473559288116408961e-02
1.088622031222574171e-01
7.163335570035857247e-02
4.111972077178219914e-02
9.775299048463931273e-02
1.680494283681892645e-02
3.523317744123256184e-02
7.905329029357083259e-02
5.832413947095357182e-02
6.908488918470967466e-02
2.611412462970950921e-02
1.095550202555793662e-02
4.277701927681100413e-02
3.728821718839077370e-02
5.415623492714297799e-02
7.628349396140206296e-02
2.953839348358950484e-02
4.074981585258072997e-02
6.025996565129849297e-02
-1.309645107409609932e-02
7.141478488623949350e-02
-7.625913353300650677e-03
1.794215754570321550e-02
9.755147761712693044e-02
6.244161539496429630e-02
7.237113226096567042e-02
2.195500982649976895e-02
3.199681014856263495e-02
3.795676206633746830e-02
6.105461088357255067e-02
6.995356254382792405e-02
6.608886826725188235e-02
5.301111925546324322e-02
5.086352291011824595e-02
4.615036915022498881e-02
3.638571189020432112e-02
4.548925644847476302e-03
3.452842478596605813e-02
9.922616129648259564e-02
4.049826531110476552e-02
3.927238591872639351e-02
4.144060081998549722e-02
3.462752304976016160e-02
4.097028338212161530e-02
2.366235634324058076e-02
5.342371542863284806e-02
6.954704606900564967e-02
2.135716427022716843e-02
7.302992817431736006e-02
6.062534340192973076e-02
1.268056712105912476e-02
7.718425727840258488e-02
5.940103049280023167e-02
2.090061026044901654e-02
4.288300796697508410e-02
8.067971082984293218e-02
5.556508042175649364e-02
3.703004113297382605e-02
5.932567222895596126e-02
3.513545257152587975e-02
4.624129277535070359e-02
5.380316713818712043e-02
1.043300891176163203e-01
3.456780779344000021e-02
9.411205824852042490e-02
-2.083361723784840636e-02
5.714136754612083452e-02
7.313458137795396385e-02
9.075162587507931700e-02
8.327756004991167249e-02
-1.132180378362579454e-02
1.110046108273166632e-01
4.712838239564527687e-02
5.462077499274325260e-02
3.738993842673791340e-02
1.049714800533313036e-01
1.063613431281563437e-01
8.590714922277206678e-02
6.974313838091555917e-02
1.144371640897690612e-01
6.137311124634628468e-02
2.047224901866962488e-01
1.276342342341197089e-01
1.720391826362515086e-01
1.579116367727230741e-01
1.365087257136851639e-01
1.275102571182788469e-01
1.836257215933386200e-01
1.611622051648559373e-01
1.970413031396455183e-01
1.684127243234225801e-01
2.288491219821961187e-01
1.949151501383567797e-01
1.624316255566745082e-01
2.189490847935453011e-01
2.018114928384037721e-01
1.788092513703802566e-01
1.874673031102174758e-01
1.751150403611239081e-01
1.766224944861700119e-01
2.194740735526184428e-01
2.429634072831973468e-01
2.103868425684935761e-01
1.915667731265677243e-01
1.870502682111902237e-01
1.976279861449173336e-01
1.989124296915878998e-01
1.518918098300061914e-01
1.714037072370147019e-01
1.854439623798599390e-01
1.415015211757851277e-01
2.103849772015827513e-01
2.413762828448751119e-01
1.897798176456335639e-01
1.277436220545822287e-01
1.715352651729156186e-01
1.748053858698308538e-01
1.386726803047230450e-01
1.502241206861332778e-01
1.577538906768432003e-01
1.896719473292575731e-01
1.925719083919709140e-01
2.477473791502029232e-01
3.275654554794640849e-01
3.372777529981074718e-01
4.556551486759822245e-01
4.707861481931183145e-01
6.074982095695489193e-01
6.958759175904806193e-01
7.770345161889087304e-01
8.693368270372141549e-01
9.806199202175660545e-01
1.097715076268536372e+00
1.130593938013269906e+00
1.232926795515477458e+00
1.275671204515171020e+00
1.328054560792494065e+00
1.330390478463250759e+00
1.357817315957764670e+00
1.261373458976951190e+00
1.246246501813792706e+00
1.186456727136214306e+00
1.075403461330181054e+00
9.622855722156474778e-01
9.364571063979486576e-01
7.948518127563224400e-01
6.789969123378790661e-01
6.126151277088167646e-01
5.003038703812549004e-01
4.174128711905969458e-01
3.616634093982166731e-01
2.948343517684116621e-01
2.939678658517226317e-01
2.252152349914842144e-01
1.564145248878886507e-01
1.962364474920504365e-01
1.306868222818165226e-01
1.751341848491012598e-01
8.935754444155928622e-02
9.519209085253788061e-02
6.479838166894101581e-02
9.286986915257992858e-02
2.186844050355414848e-01
1.073212322469938307e-01
1.345869918642692287e-01
1.025657912509185810e-01
1.220593101775270251e-01
1.351045481403275184e-01
1.629224450257760193e-01
1.338518507247527523e-01
1.804510651225354201e-01
1.330536304219303301e-01
1.573841335236777494e-01
1.565508436777484080e-01
1.856479489518787496e-01
1.896851512218285518e-01
2.348534392055368070e-01
2.223906626524133068e-01
2.021610330295738889e-01
1.918654086104398249e-01
2.044160250956375824e-01
2.020163512507589521e-01
2.237975330166365184e-01
2.716357302201511947e-01
2.718524378056392798e-01
2.882079723950204397e-01
2.190861276464622087e-01
2.832736534121860217e-01
2.349778454567478247e-01
2.775097698389418777e-01
2.612406862611350578e-01
2.882500520368122543e-01
3.153789015900352877e-01
2.740920484329227858e-01
2.632072133658954205e-01
2.680957819766128236e-01
3.231929464179879030e-01
2.992548365154185097e-01
2.613334666141251539e-01
3.019461121100696088e-01
3.138470660587383554e-01
3.723931212547068603e-01
2.556268350293718905e-01
2.904960545388735604e-01
2.639989763161799674e-01
3.201318570466785696e-01
2.620377759571458354e-01
2.598355047309940380e-01
2.837937702577871812e-01
2.551061143514976592e-01
3.044156532016263905e-01
3.205707605016284156e-01
2.197599044061877283e-01
2.720428347222080268e-01
2.765724167902780528e-01
2.197887217472920540e-01
2.511466395534643903e-01
2.605318457826024670e-01
1.955553749727211299e-01
1.890701826489343818e-01
1.966077742498268943e-01
1.961399700544847469e-01
1.746931194487853500e-01
2.425568470864127024e-01
1.825345670602860626e-01
1.526876842726411776e-01
1.816128254309890833e-01
1.387281580236318645e-01
1.251771797889406901e-01
1.531293723622947078e-01
9.151168935045975172e-02
1.241048374302501922e-01
9.298144843127495451e-02
1.320634103932578629e-01
1.074103745059458159e-01
1.023114902468983678e-01
6.032249987022359622e-02
1.309322403284035041e-01
8.384018147575436619e-02
7.896221018631416344e-02
3.250799468597579539e-02
1.172205727829178645e-01
6.683997539527486431e-02
6.238179605169989761e-02
1.156770397188632143e-01
4.028591257380167989e-02
6.449076964683111979e-02
8.795806514983117719e-02
6.162699501326793228e-02
5.384941392053674281e-02
6.508092812955462714e-02
6.270699968251799983e-02
4.195932289891246558e-02
6.377429191923536522e-02
7.446031490733071023e-02
3.539491186860754812e-02
6.359591072273627910e-02
1.052476176881918662e-01
6.412626940943946807e-02
3.605780108915489224e-02
8.236275326724221829e-03
2.129265049755391451e-02
1.084717410488458475e-02
2.269503325635366386e-02
7.233118630362819768e-02
6.983102959841577806e-02
8.854883913414743346e-02
8.456698404296542765e-03
2.561597530780541573e-02
-2.126808176239632087e-02
5.937951950399093792e-02
8.411205518275519100e-02
-1.712563907400235091e-03
9.064539068925553389e-02
3.694366537806852840e-02
5.286612434210589961e-02
-6.974634928805300421e-03
4.654226662926529839e-02
6.413554993961888273e-02
5.617156141900624816e-03
3.979314517150197433e-02
3.528487255308057624e-02
2.748162179582895603e-02
6.820079491640664016e-02
2.593646151222826768e-02
4.947845450054262628e-02
5.833145839887876605e-02
-2.987454353923562136e-02
2.285150771871748490e-02
8.080931512007755169e-03
1.231191404831498415e-02
2.791295445984436074e-03
8.861740614279531650e-03
-3.161111880138460506e-02
4.122843123679883343e-03
-1.204120622956801612e-02
-1.183172134395563818e-03
4.314559373621937310e-02
6.116955605942125951e-02
3.500352718842807132e-02
3.604267597746858148e-02
-3.156984224928507943e-03
-2.224660158852347774e-03
1.936051014453758073e-02
1.932358675380145899e-02
3.854583951247962659e-02
3.349915516126303339e-02
3.269443236173633083e-02
7.549685802567798754e-02
2.040995747454356704e-02
3.962234111333576281e-02
6.651467602908120447e-02
2.869344584351507521e-02
1.589313068361713349e-02
-1.460166630822753650e-02
-1.612434482408794945e-02
4.490114621353614999e-02
2.850426461230719244e-02
4.576502502893829705e-02
1.758177283491949364e-02
3.672217751074235981e-03
-6.835460674062057707e-03
3.208486617960301657e-02
1.224555716542037598e-02
1.264553516778931658e-02
9.079602081064561125e-02
6.974733315119827082e-02
2.000798631043541193e-02
6.878574534335597790e-02
2.694644016264107975e-02
6.722338346950727794e-02
7.078768702032242621e-02
-1.697539427093336384e-02
5.041996633889414547e-02
6.663716817042790452e-02
4.699943553875426949e-02
5.585355585927654493e-02
6.753387872050145568e-02
7.310470726483403459e-02
5.452968686860972664e-02
8.500907530897788833e-02
6.601075125292607537e-02
1.105184988576896066e-01
6.834544794389971201e-02
7.585972772494074812e-02
1.679691582917212656e-01
1.633344155853901358e-01
1.701081123492677871e-01
1.494848145674023965e-01
1.623112968891511354e-01
2.202901650934138977e-01
9.067178055202328169e-02
1.643504477965558597e-01
1.969520948153339057e-01
1.217847824273697588e-01
1.441393623286848502e-01
1.289606157163212530e-01
1.235584942990421153e-01
1.055391851191457148e-01
1.656105610122278748e-01
1.849433430382685373e-01
1.628816098723571415e-01
1.394176760855049546e-01
1.443816974180399670e-01
1.367850046687133780e-01
1.798007393112022179e-01
1.180423288729330611e-01
1.497305687781154138e-01
2.279845691188862600e-01
1.228033774449614896e-01
6.531005324624736263e-02
1.828874644692582985e-01
7.546434170861272828e-02
1.427638618195818665e-01
1.385541247399052489e-01
1.088894690597645848e-01
1.021895921309027983e-01
1.951192045208161585e-01
1.661922474932761296e-01
1.653225962964320339e-01
2.751702744806345247e-01
3.127196347578117264e-01
3.069052396725514553e-01
4.584930930377668079e-01
5.214564188434064329e-01
6.276147297935430469e-01
7.732179507787040329e-01
7.703001409273477762e-01
9.081672619064552476e-01
9.961291995413195099e-01
1.109852496312066172e+00
1.145281648571347954e+00
1.236946333720891245e+00
1.309697890988590796e+00
1.347186847964440215e+00
1.303057727356601525e+00
1.229209413440987442e+00
1.254031124581195700e+00
1.108373745552990952e+00
1.019173380994509825e+00
9.652719938435880831e-01
8.599800446514404006e-01
7.937834058040047491e-01
7.157887863631005043e-01
6.003374419954218277e-01
4.395508248133436768e-01
3.656023953006004024e-01
3.304960837274963370e-01
2.701041664272797460e-01
2.430863840726565639e-01
1.978243164623768591e-01
1.541991500885832866e-01
8.348933633428194667e-02
6.856583043860737386e-03
3.978050850456249510e-02
1.057591568748797728e-01
1.391683358266115611e-01
3.515399172298289132e-03
1.490114428241257581e-02
1.057343003921523555e-01
6.233570239629961096e-02
9.033258741622900156e-02
2.989638663510980898e-02
6.965974385688092352e-02
1.319623630389581415e-01
7.697043852666447805e-02
8.547185063296559859e-02
1.161519349255831224e-01
1.456254348216792782e-01
1.210551798858504613e-01
1.242111096727569475e-01
9.688841834905675965e-02
1.467974929812487506e-01
1.481942601770981915e-01
1.609855490291753621e-01
1.742099910950520025e-01
1.819347237958718888e-01
1.717107012068433414e-01
1.417207602793961740e-01
1.940694570751174131e-01
2.093761764770449563e-01
1.913946126383604396e-01
1.761397515832074379e-01
2.064991575958827486e-01
1.805686119698131642e-01
1.794072680735495640e-01
2.112462906197547230e-01
2.149337111093205244e-01
1.920966932926996829e-01
2.385185312981256134e-01
2.353738657026289149e-01
1.964371511161073225e-01
2.467932999888965140e-01
2.176759598579229016e-01
2.673851983635791574e-01
2.007185134476923427e-01
2.314247512381230609e-01
2.359570238766008354e-01
2.353645354824559499e-01
2.888763356090411349e-01
2.574968461271029407e-01
2.383194566427100369e-01
2.285834994993936331e-01
2.530880275225798615e-01
1.809204202906812553e-01
2.434285022703211454e-01
2.000225100764196073e-01
1.740230384651513251e-01
2.080699032953487460e-01
1.870399213750884859e-01
2.188433468411224991e-01
1.796906722194853423e-01
2.076209017406445145e-01
1.911713787087812866e-01
1.532863374458155181e-01
1.384703376505997952e-01
1.773135402454527332e-01
1.608583887772108700e-01
1.309275005220248422e-01
1.581314811072439541e-01
1.066390003839543243e-01
1.201832053992805682e-01
8.845279577077434785e-02
9.727870594300266904e-02
1.105149368163463736e-01
5.235592864653395434e-02
1.034487482055710950e-01
9.527606034767092946e-02
1.047397640378682215e-01
1.052129262949888094e-01
8.294882938787087601e-02
7.870147607570772419e-02
1.424229101943216141e-02
6.546692199892881203e-02
7.973320249362964018e-02
7.325089368262244216e-02
4.537064565896085228e-02
6.049343012943752401e-02
8.225099158408702427e-02
6.918558635147589037e-03
4.912067381363524610e-02
3.790106503966413770e-02
-1.607442250023119468e-02
1.962883301778960143e-02
2.254217484331258459e-02
-1.774561284634871075e-02
-3.230022699958819132e-02
1.491170626184776596e-02
-4.930645098585529490e-03
-2.432342894065651212e-02
-5.740938019060667918e-02
-8.444207147285359705e-03
-2.786501905114692132e-02
-5.319760871314276052e-02
-3.042775085347247666e-03
-6.836511334193620670e-03
-4.948830409723718737e-02
-5.107192715334536726e-02
-5.258613343327155076e-02
-1.156640136649953257e-02
-1.229709599960635696e-03
-9.025580033743724195e-02
-3.907363674792168479e-02
-3.018638337230392099e-02
7.524905592172745350e-02
-2.889118617484927320e-02
-4.677157622562719969e-02
4.744843434667557480e-03
-6.714486979985159754e-02
-7.544117295059792061e-02
-1.010672135359342444e-02
-1.670934282507327909e-02
-5.793157591344724050e-02
-1.561409336465477068e-02
-4.123615177333017634e-02
-6.182511241879413977e-02
6.662492130291658432e-03
-5.216109083901884769e-02
-2.643403103346207705e-02
1.127902312413562452e-02
-6.834342757665992640e-03
-5.531572618006494468e-02
8.153336021943506651e-03
-4.353795775921632388e-02
-6.114206923177260833e-02
-3.452408599424664631e-02
-6.006411148139786244e-02
-6.478697117153650598e-02
-6.005697960864582463e-02
4.144751736055610203e-02
-1.318339674110235657e-02
-8.573967147441988179e-02
-9.950549908173129954e-03
-6.568828339378655901e-03
-6.672150198513214503e-02
-4.860912984302434570e-02
-1.001968695881014088e-01
-4.828337926730752461e-02
-9.344229475473767033e-02
-3.204685456355962914e-02
8.455813086892458030e-03
-1.085160819345148270e-02
-2.245295456939620793e-02
-2.688857759285318352e-02
1.321492229435608512e-02
-4.551224450073491912e-03
-9.288916369534276629e-02
-4.003169037369802563e-02
-6.985069274127822525e-02
-2.282443532392625096e-03
-2.024062559045069695e-02
-6.138307587701481716e-02
7.687201353688340177e-03
-1.907869444801299150e-02
4.555789068493072691e-02
-5.710346253335978062e-02
-4.042759296533643409e-02
-7.431401072171248123e-02
-4.759320970066076989e-02
-5.025404810895636731e-02
-1.811950308402434859e-02
-4.788587414181873919e-02
-3.622585456519582248e-02
-3.946038889054640647e-02
-2.889532858328302742e-02
-1.992270137441687350e-03
-8.305612074231689956e-02
5.249482360953114379e-03
-8.921978316273213028e-03
-2.240302391167503168e-02
-3.912010324458183030e-03
1.459932935166037560e-02
3.627786518341721139e-02
4.110544179582044377e-03
5.976563428065317929e-02
7.252488649118497832e-02
3.154283777269981104e-02
9.185335627806170966e-02
-3.862624098713851595e-04
1.524066254025797928e-02
8.255136467540026557e-02
1.112051199570909393e-01
3.260334625580506990e-02
9.565077407359312556e-02
1.202145356390850739e-01
5.945375509995362573e-02
5.326779680115388549e-02
9.440378266919181860e-02
6.986427359733213271e-02
2.892225120496925289e-02
1.256809175356501385e-01
1.016126364886135724e-01
8.725502086430644844e-02
1.274535761184671101e-01
1.029518339954735989e-01
1.384233687846023741e-01
1.207308424667767333e-01
7.064477183706417696e-02
1.318539841223659859e-01
1.296518941301548211e-01
9.017885354699377298e-02
1.421813876017876677e-01
9.497266303796869646e-02
1.007732896071938111e-01
7.663238279610534720e-02
1.995646816914545263e-02
9.753614823060730021e-02
6.701281586134200108e-02
2.375603949558694611e-02
7.414303566973021176e-02
7.285947820032837030e-02
6.694307087127378264e-02
6.330718613338683076e-02
8.101834990512346568e-02
8.271630978167332504e-02
1.218320942595484957e-01
1.319776757457097327e-01
1.656179316681769820e-01
2.197274560770562657e-01
3.204017667774280431e-01
3.491881733792834841e-01
4.419759317071325633e-01
4.828236395801567271e-01
6.313601600247971124e-01
7.487594273632367514e-01
8.391081908865178907e-01
9.017301397994180734e-01
1.021868153225737430e+00
1.078786875755415986e+00
1.172059581473613221e+00
1.185652333391198132e+00
1.272081456739197813e+00
1.282984244527989315e+00
1.222973165967360387e+00
1.171171604173834258e+00
1.087411189842963921e+00
1.128824247815710224e+00
9.839012107903992721e-01
8.661590752773050683e-01
7.584024210132080945e-01
6.382268648570018632e-01
5.960945501752780151e-01
4.892412177995487665e-01
3.744796025088938385e-01
3.250517546983517914e-01
2.647366765908522046e-01
1.985490747335491579e-01
1.970748947309389487e-01
9.567879676655036136e-02
3.215128411293127070e-02
6.666324114013741364e-02
3.044818188147679905e-02
2.736917683148917119e-02
3.808812231341826560e-02
-1.439959833000956091e-02
-2.874533870459070745e-02
4.084340332466523948e-02
2.452242766980807648e-02
6.876323343228227247e-02
5.201991861418181484e-02
3.725158755393123688e-02
-2.357316060081104947e-03
9.835240465891129102e-02
-1.481690416828163048e-02
4.963385460165312124e-02
2.522774396904980954e-02
6.475683765441014872e-02
7.586204387206268995e-02
5.232541538112761570e-02
5.087518639501139445e-02
7.759376338383026928e-02
9.814796416550841673e-02
1.195669476731643366e-01
1.239701389079071181e-01
1.022344112833354079e-01
1.009005676578797472e-01
1.723219958337756930e-01
9.197466272104899698e-02
1.646021224481152845e-01
1.266832017249599762e-01
1.621851923146346852e-01
2.000687024538032877e-01
1.649259764149963725e-01
1.875905833207500706e-01
1.801376192412356414e-01
1.873598840040341107e-01
1.857047034255152607e-01
2.008657684953439326e-01
1.749946915260315594e-01
1.808542968442755916e-01
1.742702708108776199e-01
2.231015907435053569e-01
2.695488052470788043e-01
2.323351320399809627e-01
2.236501610742632207e-01
1.814015171767870693e-01
1.443327451679204676e-01
1.311985150541894740e-01
1.165911689559858966e-01
1.959130458052069090e-01
1.699632669297525545e-01
1.982613897226549460e-01
2.043430329979211979e-01
1.699768496762071313e-01
1.557234333471420873e-01
2.126903803369891433e-01
1.853834610298010221e-01
1.664039914512135954e-01
1.643320051507682344e-01
1.802905326150714416e-01
1.330862727423047231e-01
1.713295188732650853e-01
1.545069225389162915e-01
1.742816081151917218e-01
1.695658176210028401e-01
1.362968306245916916e-01
1.439385536034969992e-01
1.028294263120320962e-01
1.188878589779275852e-01
4.974062412839216907e-02
1.217327022854597651e-01
8.126878638294807167e-02
3.685974679537110110e-02
8.898319170805352174e-02
9.232898156122207323e-02
5.779178797928128525e-02
3.780913300899324536e-02
-1.885509532729289645e-02
3.235385111780814810e-02
7.741540535754884433e-02
7.424593682581082099e-03
3.072257380817927652e-03
4.846349869348073186e-02
-3.444032785548331588e-02
-1.043335222452375366e-02
2.302433977130790427e-02
2.172383503833998086e-02
-4.065179126786910846e-02
1.687636352082536040e-02
1.308026864671604089e-02
-3.429007329766843581e-02
-1.698621483580860930e-02
7.846284835948340308e-03
-2.934504311836457283e-02
-7.148350844483314370e-02
-4.301741836609661307e-03
9.467644349983428409e-03
-2.120352275870979186e-02
-4.355478965338760444e-02
-3.226725474789958470e-02
-6.208083613576156901e-02
-9.161572836880221837e-02
-1.150432502786896682e-02
-7.978779835815283383e-03
-1.269653329363965716e-02
-3.618210916951809103e-02
3.842454709830529780e-03
-3.712083455993293868e-02
-3.737647631718390984e-02
-1.385285716705859649e-01
-5.005723740466039295e-02
-1.021281106020820173e-01
-1.322107469771814647e-03
-4.115178200601204289e-02
-3.019722907108828014e-03
-7.748931064024873472e-02
-4.247971101840339325e-02
-5.622213432612141459e-02
-1.117440542409848525e-01
-3.813159329273112241e-03
-1.449455289256352045e-02
-3.585039504066933613e-02
-2.295130156165546900e-02
-6.729832057141529877e-02
-8.000056883450590295e-02
-6.619056700512870872e-02
-6.781546060796393716e-02
-5.170001057598110072e-02
-3.630053182920798399e-02
-5.064808572836119321e-02
7.188253231051058845e-03
-9.187111338831124852e-02
-2.262799495932513519e-02
-6.679334054075646010e-02
-5.376291123629462626e-02
7.086896669176480368e-03
-5.842687394852003752e-02
-6.066226244300005482e-02
-5.874556536439985710e-02
-4.939448986568165806e-02
-4.132040123224580558e-02
-4.675778789795045909e-02
-9.656040770464965894e-02
-6.992608753936327415e-02
-1.124472780944592298e-02
-1.477903899641585042e-02
-3.434652168724142834e-02
-5.487855844821287743e-02
-3.972134226964976061e-02
-6.419660583464059656e-02
-3.615370827336823745e-03
-8.629278947697660573e-03
-3.462863022425098636e-02
-5.834226630491554100e-02
-2.699766247078328948e-02
-2.094728326571309446e-02
-3.574150154644175487e-02
-6.478540162848361872e-02
-6.941495835193670083e-03
-1.829518697033042512e-02
-6.746972445369814331e-02
-3.208959376859130130e-02
-6.096564622764726743e-02
-4.238181365289832303e-02
-4.004931621950755943e-02
-6.720156382532455064e-02
-5.603051503146276591e-02
8.494609909936445824e-03
-8.017500195711559086e-02
-5.559986306322317606e-03
-1.561389149059472237e-02
1.087379073086255921e-02
-5.572873029068713124e-02
-3.084284050319935355e-04
2.349296988596279862e-02
7.528511231769002832e-02
9.871139160223349474e-03
1.345457278483126740e-02
-2.471664176921586908e-03
5.456808409698359064e-02
-5.469720255933105402e-03
1.684419673057222649e-02
-2.341281050726155832e-02
-1.743930436824051716e-02
2.146140569563494138e-02
4.131884848673378352e-02
5.452393109995112841e-02
-1.195632839977861517e-02
8.916668031921484716e-02
1.110938993341425290e-02
4.301027762106364449e-02
7.496666683566322043e-02
9.630588980288973255e-02
8.358478461285467898e-02
9.458793163668613446e-02
3.458108863568271768e-02
1.284823886086411404e-01
7.449496355947052284e-02
1.223739181573431922e-01
1.474302345200783626e-01
9.454914935651935470e-02
1.000188199673001377e-01
1.442988515636869362e-01
1.203112635302418520e-01
1.348279296460047905e-01
1.270711382821418656e-01
1.143898753870871143e-01
1.019660344041228850e-01
1.080951689815280309e-01
1.368524536005034098e-01
1.155410045015311110e-01
5.817656074377942216e-02
4.489635866143947690e-02
1.009599359597544155e-01
1.294367549004093315e-03
3.333125913395007522e-02
4.619536644365959677e-02
9.505433013206385229e-02
1.092753879243705956e-01
7.905309771381001382e-02
7.076871109742895183e-02
1.015706318218017323e-01
2.192474888354457030e-01
1.805380847274891676e-01
1.677384253016046545e-01
2.289472832480440589e-01
2.479693627884999585e-01
3.592698267369385801e-01
4.190351074494381156e-01
5.166780041571072957e-01
5.725592521273992208e-01
7.255874632573229288e-01
8.235877113120285697e-01
9.483726107941841121e-01
9.723336298434122060e-01
1.073578911019339444e+00
1.194086964515417293e+00
1.235918205808473003e+00
1.267872674022215040e+00
1.283853024261929932e+00
1.281476482515401250e+00
1.283420519086197809e+00
1.228085375515764355e+00
1.093289759970425878e+00
1.045991261256305371e+00
8.768825238859032645e-01
8.414001998985362052e-01
7.371877779130305841e-01
6.361491677335463502e-01
6.085506342646820332e-01
4.698739361034776629e-01
3.640553007293040322e-01
2.371399366827782185e-01
2.428104673690892334e-01
2.373566865462550524e-01
7.389316752456910609e-02
1.315172768408289228e-01
7.734786689783515468e-02
9.741300726805812715e-02
3.750864170857768493e-02
3.857204603471810211e-02
7.281602272574556889e-02
4.870551183257553624e-02
6.788543985240590162e-02
7.168177929423330541e-02
5.278708941386631159e-02
1.298792403899180214e-01
4.321667838531052797e-02
8.064179845461996732e-02
1.311439150732155168e-01
4.510438214340699303e-02
8.018776000440175356e-02
1.054194269942763384e-01
3.161622623190760151e-02
8.608423759802025232e-02
1.283576230567342047e-01
1.474885854825170317e-01
1.236307757292636200e-01
1.565639628759900037e-01
1.376623278245363846e-01
1.204349205775714360e-01
1.408649479945520699e-01
1.489882515079817560e-01
1.744009136910659452e-01
1.778274693708905285e-01
1.636708257685948187e-01
1.423316583032106508e-01
2.367029331584644958e-01
2.166946840414994413e-01
2.063115350165190265e-01
2.321989912632788644e-01
2.396152918753682304e-01
2.270938721496310597e-01
1.962197395848643555e-01
2.089997490844751338e-01
2.697579833887607803e-01
1.950094824719878772e-01
2.242945813240008190e-01
2.657304016421521142e-01
2.158552567307417958e-01
2.386896457635709345e-01
2.224688879821055121e-01
2.532408748338434434e-01
2.021254722093642764e-01
2.646517282196858001e-01
2.470166801518379474e-01
2.099572984419218191e-01
1.925410953426551497e-01
2.626564640994714095e-01
2.233201752686389818e-01
1.577094352972911451e-01
2.047851067093019728e-01
2.750904398844976617e-01
1.723976817164687980e-01
2.090790755774342424e-01
2.274309348121710261e-01
1.797163341135525894e-01
1.498839032528288817e-01
1.888768438897953372e-01
1.714492289569969907e-01
1.545686315745993245e-01
1.788467618226522726e-01
2.083485414304135086e-01
1.279693038179903763e-01
1.488568719755667125e-01
1.573427114935558591e-01
1.395172612969632353e-01
8.267915308960065157e-02
1.040394774728323479e-01
1.057812255503676191e-01
1.015364527908630826e-01
1.518989639053572871e-01
3.783247572103792811e-02
1.407716217296309247e-01
5.477985771359680789e-02
4.909901554186939937e-02
5.669519362517042027e-02
1.010438378088432815e-01
9.385360870116762899e-02
5.277527934283175737e-02
4.661949187952949686e-02
4.837671584117930051e-02
4.750182737646468922e-02
4.358788676596317413e-02
7.630506338200718219e-02
4.877876744461926567e-02
6.152438692561405104e-02
9.008707926297061103e-03
-1.263674832013640843e-02
2.604252749686076715e-02
5.512492153375304904e-02
2.979123921683837772e-02
2.693996787219442302e-02
2.218958484692631905e-02
3.917357805804218274e-03
5.370105405843585838e-02
3.222632000644939931e-02
1.285202406353689458e-03
4.800618154373280377e-02
-5.722075382259769923e-03
8.128961127345686599e-03
-3.762221230048710952e-02
2.814537733435629185e-02
9.663717704667444675e-03
-1.403934145107620449e-02
9.174774126940127283e-02
2.841160997248546455e-02
6.252646797262294276e-02
2.597672430525349921e-02
6.053882554434187810e-03
-2.750741635422782050e-02
4.993980979607407639e-03
6.787733778699493736e-02
6.950745368089058726e-03
9.172458495002136156e-03
1.448696772935506409e-02
7.672802969641250026e-02
-2.127629932593558260e-02
6.706721303786788817e-03
2.506706818923248870e-02
3.856659954058158646e-02
1.296196307502642947e-02
-3.727193000008319212e-02
4.209677446856040228e-02
1.736049041524076117e-02
3.420528674225598725e-02
-3.905108080907087470e-03
5.599322601588387072e-02
1.585056313463192174e-02
-6.901906300718848447e-03
6.944326813220449979e-02
3.101503219816854201e-03
2.165076718745719692e-02
2.763753561420128138e-02
3.447438733476110295e-02
-2.399131907100166688e-02
9.347185129703249051e-02
3.413888937769041232e-02
5.919510681607627334e-02
-1.618281290014865828e-02
1.161896998113211461e-02
1.716358388239736660e-02
2.257212980361054597e-02
7.304417460974835241e-02
5.281734658411355032e-02
-9.307333776222316557e-03
7.376997938641877139e-02
-2.194156471714212714e-02
1.853228021367816711e-02
-1.534581192932431629e-02
5.214701036774954668e-02
4.090223191940174294e-03
-9.796111347687465332e-04
4.411652789846050304e-02
3.551454948010252660e-02
7.273152902129990244e-03
3.066223793379869306e-02
2.136511748980055372e-02
4.156962139704994952e-02
1.010351504747325491e-02
4.424559170173009148e-02
1.782859017370221413e-02
4.576874243649889373e-02
-2.791327684677690976e-02
1.607566282235728394e-02
-2.902176671402943026e-03
-5.475340521600702282e-03
4.085517799352355456e-02
5.347380516415438378e-02
7.447575213292989549e-02
6.801743855250640125e-02
1.858265662892866904e-02
5.822025953657361530e-02
5.611338563833151438e-02
3.385047819237914368e-02
5.298865951080049264e-02
9.557266823573495884e-02
8.696627252445117418e-02
4.897683870244204374e-02
6.617153100385750331e-02
9.640694795575352471e-02
3.490642258359734351e-02
8.408286879908177802e-02
1.212616576822679315e-01
9.421226072027519272e-02
1.327821830286033955e-01
6.182811721068991184e-02
1.540217449109163306e-01
1.144307319798798794e-01
1.635737404112729276e-01
1.889246018256494630e-01
1.678160231662295110e-01
1.455047424479199158e-01
2.051757998107920644e-01
1.575029517531390533e-01
1.591176044807031675e-01
1.593141414420484181e-01
1.642903756229026346e-01
1.423083031906550167e-01
1.495288595934193832e-01
2.164720574764971428e-01
2.262724730892960445e-01
1.585639120945238068e-01
1.951256862972467199e-01
1.719671120389107966e-01
1.474615969490286616e-01
1.890608714694576031e-01
1.489343538762044894e-01
1.878739319425998533e-01
1.427706288160584813e-01
1.655474595281273553e-01
1.353642130535863686e-01
1.587887502921175309e-01
1.011927007385979849e-01
9.952553516944406820e-02
1.618011282712730758e-01
1.463484552523913740e-01
1.379558533535010789e-01
1.714268527182674084e-01
1.433163478318907891e-01
2.382164126654601477e-01
2.149424185055213155e-01
2.799723963388463521e-01
3.288746215059660249e-01
4.422432946610020399e-01
4.183841999992865546e-01
5.078514188472433855e-01
5.887293825145674120e-01
7.504464359348100855e-01
8.341683365453769206e-01
9.951341989731259385e-01
1.056561658977587692e+00
1.086376409958363709e+00
1.199293593058928797e+00
1.286897534048869751e+00
1.305284377055185630e+00
1.317067550434722234e+00
1.308004611157853159e+00
1.297331194121777109e+00
1.221013280023830472e+00
1.189392106147755923e+00
1.120205688027120949e+00
1.007481683870520284e+00
9.212048015009273172e-01
8.175132838453850193e-01
7.040413536677320172e-01
6.488911424439918196e-01
4.596222902098626717e-01
3.998412349621165429e-01
3.864405929194071332e-01
3.334219931393438419e-01
2.440707367145144857e-01
2.399954626806835301e-01
1.601752898313559825e-01
1.332512861219337374e-01
1.454526506624815863e-01
1.398911799170703130e-01
1.120990992729161140e-01
1.559538287287276781e-01
1.241035363281892401e-01
2.647375576583539669e-02
1.077194254817626096e-01
1.256556439812266945e-01
1.440634544872910205e-01
1.561813698241592552e-01
1.364540797868359356e-01
1.307600169536601853e-01
1.432774164663399574e-01
1.455165395579220977e-01
6.522523900963886345e-02
1.672957451814331697e-01
1.140160166157693222e-01
2.269733633928802674e-01
1.616059215472511745e-01
1.917928416982506712e-01
2.056855854266224637e-01
2.169936810496670421e-01
2.128133780881154291e-01
2.096968118713660734e-01
2.854007573818754806e-01
2.557367538383376049e-01
1.957423614640640130e-01
2.231092110580679411e-01
3.167276010942397524e-01
1.730023012371493807e-01
2.388534194523621312e-01
2.222782144250641523e-01
2.347000269200452127e-01
2.141977447157694669e-01
2.888759053423732848e-01
3.036946330376708580e-01
2.838359170896613826e-01
2.815660009051598189e-01
2.676491903566542430e-01
3.201214805697754073e-01
3.234168547693709317e-01
3.396751570707069456e-01
2.555002859499432288e-01
2.771572770106593975e-01
2.922398153988213232e-01
3.179829572001821592e-01
2.847531628002943349e-01
3.132178907817280145e-01
2.383272664922156947e-01
3.083013258843892990e-01
2.661852225463038901e-01
2.474153984052089028e-01
2.785557339925231468e-01
2.937669102515193531e-01
2.349838803389076580e-01
3.113464360941644027e-01
2.405731183804656059e-01
3.296845910672046576e-01
2.188053942074041358e-01
2.187758729241765787e-01
2.103926706069297603e-01
2.319001773988694781e-01
2.628345172237797067e-01
2.025465905492531971e-01
2.097868187756302405e-01
1.911983524833114068e-01
2.182562837362075625e-01
2.016985498229663387e-01
2.725309513087169067e-01
1.909685909122582625e-01
1.894631492578029708e-01
1.919231217476915219e-01
1.084357861652115451e-01
1.284556540467830521e-01
1.618328101467050861e-01
1.880533821769475034e-01
1.271386545735805340e-01
1.263541119274773639e-01
1.130916463061391319e-01
1.303887134774981416e-01
1.656686678745128982e-01
9.930016042120280717e-02
1.479267649941852780e-01
4.005191001993307909e-02
1.281748208503808995e-01
1.033893023083142515e-01
8.592977531612294717e-02
1.142499913092770436e-01
8.473118200433742142e-02
2.238998674870482791e-02
7.384749448331215382e-02
7.638285140748479751e-02
6.611987292688839557e-02
6.058594154901659340e-02
5.684853918437916820e-02
5.726928421894694754e-02
4.418412103747080405e-02
5.520228827740081973e-02
7.763986491258058342e-02
3.241040490742017055e-04
5.114476231761270336e-02
5.744145403269825673e-02
5.889189753876564182e-02
2.250321320506273176e-02
6.609964519008691697e-02
5.465727670138377514e-02
3.712876952596577684e-02
3.032863944590934169e-02
6.411120358401559138e-02
6.945626370860630283e-03
6.214280331392457030e-02
6.209428044787129036e-02
-3.147303369891579772e-05
5.310042767484761395e-02
1.793360014223555760e-02
1.039205071558588905e-01
1.399293956749994572e-02
9.541036958240675658e-02
4.285922283559957108e-02
5.958915489859231002e-02
5.979212862429703762e-02
3.179181219421289839e-03
3.365544274692646581e-02
3.758862409406994731e-02
2.099042336207133930e-03
4.328163596318843065e-02
5.117408558302008470e-02
1.148586783877363071e-02
9.098679644953600043e-02
2.395663222927141983e-02
7.871072317585034450e-03
8.090569738432322466e-02
1.653939648094022302e-02
2.716344340122700887e-02
7.713587534943909529e-02
2.832458072456627354e-02
8.154978276794058734e-02
4.958180334039861276e-02
3.035627269392818239e-02
6.128121435017462593e-02
2.931611067475602128e-02
8.413798147731746391e-02
4.890415167129567170e-02
6.967895570298321406e-02
6.025463556967480816e-03
2.634143586874245976e-02
7.354582119730064538e-03
9.175265647970762273e-02
3.926002186368265923e-02
1.973309591898694468e-02
3.307616969933781931e-02
2.629351115624635471e-02
1.023587117685751668e-01
6.446411433793310108e-02
1.258131421268827987e-02
3.546287714175756778e-02
5.566048587437085610e-02
6.226391407550532775e-02
5.150162497766690162e-02
2.041534686205524751e-02
6.980338856809750747e-02
5.333305727041737221e-02
6.749475838188098709e-02
-1.018213275607823126e-02
6.217801626454373676e-02
9.356088431797605909e-02
5.645903483900129027e-02
5.237054496956750071e-02
3.633807984248139944e-02
8.700527591799997462e-04
6.431539940026531621e-02
5.076374188549723915e-02
1.084600500556581193e-01
3.719641620056918230e-02
7.888476796780781453e-02
9.165320378141290913e-02
9.409049588692793009e-02
6.287529824146412261e-02
8.145513092394421339e-02
1.085933037143579916e-01
9.621760234357407127e-02
1.172263017295573778e-01
6.504962249653933881e-02
1.099276847739703578e-01
1.445516243842918658e-01
1.252175390044084347e-01
7.430174170731240757e-02
1.475364340269716412e-01
1.426851743958410801e-01
1.289828692934853471e-01
1.889799908121977123e-01
1.910840562810800225e-01
1.544060722778050621e-01
1.829500991929489395e-01
1.795438016804401515e-01
1.630784954200562575e-01
2.247577800990959995e-01
1.743564926726678399e-01
1.880721949923443437e-01
1.842013053459010119e-01
2.040813467360811650e-01
2.453338025636384589e-01
2.276369114343261280e-01
2.553175838368098027e-01
2.196953397473513647e-01
2.081752054010023167e-01
1.126982335768958454e-01
1.982612620333681908e-01
1.664041328747992154e-01
1.471689072476303761e-01
1.597973302454334388e-01
1.574329436781727876e-01
1.281671748856522963e-01
1.493275158839135197e-01
2.211592008474090876e-01
1.092756561906289003e-01
1.614201218400633797e-01
1.618734926598722756e-01
1.663324117210761011e-01
1.614155507428644276e-01
1.863664503521491045e-01
1.466689439313384191e-01
1.966601721573405237e-01
2.354753409472066239e-01
3.409025399356040986e-01
3.187668230185935481e-01
3.620120371363367284e-01
4.840137597792728563e-01
5.712453544233087044e-01
6.308725087388032948e-01
6.722640598666214107e-01
8.264055565359805788e-01
9.068324592114249683e-01
1.029267834267126869e+00
1.092677051700436941e+00
1.192291539568158365e+00
1.240724157265460814e+00
1.247553005599046028e+00
1.363582619313229882e+00
1.304365276988280975e+00
1.319627099718769347e+00
1.325029463864241031e+00
1.192951589323975492e+00
1.156471716663048488e+00
1.021998495071214874e+00
9.701896929130304770e-01
8.374089151625900840e-01
6.901541045744539193e-01
6.711127020729644732e-01
5.512725206126541933e-01
4.825740379770258603e-01
3.986452329936829297e-01
3.070307034214451725e-01
3.042267833676588484e-01
2.383202310989646633e-01
1.721116088266387012e-01
1.619660867068473398e-01
1.882581178753355289e-01
1.194794328028732366e-01
1.097653014346877121e-01
1.517071407546728701e-01
1.776822672854623253e-01
7.813355835256743931e-02
1.029234436519862322e-01
1.050933555959857879e-01
1.403915114758568228e-01
1.652376121845878232e-01
1.125138270794556750e-01
7.005143710622085962e-02
1.283629676136956443e-01
1.324397557397413161e-01
1.706030420615306520e-01
1.081327042290852747e-01
1.375568216908151786e-01
1.930716357744418354e-01
1.781332497228726996e-01
1.762232460863065175e-01
1.917132065277669106e-01
1.811032952713400590e-01
1.566541953864983849e-01
1.973306113620816871e-01
2.077287535106967786e-01
2.697003245289340545e-01
2.088215181575305279e-01
2.397125746427832271e-01
2.406534881312507868e-01
2.679008066549806721e-01
2.407111936565662635e-01
2.209289788219746531e-01
3.535412910363991967e-01
2.102206208189867642e-01
2.406041870680336314e-01
2.587886567594701592e-01
3.236339474858542786e-01
2.562024717160465981e-01
2.437358188884324872e-01
2.891037338043693783e-01
3.182800525645509415e-01
2.420365347647967236e-01
2.992769305066621532e-01
2.941221736123283415e-01
2.571940603817038373e-01
2.467830296947585156e-01
2.893302928097904458e-01
2.551952814491005306e-01
2.721285485142473370e-01
3.153812840912407212e-01
2.812310397029884612e-01
2.613996989932784176e-01
3.310716585653434296e-01
2.762071320615707704e-01
2.405809132570065900e-01
2.717597972178058541e-01
2.805818112663855945e-01
2.629365463166316030e-01
2.673410192033531252e-01
2.679092341141318112e-01
2.212390074862909395e-01
2.600997422624067856e-01
2.597580566808581626e-01
2.127425162457608210e-01
2.670934400200714043e-01
1.805327708238461115e-01
1.759473704917056680e-01
1.402884369301793943e-01
1.748904333510884479e-01
1.497482955879876898e-01
1.436852249953222416e-01
1.692760169223926914e-01
1.259312648318309524e-01
1.253988570261572455e-01
1.716605738056486696e-01
9.164886013002193632e-02
1.528631277227842089e-01
1.781086310661024741e-01
1.544927162771571605e-01
8.163706942750099949e-02
4.798134263886835726e-02
8.140486012874850741e-02
7.232564428542589963e-02
2.628876616604694169e-02
5.010178787188796640e-02
6.553098306659060901e-02
9.044209724015173091e-02
7.463776096424799833e-02
5.997810992565103666e-02
7.812161041645573900e-02
5.975327568360389030e-02
4.852010326916572636e-02
-6.239483940028475728e-03
2.485996719555513823e-02
5.118052084023577697e-02
-3.081056475479748008e-03
7.432197694190532944e-02
4.236846656302058201e-02
9.485246206646791300e-02
4.121324403576899498e-02
4.723498588429074496e-02
5.240795010462914738e-04
7.566180980854878002e-02
4.668445372574098196e-02
2.952929726862800128e-02
4.684202687860680031e-02
2.584302838332743976e-02
-2.847928720585771178e-05
7.759304126246348299e-03
3.288081913100460857e-02
7.473385334468107821e-02
7.748222027269945772e-03
4.403616743604903128e-02
-7.572870830713486490e-03
3.814984748451045321e-02
3.553970108545474738e-02
-1.734762039134293832e-03
3.741613734488118126e-02
-2.007620902333170573e-02
1.898600242369840804e-02
1.072799105164219148e-02
5.739014396989877004e-02
9.665238688582985377e-03
5.575385789264844516e-02
5.479464111042058050e-02
7.858336491791860501e-02
-5.767437218629103968e-02
2.554352487907731589e-02
5.759414385161229499e-02
2.855804555315626103e-02
1.672244901827928815e-02
2.960508991297172016e-02
-5.667817866800166707e-03
6.382056654097408022e-02
1.233131690469294398e-02
4.786275885849618911e-03
-5.485707749863415195e-02
3.732327269785344626e-02
-2.513377637070239590e-02
5.725566313030983068e-02
4.538681268921231082e-02
6.988612694761384657e-03
-4.678485435562950573e-02
-9.703657362397985833e-03
1.700118287751828036e-02
1.468934195986010965e-02
-9.133102639819479229e-03
5.925568765242489322e-02
-1.619787612790998810e-02
-4.893467381038085762e-02
3.380636730416670260e-02
3.219369517726478058e-02
2.534839466988065074e-03
3.130721659677968872e-03
3.998206915362701244e-03
-1.583982171771629310e-03
3.387811940717300185e-02
1.394702575358396437e-02
-1.391700771929056668e-02
3.637758583553080127e-02
4.671126248842899509e-02
1.123535533722781754e-02
7.464281311001973868e-03
3.843953740159133936e-02
6.042067451014558610e-02
-5.266563239324398120e-03
