1.263646623543453362e+00
1.353189339879221853e+00
1.228062853482222438e+00
1.257159637509751349e+00
1.145512700440684428e+00
1.140651575622699143e+00
1.015418324639060454e+00
8.819137908808839521e-01
7.565312500214322888e-01
6.996880744365316929e-01
5.620452797267171396e-01
4.849238192848117635e-01
3.929816027431383696e-01
2.963377005957782417e-01
2.671752037531396340e-01
1.831794050211981995e-01
1.894657401130232788e-01
1.351832594128001552e-01
9.493364482570970653e-02
7.321118942742531333e-02
1.328357286213698585e-01
4.054451782587323305e-02
7.823985484215983943e-02
3.137505815343637899e-02
7.998446652066333595e-02
5.817315173128983358e-02
7.342286172042149228e-02
6.170253602328939352e-02
1.590896706901034560e-02
9.359761243757674931e-02
9.631082399462359556e-02
6.123477969321063780e-02
1.007720117213278810e-01
1.132750320640922709e-01
1.222696381373236663e-01
1.186945639568890570e-01
1.017020799417711896e-01
1.531110642155090462e-01
1.457160139534372234e-01
8.387073019411059316e-02
1.351072275362688591e-01
1.747172910671569990e-01
2.127985172826512283e-01
1.742334021118720488e-01
1.358212783565000692e-01
1.301590427822528762e-01
1.889892320737468212e-01
1.873781935730138570e-01
2.090357727326214998e-01
1.701927951152496232e-01
2.156004939243369445e-01
2.109435793716858409e-01
1.900255831987798238e-01
2.700889700287528727e-01
2.521222254022212339e-01
2.258334915935029108e-01
1.923571114518246306e-01
2.500796503468109555e-01
2.170733807754751665e-01
2.591958049579032308e-01
2.527135941503355632e-01
2.103828488371760896e-01
2.405528552190704938e-01
2.704907899833163265e-01
1.932396164416958773e-01
2.494131192605879288e-01
2.876477828918158064e-01
2.026844375451079261e-01
1.804569616131312393e-01
3.105965754400822898e-01
1.563205597194734786e-01
2.197582177779248691e-01
2.534570851450904105e-01
2.533970144876367403e-01
2.169554162815753862e-01
2.476019870839350212e-01
1.899523264060599681e-01
1.768267338976351466e-01
1.888700312696422468e-01
1.905895153484839233e-01
1.854890438099647820e-01
1.364506895613762372e-01
1.610199832823789590e-01
1.197337384905396152e-01
1.396367181788804035e-01
1.553160141196233968e-01
1.466705924175500386e-01
1.822780570093903152e-01
1.012225710656592809e-01
1.415365872654004709e-01
1.637440468531066451e-01
1.658371390513157795e-01
1.216364640743061026e-01
4.187866492200238711e-02
4.788495914382998042e-02
4.562308978471195375e-02
6.988240626701389124e-02
1.177297756549956775e-01
5.059906581368617262e-02
2.689120817357730162e-02
8.158103273939054656e-02
2.553733116151987378e-02
6.601066985489663363e-02
2.027134709281057032e-02
5.441094818464312782e-02
3.127942628682954529e-02
1.072530747908722465e-02
-2.672045007381448900e-02
1.433084689850177770e-02
-2.850068730107336787e-02
1.809076990881607061e-02
3.251504796920645646e-02
1.888927178700750692e-02
-1.868562438831197769e-03
-4.366825181015641238e-03
1.704247472699992744e-02
-2.479520105205287872e-02
-2.610086174367809431e-03
-5.139804648442460044e-02
-3.329975353903783658e-02
-5.164211204703915425e-03
-5.416747300550959349e-02
-9.158269210571761548e-03
3.258086585702504173e-03
-3.824748981737303294e-02
-7.912487199081469358e-03
-5.955890467621065276e-02
-6.157715423263342147e-03
-3.422335908003465432e-02
-5.009547775334044495e-02
-3.255720446745506702e-02
-5.796020315266722789e-02
2.371464065800479859e-04
-1.942898200746017920e-02
7.468048813797555086e-03
-7.832193567929426892e-02
2.369885649879038131e-03
-7.388830527519092695e-02
-2.673008644587322735e-02
4.647590158696854323e-02
-7.341496331853186730e-02
-2.580795666118863504e-02
-5.764608321682751502e-02
-4.377237775634888750e-02
-5.620051906175103223e-02
-1.060136468695567630e-01
-1.073417501439364458e-02
-2.551682283819966396e-02
-5.419285284496032362e-02
1.184718544296130271e-02
-9.241860618153317775e-03
-2.473761665168073762e-02
-8.265977143517698467e-03
-7.376433895984690903e-03
-2.401221219356013473e-02
-8.455369896084682924e-03
-1.346722730180714006e-02
-3.064614775026531027e-02
-3.913465501559192095e-02
-3.657985163484125946e-02
-4.130257826209453309e-02
-1.650118503361897027e-02
6.164348144599283985e-03
2.078066607111387493e-02
3.043232710495585858e-03
3.310861031336276294e-02
-3.071747776498728877e-02
3.957117727965959314e-02
4.156361728899593544e-02
-2.557046454887230980e-02
-1.357696794220733527e-02
6.480976820472571232e-03
4.636530168074130820e-02
-3.072098803654250282e-02
5.091747708311099990e-02
6.571866570869533408e-02
1.098652274653509897e-01
1.050141376202923943e-01
5.387288857211579990e-02
5.364175020819364481e-02
1.117389226938593216e-01
1.211958312034732699e-01
1.044807943985041898e-01
5.658021426224821987e-02
9.644590968424238131e-02
8.464708518858024555e-02
6.807380689385100769e-02
1.163833087719174653e-01
8.322483222897353317e-02
1.803076608142504811e-01
8.164757526599947246e-02
4.185348466258283912e-02
1.189442850240663430e-01
1.580870224337597441e-01
1.155838047155866855e-01
9.264287157899007974e-02
7.370151774547509249e-02
5.914573897880365944e-02
8.089599942086664330e-02
6.369419758952299393e-02
9.543421505292701279e-02
8.070819007056809213e-02
8.274556300477768633e-02
4.924483888040943197e-02
6.637783854628723224e-02
9.765321735725608632e-02
1.323057028008410574e-02
4.122810780376696960e-02
5.962172075037054653e-02
6.122063976273788705e-02
1.300216789042732413e-01
5.092862413970142971e-02
3.455039811682969475e-02
1.868404293473653888e-01
1.458975060941213042e-01
2.148194767960754925e-01
3.067300162572036415e-01
4.043708456663052120e-01
4.246197401202174704e-01
5.158945851725411647e-01
5.939588889203326616e-01
7.327063771811326287e-01
8.797693584544653556e-01
9.159899419732444592e-01
1.002248690297556921e+00
1.109128941807087987e+00
1.199267156714047378e+00
1.258239230666168718e+00
1.258812522063749606e+00
1.319867086726363992e+00
1.276257904033488710e+00
1.221546898217743093e+00
1.163405722087715644e+00
1.026769719271024339e+00
9.838589235575234682e-01
8.732510462105166349e-01
7.935632440529468701e-01
6.708055172557654267e-01
5.526428273880217290e-01
5.246847862035641796e-01
3.582817664320570028e-01
4.028096219142703327e-01
2.284683163367508540e-01
2.002053362518325663e-01
1.118488809710370679e-01
8.581612594784882031e-02
1.088860567073662855e-01
3.907277175181310402e-02
2.471391836806930559e-02
6.254421995793847666e-02
8.340714177837654786e-02
9.352640388912009106e-03
-3.777753239837394750e-02
9.826243231943553036e-03
1.420869417560655101e-02
2.397657710652627283e-02
4.733091871924550303e-02
5.770654239500574295e-02
1.334930073159500824e-02
4.628046259767126108e-02
5.335529760416345829e-02
1.075911761956993284e-01
8.721998457627236356e-02
4.703866055436631971e-02
3.552870710535420418e-02
6.500457426935001004e-02
8.732106433505565368e-02
8.417453118114287536e-02
7.151154444400764643e-02
7.932255177402557089e-02
1.397291213650291852e-01
6.213072599345870195e-02
1.624356799257875572e-01
1.328163022228787959e-01
1.132912046348291679e-01
1.452568524164193353e-01
1.791337146341484554e-01
1.640348026990051111e-01
1.441917982511288221e-01
1.533066077018298556e-01
1.652448282968821958e-01
1.905589325381176480e-01
1.330655157792071108e-01
1.690688875104883193e-01
1.865575462035631849e-01
1.912092044898424381e-01
1.827996606165524229e-01
2.000460816209418680e-01
1.385114356406582647e-01
1.464568633673820619e-01
2.436856700933732189e-01
1.999001914523639845e-01
1.960715990606194670e-01
1.473786572474679313e-01
1.371105190652712191e-01
2.091558999715416312e-01
2.348348446243986032e-01
1.648593817319700117e-01
1.986666923627756209e-01
2.195832881341609477e-01
1.734691773768203549e-01
2.162126382245070366e-01
1.633267705623868971e-01
1.772109865772942827e-01
2.170032744508122724e-01
1.803906437507398208e-01
1.488340805425457103e-01
1.282797036178727201e-01
1.734506995423405473e-01
1.523316872833428148e-01
1.481011636931083841e-01
1.258086258958280856e-01
1.401600317090870573e-01
8.039283288500764790e-02
7.941434786708970184e-02
6.708586120184167889e-02
1.060835995779724483e-01
6.088729661504654889e-02
5.066644852146687250e-02
7.204370722304480334e-02
3.116119323306278110e-02
6.999629132396470443e-02
3.223385062061434603e-02
8.520768129653007172e-02
7.822010758813688347e-02
8.201341464855346763e-02
-6.652804967492341459e-03
1.338490583667013151e-02
4.825718705799483116e-02
6.275707680541132982e-02
-3.882578455523310462e-02
2.301414084231846041e-02
4.898814781955342090e-03
4.525667710468243843e-03
-3.976322056388485043e-02
-2.389352503510220466e-02
1.479005451554041978e-02
1.097014989851449046e-02
-1.338004805437792433e-02
1.434336019741801194e-02
1.833845064505894296e-03
2.106579701336382116e-02
-1.180804181823147392e-02
5.414217960452095274e-02
-4.262736198301956408e-02
2.604865305064615888e-02
-6.639959940693251905e-02
-4.107412735666703119e-02
-1.773182834923157231e-02
-1.200488745316766609e-01
-5.787544374401603492e-02
2.471730984616461735e-02
1.628007387699456632e-03
-8.855835802404160573e-02
-9.256512345800768649e-02
-9.048072468863647966e-02
-7.116900137821610683e-02
-4.670165472374630117e-02
-2.057224806990861493e-02
-1.460239589338558491e-02
8.282283453920985528e-03
-5.971866690676522205e-03
-1.177690932443239691e-01
-6.211690885487076291e-02
-8.946167306454466672e-02
2.326516289657263453e-02
-5.931514026313775001e-02
-7.010420122527580289e-02
-2.474777630209732890e-02
-5.546012099965099557e-02
-1.439475828771965421e-02
-6.592617655571231250e-02
-1.864622455405592558e-02
-1.232365688977132834e-01
2.934979887427921486e-02
-2.449278443613740058e-02
-3.605407533014006599e-02
-6.093788166799232742e-02
-4.662154825850266249e-02
-4.661813734971832074e-02
-5.021095225959532060e-02
-3.479815961472434993e-02
-4.639037470748849645e-02
-4.332131191794315328e-02
-5.243817012303106373e-02
-4.298401298842317170e-02
-2.991895622761171769e-02
-3.094133363896028888e-02
-3.564801134599695359e-02
-3.899666095123275472e-02
-1.129299604277077262e-02
-4.484397895501654463e-02
-7.456933255431363872e-02
-2.185620755971455845e-02
1.161972133043669142e-02
3.721102925186778321e-03
1.718780945681157302e-02
-1.468292632341273996e-02
1.553220103861088774e-02
6.973777890531383805e-02
-2.265545658991004879e-02
3.315979559114864972e-02
1.327896926864598898e-02
6.915326225891765821e-02
3.599126016443171538e-02
3.390031939763071822e-02
6.440769463569882836e-03
2.636828456708002061e-02
4.944696463619978333e-02
9.427645438371648479e-02
1.182246120033291631e-01
7.332350240003658592e-02
7.216996905140862784e-02
9.769105889863100023e-02
9.747258530082650307e-02
8.961579400042890553e-02
9.689996296660507991e-02
1.091148130134911992e-01
1.377244478075109468e-01
8.251359044144625232e-02
6.535388326242340395e-02
1.096592540481116651e-01
7.605399152787280237e-02
1.446963858500708855e-01
1.109680591571978875e-01
9.359599223877712593e-02
9.318967703895078558e-02
1.030354475840421224e-01
1.054502003753800543e-01
1.572708587391783430e-01
4.646345673291972511e-02
1.030061226852796996e-01
1.371882586825630412e-01
7.749006430027992331e-02
6.532892002027738954e-02
5.079800142087181197e-02
5.970162387329121939e-02
6.404328396769130849e-02
1.069668014035575626e-01
1.204648971389181422e-01
8.357972605442326453e-02
1.609681592418547857e-01
1.584676724492771749e-01
1.998908097929796845e-01
2.707527621625666625e-01
2.963985249072704775e-01
3.775912979029491523e-01
4.648873704217728053e-01
5.884954643577746669e-01
5.849743233717634716e-01
7.487001192812243744e-01
8.162606611901729314e-01
9.834951340597299918e-01
1.005677212850516922e+00
1.156007268848494141e+00
1.173786090435551488e+00
1.299971549729558307e+00
1.238813391509745898e+00
1.279023803747212140e+00
1.270752876348412608e+00
1.212227208431930325e+00
1.118187732647971666e+00
1.093812900680936506e+00
9.406775811653123043e-01
9.052197973120044150e-01
7.980071631399597853e-01
6.723759915969871326e-01
5.130187240125643200e-01
4.276817475524413159e-01
3.771021128247828424e-01
3.188074149378514188e-01
2.724310658823947406e-01
2.057319045734471163e-01
1.135751291808788366e-01
1.614400524665380310e-01
1.225546956166787410e-01
6.119869128442000095e-02
7.644149207056626094e-02
1.324641455545277208e-02
2.253768795292370591e-02
-3.248900080837888171e-02
4.970054332576037681e-03
1.747018291555851865e-02
5.343594734659966317e-02
5.842847404097405162e-02
2.656553680272899509e-03
1.467426954386725352e-02
3.646489942888993946e-02
9.271617795144444785e-02
8.683110469155677635e-02
7.447009542916246949e-02
8.395248594991097657e-02
8.075555003248387209e-02
9.585470320527927912e-02
6.489513275612684984e-02
7.970864352038496692e-02
7.861335131529176290e-02
1.460679403709495561e-01
1.696621339269869522e-01
1.246497905079010371e-01
1.797160531613363754e-01
1.608481741045167390e-01
1.423202797757711358e-01
9.309575424451882464e-02
2.263587083911480780e-01
1.936300662279367979e-01
1.686009427637927272e-01
1.787796035667429950e-01
2.265713562901749134e-01
1.777515759801073236e-01
1.495214043285963412e-01
2.391492263493633363e-01
1.837171142077650698e-01
1.915270769940091156e-01
1.573180642708887911e-01
2.543694171202212084e-01
2.410863351062661475e-01
1.622283006401616934e-01
2.459331087725485365e-01
2.403059502834619388e-01
2.568488486289102757e-01
2.017891142739945409e-01
1.650529638896391649e-01
2.014829141695926029e-01
1.715291806093506843e-01
2.479242209815800124e-01
1.382694227932845799e-01
2.010775872575462087e-01
1.767157165143780906e-01
1.838424636983319871e-01
1.896964663741342316e-01
2.067333227100473514e-01
1.902747331767104255e-01
1.829899436708365412e-01
1.708142654268750005e-01
2.123712945869794255e-01
1.897711204299282195e-01
1.418262540518794856e-01
1.139005020422581838e-01
1.546571368469294994e-01
1.467076065992830580e-01
1.129247205458552977e-01
1.082778872097632933e-01
1.359462411315722208e-01
1.833986334817397090e-01
1.512540005391628528e-01
8.029548168544595188e-02
1.001550739633220305e-01
1.034669453607687806e-01
1.030762003513576164e-01
1.305776337314273061e-01
6.588555540065364757e-02
4.136521095084302185e-02
6.768162543986344648e-02
3.100513714975900587e-02
5.417623692159353327e-02
2.777037495545378598e-02
6.395056609992733065e-02
7.848638013550918169e-02
7.039920619386283440e-04
-2.793570005747564311e-04
-4.079732075751157927e-03
1.303300277146266645e-02
4.679098632786557466e-02
-2.852017197048819369e-02
2.203958944577098442e-02
6.057327587619541071e-02
-1.890380908257126291e-02
-1.363413587922056303e-02
-1.531127921668936145e-02
4.526957157365529838e-02
3.389159221507235392e-03
2.407979103274559413e-02
-2.160872632433244109e-02
2.194370319866706734e-02
-9.865479878879142989e-03
4.368095503658896150e-02
1.755339650880158656e-02
4.086464633596592622e-02
2.310069415999329787e-02
-3.654517087658534780e-02
3.873901485905520414e-02
3.800558498266764368e-02
-5.252856349658593937e-02
-1.446999553082000366e-02
-3.595100751280885798e-02
-1.679015993419755159e-03
-7.664487901401166592e-03
2.096756084707527418e-03
-3.214477484064379165e-02
-5.767652948134777136e-02
-4.816758737001684831e-02
8.282097842505728794e-03
-3.845862223350537956e-02
-5.859734763807974284e-02
-3.911985573779343944e-02
1.297404023184881711e-02
-4.003721166993247371e-02
1.319167375737312353e-03
-1.190688519130751744e-02
-8.304738148981359244e-03
-5.925394925059869478e-05
-5.541228963504202937e-02
-2.680216759473386112e-03
-2.227389156607776505e-02
-2.058186125929043625e-02
-2.384477022430780621e-02
-1.710638775785427307e-02
2.317184687159964257e-03
1.567720575805446603e-02
2.027368972554064591e-02
9.749005776676246404e-02
-1.174661338634318958e-03
3.475278123794139917e-02
-1.766573856642451867e-02
-2.567170362708591155e-02
-1.103630281368343270e-02
-1.959871844930789753e-02
4.224503051553086391e-02
6.434122037153205964e-02
3.322671150941712559e-02
1.692939383321367952e-02
2.333058267339265662e-02
3.607292298840475420e-02
8.256072500234369616e-02
6.372440856376607177e-02
9.473868355851651490e-02
3.642215454196962715e-02
4.523328406086175174e-02
6.478424760209172684e-02
3.583255168405201363e-02
9.385775922349844091e-02
5.519438192937030363e-02
4.088480597497344549e-02
1.528786632000032897e-01
1.316566082797144543e-01
1.146328937400976355e-01
1.309091314067022116e-01
1.339584916408817772e-01
1.122062838786773847e-01
1.730592890867045097e-01
1.682691202460235291e-01
1.559459618802518377e-01
9.286152271329337071e-02
9.809363819829117204e-02
1.585687982711230237e-01
1.846134773573953058e-01
1.144451922440466035e-01
1.820271695567995673e-01
1.325841727721723540e-01
1.626406566246356988e-01
1.440984412035852813e-01
1.353521571489269271e-01
1.403121127014406722e-01
1.596244615033452496e-01
1.833669018921693095e-01
1.199197856361512021e-01
1.226334040590262991e-01
1.455779423855477483e-01
1.402369785996002705e-01
9.154072261023629697e-02
4.482944023929397170e-02
7.567893967265799937e-02
9.327817363730753208e-02
1.069847905951229888e-01
1.358186686833791901e-01
7.088609163429951399e-02
1.133992402778608716e-01
1.773799453446744112e-01
1.317727857731326724e-01
2.076530014205557884e-01
2.312341993324054934e-01
2.855909096908954559e-01
2.776009166859511601e-01
3.583781911221032845e-01
4.171809980711283505e-01
5.503038073508643713e-01
6.034433458155608054e-01
7.014085140806826102e-01
7.300240744026279538e-01
8.582864917254234838e-01
1.037371107339486231e+00
1.126892004577499273e+00
1.186369994327522770e+00
1.329309851842055190e+00
1.285216667147307312e+00
1.341160821259877345e+00
1.340103479284120214e+00
1.333932408875813769e+00
1.286014408205041315e+00
1.166926129942603918e+00
1.091983362709817218e+00
1.030719652336039127e+00
9.555081670436181840e-01
8.878090603526088698e-01
7.495231195574052485e-01
6.160324276311635039e-01
5.273665069624241530e-01
4.724942982893853283e-01
3.603042542841844442e-01
3.246132287436312436e-01
1.880398528932781810e-01
1.669436205965451614e-01
1.802289213262616152e-01
2.011259817755185475e-01
9.742349525267098020e-02
1.175274917094636384e-01
1.325312710240035274e-01
9.753679573412105119e-02
8.053937351419751534e-02
1.220853998129571155e-01
4.460145233640211426e-02
2.059403028438487604e-02
4.522699299110954918e-02
3.875545544202438353e-02
6.932840692542734107e-02
9.637720600480796651e-02
8.951513462992320702e-02
3.920922233517810940e-02
1.104137871118235081e-01
1.223571935340844602e-01
1.515874722921045636e-01
1.711158846728703109e-01
1.645433025880550792e-01
7.085842906265889252e-02
1.366432026771371711e-01
1.496251544972486969e-01
1.381985398489384842e-01
2.264729912539553414e-01
1.729924761123387555e-01
1.625449267235545558e-01
2.146448548832676217e-01
1.592896804449501214e-01
1.835075046019275791e-01
2.307388099627419309e-01
1.960023187082574614e-01
2.817438717735860632e-01
2.544994681192652153e-01
2.443372557707498283e-01
2.549096514268570091e-01
2.088850691470182375e-01
2.540646403997939284e-01
2.220278555042636826e-01
2.993299431371153063e-01
3.282534690631636609e-01
2.304894994475626124e-01
2.547370306068655887e-01
2.770178886262601448e-01
3.085297512788019447e-01
3.337969375638304426e-01
2.728002760060087017e-01
3.168484088719057401e-01
2.756437761435946432e-01
2.586427577460305161e-01
2.227793796915834845e-01
2.456121027340128771e-01
2.632283083571545501e-01
2.471539309830891595e-01
3.381858048626295021e-01
2.609768004547935449e-01
2.406827445118916997e-01
1.976576631127286987e-01
2.266607742482493193e-01
2.159668401363262213e-01
2.248440301401794794e-01
2.789494953689482526e-01
2.359233306194992441e-01
2.197880169278195461e-01
1.955295873242247073e-01
1.860340156619861851e-01
1.999901681841379231e-01
2.018873378250319595e-01
1.967569287075909279e-01
1.971340065573547184e-01
1.916125295673891393e-01
1.178027810562338185e-01
1.600388319605099419e-01
1.807713053239355383e-01
1.238456036146252659e-01
1.085063067328783798e-01
7.403305696745092479e-02
9.410345572523640123e-02
1.097084387599068650e-01
1.446920589617586017e-01
6.205027423138895909e-02
1.359200492321034071e-01
9.886574172814638350e-02
4.708216946761517585e-02
1.069738190332937822e-01
1.034985243941379529e-01
8.667857047692262284e-02
8.881006883122914697e-02
9.505092090024208629e-02
7.497046830424516917e-02
9.480041393437721453e-02
2.714457583897094545e-02
7.245376760264182758e-02
7.048873422931294097e-02
8.976488549684163987e-02
7.590719557311008392e-02
4.118620746221953594e-02
6.939434348658582441e-02
2.496073402922415613e-02
2.074547973413838620e-02
4.483154562460971160e-02
1.610632955989167031e-02
3.754032873650971908e-02
6.387761875485567509e-02
7.091353380996390232e-02
1.064892785305016423e-02
-2.029207826181554652e-02
1.247882357645232684e-02
3.033771498839481912e-02
1.094027330166305045e-01
1.858443720160297269e-02
9.206854175226147907e-02
6.195472566524960756e-02
3.769491893335399219e-02
3.449521811428120366e-02
7.452705761592884337e-02
2.208537708131120755e-02
9.642403098238980230e-02
5.698091178701004261e-02
3.007466021426329073e-02
4.402417061733732845e-02
7.321732779371173394e-02
9.302516315668094005e-02
5.166606168272484811e-02
2.591366051608624821e-02
4.785997362648990172e-02
6.895161312543994503e-03
6.337952057764462133e-02
2.189869695604533539e-02
2.788420282362500183e-02
6.968996790750177361e-02
6.903068349002007553e-02
1.759678399437248492e-02
5.151080074224612115e-02
4.763830730989918050e-02
2.713376003553908886e-02
5.376642910870045589e-02
4.784678061917487651e-02
4.212687979843394298e-02
7.842557354432247441e-02
1.378338791075946895e-02
4.279605869471290319e-02
3.906818865038086397e-02
2.019174772456279118e-02
6.729183273051350667e-02
3.883751065474402853e-02
5.032697113862256294e-02
9.163725303431149993e-02
2.827014866943489135e-02
9.639139704115187723e-02
1.272011498959575715e-01
9.816295703761312996e-02
1.176221991577003911e-01
1.779577765347531149e-01
1.119679540783787841e-01
1.225496058594454096e-01
1.478434224636191452e-01
1.074507436409521954e-01
1.066002639664299367e-01
1.338648346945550127e-01
1.319371276941577742e-01
1.103350650380496983e-01
1.141679303448272370e-01
1.173622992087361427e-01
1.488644279161142059e-01
1.371235650262789818e-01
1.913608608498018060e-01
2.219269309472410023e-01
1.978135484733097027e-01
1.650645391874456247e-01
2.539057851755351924e-01
1.743169561511055676e-01
1.810937552843064346e-01
1.867973910704557872e-01
2.240842897012235435e-01
1.707636557633180618e-01
2.453273672497718882e-01
1.360069193322482051e-01
1.699413040118701868e-01
2.151208782828783472e-01
2.580424754970166434e-01
2.285212564445973094e-01
1.955516347843657965e-01
1.488695472315762769e-01
1.499797954525523835e-01
1.877279741653334333e-01
1.840204159590847766e-01
1.444241512369802971e-01
1.417619992753539337e-01
1.857810814230301533e-01
1.777623982337132313e-01
1.691821769915851092e-01
1.435673540346575905e-01
1.900259776184526350e-01
1.815391281354570285e-01
2.187653159429108762e-01
2.586074024121933213e-01
3.118025264294930210e-01
2.872096162217516735e-01
4.399265469683313334e-01
5.109793762650205462e-01
5.870137267363777500e-01
6.682344752052871151e-01
7.162976706813556360e-01
8.860313795233053513e-01
9.434598455956342278e-01
1.038593536974316445e+00
1.209266456100365872e+00
1.237933550065614563e+00
1.285810566033041891e+00
1.323567433324462694e+00
1.366272256831470466e+00
1.339250086977565868e+00
1.265613194532503538e+00
1.261029033339854610e+00
1.231739206180260560e+00
1.175718186054225622e+00
1.080336662286074612e+00
9.808427465828235547e-01
8.309525649445799189e-01
7.606296726075979509e-01
6.740757083260623395e-01
5.811036229202659609e-01
4.580646520262631194e-01
4.172917109549978965e-01
3.369996513051560783e-01
2.679265155068862869e-01
2.013593314006053014e-01
1.905088675712891810e-01
1.506325469483773549e-01
1.192397128080240620e-01
1.245255420214715497e-01
1.115178888525535927e-01
1.856546674165923672e-01
1.424250553290653809e-01
9.568766344706008953e-02
1.492128353996904633e-01
1.311533308906359108e-01
8.104991930671283373e-02
1.281638620440992415e-01
1.375682391121751946e-01
1.271665541079373685e-01
8.677137509750250388e-02
8.276942906312748094e-02
1.745910777125445068e-01
1.608127894560683058e-01
1.440400292109830782e-01
2.030861183244425938e-01
1.797436289163001910e-01
1.487590964422882134e-01
1.960554979618286953e-01
2.238244911336445819e-01
1.387618358317022349e-01
2.433734155352513806e-01
2.525256877079663509e-01
2.414121236923530700e-01
2.294415795659120738e-01
2.456519151857387839e-01
2.158566245512648085e-01
2.237799945365852028e-01
2.993933997568634653e-01
2.450040758802051466e-01
2.546274914246303145e-01
2.933022626969821189e-01
2.173612934904313732e-01
2.628746515903350733e-01
2.698543578146220812e-01
2.889700922186314025e-01
3.086408061410998438e-01
2.912507122506650670e-01
2.967215193746400859e-01
2.537782354954802866e-01
2.192579273908602244e-01
2.918994759786671667e-01
2.732995921461853217e-01
2.912274359414238067e-01
3.118028362461696124e-01
2.578796195775628353e-01
3.372614812259726591e-01
3.109358556944850083e-01
2.861238164847543786e-01
2.983055341646071446e-01
2.665312891255836036e-01
2.621264654203850353e-01
2.176402303528422733e-01
1.997369488345830668e-01
2.640897649342029418e-01
2.100911440901199745e-01
2.765743083387296464e-01
2.421772402955952586e-01
2.265132335359018867e-01
2.157977011199806450e-01
1.678969098390812320e-01
2.387353877201811581e-01
2.335889350192053016e-01
1.739083940943555173e-01
2.192287159010348208e-01
1.574208418437890722e-01
1.434672842954011207e-01
2.230972519576765178e-01
1.234411679597927636e-01
1.153524635109782065e-01
1.390035134589463206e-01
1.732733452626191994e-01
1.387142237829628866e-01
1.764488361372166247e-01
1.760212511775100797e-01
1.316208804561581069e-01
1.131477687585596137e-01
1.494003810825352552e-01
1.507731139225775563e-01
7.586280073350337716e-02
1.374872939392464410e-01
8.926347794066127883e-02
9.636890494784125516e-02
1.244170223077087217e-01
6.783990453602865844e-02
1.212003167819396543e-01
4.787296453342344132e-02
8.295883415872744304e-02
3.411569797855382169e-02
6.331008365976142915e-02
1.042475785399596122e-01
1.550837591741178328e-02
1.975644967147484679e-02
9.620819148849144020e-02
4.875640855668897378e-02
5.433369665547099769e-02
8.347656265197356262e-02
7.998103998780284329e-02
1.968326003968768473e-02
5.449628403302463064e-02
5.808197104565891028e-02
4.976479972599116841e-02
3.228130478210625154e-02
6.351221127927957066e-02
3.452124642904941948e-02
5.512377552803247177e-02
4.916382952279662460e-02
6.244850304585793099e-02
-2.126187209433957892e-03
5.410576553652259035e-02
9.299090430245349204e-02
8.194551644339875818e-02
2.882665078367602912e-02
5.791461907311469537e-02
3.242387922309374754e-02
2.574628830343768729e-02
5.203887748455355428e-02
3.928875977102947586e-02
-1.277168450201898037e-02
7.422570914282827781e-02
5.823354340274666807e-02
7.136100509996456953e-02
6.316580008051186912e-02
7.966205763139630469e-02
6.054250604642696237e-02
1.268187696039307921e-02
1.199236243381507361e-02
3.305895199877029178e-02
2.024865030566881316e-02
-2.233086526782377540e-02
1.624874148970543650e-02
8.165160775907931434e-02
1.630794007596523751e-02
5.657899481424247257e-02
2.502456571018274803e-02
5.220384203625130087e-02
4.188229805507115433e-02
3.125066735083152636e-02
6.790305370176298594e-02
4.256748155671287448e-02
2.479804301505558056e-02
5.957478809058775610e-02
1.098586495401145252e-01
4.639792041807386247e-02
6.872614225402606802e-02
9.767985416689846379e-02
7.975208227751257040e-02
3.909437444244551890e-02
5.093085578890827608e-02
3.560107228028581983e-02
9.085080677715709485e-02
6.194774141797795841e-02
8.528532269607164151e-02
1.214766573941429700e-01
1.134628640680385991e-01
7.379444635566358157e-02
1.263008953908310861e-01
1.341460136555587546e-01
1.862731820299770580e-01
1.525361997622093624e-01
1.809081994277748073e-01
2.156691591665843011e-01
2.010757593647691521e-01
1.358454783073612115e-01
1.669824463609973220e-01
2.629194410258831605e-01
1.547840302179652738e-01
1.810260935920723069e-01
2.134717972360641314e-01
1.986775449850955999e-01
1.731013881558649270e-01
2.166091726385593885e-01
1.456253415289120168e-01
1.738052501834238817e-01
1.979107648612807857e-01
1.500621807011205677e-01
2.177878124261771742e-01
1.954208549827328723e-01
2.095899688619392021e-01
2.257859715792738531e-01
1.703840848503936911e-01
1.159834263537009441e-01
1.642259382178937188e-01
1.577507643565926321e-01
1.783253183566771427e-01
1.187884106359812231e-01
1.021477446077349305e-01
1.321042484293395436e-01
1.884492830361833571e-01
1.610469422159030717e-01
1.591440384955165877e-01
1.810680545440744582e-01
2.099258223432240167e-01
2.771112443372816259e-01
2.922447008104339661e-01
3.943367445805822102e-01
4.025737375412501984e-01
4.750735178238705281e-01
5.872815670385612696e-01
6.537173683727406370e-01
8.274273170246566611e-01
8.350432922810449021e-01
9.468715820356646828e-01
1.002089337798548474e+00
1.182559432469211469e+00
1.277637319092216561e+00
1.293351716657033634e+00
1.368836376087450235e+00
1.301468615928358163e+00
1.366916471340581474e+00
1.334834409711498804e+00
1.330872359558340490e+00
1.225453616290364423e+00
1.143599203545836662e+00
1.022402010322182919e+00
9.606764506844515106e-01
7.871883763625192598e-01
7.119987534348316549e-01
6.160469159486910984e-01
4.724806537170330722e-01
4.641513294999827788e-01
3.240895364454864924e-01
3.402062076733168294e-01
2.218940795040637015e-01
2.056040364144884058e-01
1.971006931665672812e-01
2.110378170721384228e-01
1.100405765879515219e-01
9.172635059846685757e-02
1.346301091826952734e-01
1.030468298602285060e-01
1.113673232681584302e-01
1.040848128741012207e-01
9.178427054815865849e-02
8.931274811394997182e-02
1.492718184409101145e-01
6.323569843955344216e-02
6.395372339593588529e-02
8.405435850607666237e-02
1.690618151323655394e-01
1.845239458496105989e-01
1.562526836921792062e-01
7.894845754319475273e-02
1.607702492561126351e-01
1.445555411465092588e-01
1.251853124927843064e-01
2.034130736301685283e-01
2.085554744986032882e-01
1.536518432959361191e-01
2.099664497118309270e-01
1.685104721557322827e-01
1.951341929192417224e-01
1.581960268302404771e-01
1.819039563313987196e-01
1.681193219505738023e-01
2.036696139867634203e-01
1.706798986631906101e-01
3.093402734825387856e-01
2.163156060120604574e-01
2.491570196654068481e-01
2.599141229624553073e-01
2.002522094350417947e-01
2.674052319925161458e-01
2.338069649507475978e-01
2.650982047883366777e-01
2.598282513888425793e-01
2.547420790834197257e-01
2.422785502071830854e-01
3.053938478963815761e-01
3.119087408969756781e-01
2.868711130270201193e-01
2.795480463006205230e-01
2.400890081847227853e-01
2.807978196031720719e-01
2.527018885036892981e-01
2.095438958467516488e-01
2.450107876098234216e-01
2.526855217509546003e-01
2.830262796914383427e-01
2.564861161249007426e-01
2.422349142790924115e-01
2.383262261947956262e-01
2.651213946531931764e-01
2.012825261690201484e-01
2.301556416333099542e-01
2.544201669857497072e-01
2.173763380841624016e-01
2.022588976894470203e-01
1.955698393848344652e-01
1.381459137549951588e-01
1.933573531035270299e-01
1.437277315745021378e-01
1.767098748733725855e-01
1.496536869959248228e-01
2.189454688112771052e-01
1.436660618403629019e-01
7.989563602019478239e-02
1.369838569282350871e-01
9.026509042318402176e-02
1.380895948656898631e-01
1.461784399449942984e-01
8.395336064912886642e-02
1.160588616396986544e-01
1.077532967866411812e-01
6.302267236249163573e-02
7.408987815938689048e-02
1.252095464518470647e-01
7.292487734274612221e-02
6.292783284297845392e-02
7.300961398402626423e-02
5.408020900327920044e-02
5.425247155162717799e-02
6.895600445944738421e-02
5.562739140620086981e-02
1.269147207787023612e-01
9.280183614996130592e-02
4.184959404569572189e-02
4.588860014558628075e-02
1.510883307280258721e-03
1.313254549274475019e-02
2.845916407986415902e-02
5.754047218475608072e-02
3.501138215167820533e-02
2.955272596326868201e-02
9.149743356835379066e-03
-1.901671277499291518e-02
-4.025873007124563217e-03
-1.373284948869762934e-03
3.143765166045033727e-02
5.890256327757345534e-02
-1.451882731284229698e-02
1.436242752565835418e-02
6.145919382233308581e-02
2.749138988188926016e-03
3.310379717421649270e-02
-3.342639918342922567e-02
6.664837486793058485e-02
-1.481976047294662757e-02
-1.995399838331279527e-02
5.742068984144588911e-02
3.110976709909568996e-02
-2.184446802777526009e-02
1.540406190752314705e-02
1.872005704899166317e-02
-3.464206361039591509e-02
-3.204536216105187407e-02
2.903743983668084436e-02
1.976511391762237474e-02
-3.425833409242642208e-02
-3.696021375581049623e-03
2.114655286999456499e-02
3.732810327783587633e-03
-1.046162812989737297e-02
-2.398355282272685365e-02
1.413147755103753324e-02
-3.614828249392285954e-03
-4.433045431148111178e-03
2.299910059569296172e-03
2.654726929764216620e-02
-5.975102874690715188e-02
-1.520421290122217668e-02
1.062675237192586830e-02
7.321685158583015295e-03
6.109897126376227089e-02
1.334339408571603817e-02
4.228787313070072468e-02
3.117361002534931730e-02
4.148256400558373441e-02
3.669040916139957448e-03
-2.175651236525212584e-02
7.264163841833864987e-02
1.900021719673402470e-02
1.453198698405378311e-02
-8.499910550622699623e-03
4.634863162524339303e-02
-5.172221166740210985e-02
-1.343119216469957147e-02
-1.256507871479946824e-02
7.615926214940499719e-03
3.819787687315803759e-02
7.370679639690649876e-02
5.123407645768290886e-02
9.297194759362284455e-02
1.372174721038998957e-01
8.320350592155370539e-02
1.127498744626544147e-01
1.116412425397891039e-01
1.055042084074231806e-01
6.015864917947816304e-02
1.042128568229934993e-01
8.324603067235648857e-02
1.270827977880551463e-01
1.302189239851443414e-01
1.094369127938071562e-01
1.477351452056596959e-01
1.191649455142058667e-01
1.431102350595930550e-01
9.872100106831391275e-02
8.826838226902197770e-02
1.807539097499059333e-01
1.686765167161377310e-01
1.504164623108238397e-01
1.083958966410823455e-01
1.037348296855018781e-01
8.947980028869631508e-02
1.219191110925552379e-01
1.349791771836948984e-01
1.042870602526230761e-01
1.597153125747284019e-01
4.327074146187755849e-02
1.287220841462152210e-01
9.587162775434091011e-02
9.728066677447215482e-02
5.210504614137956986e-03
6.670897574847403644e-02
5.153084255782908879e-02
1.278358124384429417e-01
7.440981948000956192e-02
4.394792303570234371e-02
1.235930512474615744e-01
1.623467195671979002e-01
1.792968298440817676e-01
1.924300939368058239e-01
2.601879230891054329e-01
2.616302144812523989e-01
3.652416567614429344e-01
4.456066126374410019e-01
5.166509975222798312e-01
5.979933422698210377e-01
6.805216917710492641e-01
7.926725267461256497e-01
9.456239146093471382e-01
9.884481112024039451e-01
1.088150760097064573e+00
1.194687730913403190e+00
1.193089144999046169e+00
1.248302166955778336e+00
1.235841283607281627e+00
1.349267129763036088e+00
1.248418220811197354e+00
1.227836767895717607e+00
1.207909117633314766e+00
1.018685651049424434e+00
9.618565303238827413e-01
8.462243903114403665e-01
7.497107107595905040e-01
6.575278007806729663e-01
5.993959512324418260e-01
4.821141269103022542e-01
4.306829056321690441e-01
3.101300581392145705e-01
2.273292008891849847e-01
2.250727051230545228e-01
1.305671640331685091e-01
1.168689124496209014e-01
1.052738797596291381e-01
9.552697978179135185e-02
5.309530492964822240e-02
6.822794556362031526e-02
2.041035923534163105e-02
2.777459077955451994e-02
5.291753651690429133e-02
3.890215667073058936e-02
2.006305588667787673e-02
7.005926716930786780e-02
5.432672317608115004e-02
8.003385851299785886e-03
7.024577270247946148e-02
7.836307572624898188e-02
6.694224575754771644e-02
8.166198791346346297e-02
1.155598944482683493e-01
3.394208641792061804e-02
1.185547254180010224e-01
2.507454736622213853e-02
8.333010358665524087e-02
5.757891470228258812e-02
1.612158127118297757e-01
1.153062401153858024e-01
1.305676734148032980e-01
1.285537656935392126e-01
1.394989174515858799e-01
1.463922961529324496e-01
1.833146705683023903e-01
1.705419908013787733e-01
1.453513954140004116e-01
1.226887632202005585e-01
2.154189388785794634e-01
1.985365891582802078e-01
1.802152562377893064e-01
2.242174469628374633e-01
2.630028092946206097e-01
2.024889075322964249e-01
2.446886056776033658e-01
2.085350753362315568e-01
2.632220760387580794e-01
2.153391490411491749e-01
2.003926785382191267e-01
2.544411821835449450e-01
2.185551306967203899e-01
2.156462448583208735e-01
2.395106011790740785e-01
2.104216796423502844e-01
1.589756049511755198e-01
1.991885058508852391e-01
1.885999908435151695e-01
1.781239663562326214e-01
2.323286577699751054e-01
1.825231114541746302e-01
1.788570273339971095e-01
1.861000248162875959e-01
1.934569838484883064e-01
1.925815809907265030e-01
1.776574989731627141e-01
1.715628086957919907e-01
1.261982585758560371e-01
1.694737307522344583e-01
1.189537856438580427e-01
1.759642534273180292e-01
1.267773285866206079e-01
8.915958811682166141e-02
1.281002126408700981e-01
1.376546997403680361e-01
9.746108156924004895e-02
1.200120395853398469e-01
1.364734944801701544e-01
9.700090218887955085e-02
4.167010463805697479e-02
7.311963529686457686e-02
5.275664150241850953e-02
2.958540968129412529e-03
1.385762023441161617e-02
1.033806790220314631e-01
3.199293355687023860e-02
3.181892367653062215e-02
-4.459705419111045788e-03
8.743736830942219762e-02
3.429296044430296675e-02
7.279047021813186968e-03
3.672253351325818066e-02
4.768786676535406721e-02
-5.733019598968321778e-02
3.774270800997688025e-02
-2.938906414430638575e-02
-5.553051368309345343e-02
5.199056439095856019e-02
-2.040689988375386787e-03
-3.489701128080939518e-02
3.820151981563966320e-02
-3.439916291491260797e-02
-5.283989041453597546e-02
2.037433022085470558e-03
-7.408496138203356229e-02
-2.708411042107275457e-02
-7.308648759532335171e-02
-6.499481027086881357e-02
-1.534366892765395840e-02
-6.325955329212330780e-02
-1.123700948481273776e-02
-1.013790898223175529e-01
-4.407177093104071297e-02
-5.501092988621533730e-02
-4.661162601248419746e-02
-5.305277712188145173e-02
-2.951447372254738591e-02
-2.875653240611083725e-02
-5.393009398914545838e-02
-5.800652397223071688e-02
-3.049143340819963216e-02
-2.732309652796160657e-02
-1.101105210495549325e-01
-8.546415046791441816e-02
-8.171831158860824729e-02
-5.854779934257793583e-02
-1.035925682775146461e-01
-3.151707891750057944e-02
-7.498969052844596528e-02
-2.422450832174362356e-02
-6.595787459985347212e-02
-1.946670118618923709e-02
-5.667340601921132259e-02
-5.211415520408742286e-02
-2.570307420782096813e-02
-6.034953816705605767e-02
-9.524642708279240644e-02
-9.455112227974826755e-02
-1.580015042292129412e-02
-8.298059381105318821e-02
-5.697420621756559000e-02
-1.229711909888180077e-03
-6.056686145618780936e-02
-6.469712475151503939e-02
-3.376916449122665392e-02
4.757625388427388913e-04
1.170806622892218291e-02
-5.990494214696120284e-02
-1.781374837199820732e-02
-3.614725100928388446e-02
-3.264923981156671318e-02
-1.391864632661327095e-02
-1.481872975133419895e-02
-5.296502410056111443e-02
-4.932836466773213302e-02
3.444383668825398009e-02
-2.677161420067529496e-02
1.131880745415305561e-02
4.344631730621841686e-02
-2.008442155927173123e-03
5.083980333376066085e-02
-5.697098738611662549e-03
5.123639526976393743e-02
2.877305562863283206e-02
2.403629838046908440e-02
6.111685466858553240e-02
3.652995049763255175e-02
2.829233857556064102e-02
5.118711970939743283e-03
7.862752364741956712e-02
8.700095754013978389e-02
1.258730589050025828e-01
9.052496258860633083e-02
5.753188540243232840e-02
8.962393990979050651e-02
8.528122812929644914e-02
1.274575846184618499e-01
1.312885241398937530e-01
1.698250226176509781e-01
9.452351862955962747e-02
1.358254171512018049e-01
1.449823234947367478e-01
1.224135684387079037e-01
8.377343422905769721e-02
8.509087279492699718e-02
1.180898893181169251e-01
1.089458070082437724e-01
5.054843593336733054e-02
5.095884297859445966e-02
9.480509858074803731e-02
6.903757818585515293e-03
7.613173904548509174e-02
4.772885607408233755e-02
3.467005158513121466e-02
4.284713558280769247e-02
6.193412803025164642e-02
5.456604371805297282e-02
1.897372639805657707e-02
8.065878025538604501e-03
7.547210262276871084e-02
9.829296527195727218e-02
1.258756591596966179e-01
8.106015383468370694e-02
1.750263413976435867e-01
2.301429899581194094e-01
2.519676974547479520e-01
3.220658637272631464e-01
3.960690561856842207e-01
4.790569020505884845e-01
6.285196363492197014e-01
6.726472996251414704e-01
7.700961459199218151e-01
8.281247332738204125e-01
1.011143865830319566e+00
1.054385957296617660e+00
1.128492973189752835e+00
1.256747358512961821e+00
1.211479836694265622e+00
1.218023757396956563e+00
1.210897660591691682e+00
1.180886754972139352e+00
1.152658286542678212e+00
1.102288396192542930e+00
1.011077410872827098e+00
9.521089005525190663e-01
8.377925587730381540e-01
7.267833152386204976e-01
6.277947409322940375e-01
5.367782039963253649e-01
4.234497857226880435e-01
3.940332114636516669e-01
2.537750003842769164e-01
1.943924117073301538e-01
1.339795601707929606e-01
9.382787270844010485e-02
4.963461333282288834e-02
2.582985314012078981e-02
3.658870712805633446e-02
2.295674072929054788e-02
5.928201144501883679e-03
-9.059383942689860914e-03
5.295931297508191249e-02
5.950423586525729197e-02
3.651254889967722739e-02
2.747706035153746340e-02
6.750226063032761792e-02
3.583188067988893333e-02
-9.843837647622567799e-03
7.115069281737995688e-03
4.483337343527746266e-02
6.793864305063627984e-02
9.399578134677757935e-02
9.947470356062090846e-02
9.452146981795775393e-02
1.046412678484754943e-01
7.068990821093631971e-02
7.594095160711322734e-02
8.076463755465115857e-02
1.032318306858806267e-01
1.313434945010046040e-01
2.110687351872550799e-01
1.093333632083255125e-01
1.094843494416063989e-01
1.548703790009642867e-01
1.289018034737031970e-01
1.870285471604381522e-01
1.973877921519525958e-01
2.168413661804929060e-01
1.798919845057918576e-01
2.186517817851187373e-01
1.377080773150790305e-01
2.202180095743742905e-01
2.095189596874304505e-01
1.963553357776520736e-01
1.870130376488713386e-01
1.094735134143903499e-01
2.196986760820344442e-01
1.839979484841882118e-01
1.917743978318732223e-01
2.102092875443321573e-01
2.142108082568352501e-01
1.806461517705150177e-01
1.786494500393968066e-01
1.741929702135611713e-01
2.041806250101464160e-01
2.353786410639595317e-01
2.027543734158512578e-01
2.040986717002348239e-01
1.850349534221213399e-01
1.740490202282562737e-01
1.647127231488678678e-01
1.678507818811885710e-01
1.325088692100703791e-01
2.096082529336827649e-01
1.729312039193044714e-01
1.655527504067477729e-01
1.650130302045406117e-01
1.349927872550284180e-01
1.508673084626830918e-01
1.155806029717237893e-01
1.129743056613080054e-01
1.212039949213520318e-01
1.174560337457283277e-01
1.533011981152950232e-01
7.461639405901868138e-02
6.660761267548859221e-02
7.582422972113105064e-02
1.135588621831470912e-01
8.485527081415411566e-02
1.375173569086935443e-01
6.165908349990524562e-02
6.891653543458133024e-02
5.445289351947318890e-02
5.451487867223478445e-02
1.794355861200275931e-02
3.806602394823382224e-02
-3.411931460200495758e-03
3.588083921287103795e-02
3.416445652560011481e-02
1.046562081832889263e-02
-7.523243622567891975e-03
-1.422552542594917452e-02
-2.375863054025099258e-02
-2.083283510078308420e-02
7.261749087843946682e-02
3.178629973794762364e-03
-1.576621576290274801e-02
-3.286342402026623533e-02
-1.806563695337692899e-02
1.759699030638342543e-03
-2.090178824063759766e-03
8.926442726737163214e-03
8.540788863673001718e-03
-2.407603244283138336e-02
-4.601803559162355450e-02
-3.355536769596520474e-02
-4.023124538757236190e-03
-4.838129473601573971e-02
3.337772951761168450e-02
-5.123600953134440500e-02
-1.621912278599313070e-02
-2.336458159430052778e-02
-8.838404128093543810e-03
-9.490943729318265798e-02
-5.216386302750904147e-03
-4.514417798914441976e-02
-6.000241747587821417e-02
-5.755292700724841393e-03
-8.941861100808357055e-02
2.238838289367021256e-02
-2.911147590158038798e-02
-3.986380747717717388e-02
-7.342660156994251786e-02
-4.356244472736461176e-02
-3.349318203538786953e-04
-2.763562234510457891e-02
-1.853304610761417892e-02
-4.978363596404480895e-03
-6.065995835162610317e-02
-8.359514916597689249e-02
-6.475346594225794838e-02
-3.535904658140640727e-02
-4.132304797151854087e-02
-4.145531635001110937e-02
-1.798804291312030776e-02
-4.584430685410720296e-02
-6.424011564611174785e-02
-6.134801290822783360e-02
-1.266790527833452917e-02
1.860204464966611071e-03
1.272437302231587547e-02
-4.256686565546344281e-02
-2.184898381493325520e-02
-1.163538714959615195e-02
-1.559518180843676854e-02
-5.756418957043256401e-03
2.116091174166681577e-04
-4.148748828546421075e-02
-3.482002368299780271e-02
-7.748030096128982747e-04
-4.048383915406544853e-02
-2.622329534414321803e-02
5.430577238397030215e-04
-1.513542015733962409e-02
1.429286193616263745e-02
-1.309455736343739449e-02
-5.886104955729599270e-02
2.630277270973454401e-02
2.049932142573667598e-02
6.581472351896450190e-02
2.258964319659948622e-02
4.211117942480522430e-02
3.358927513563807199e-02
3.059406842696325152e-02
4.355783836152485322e-02
3.485342940888683932e-02
7.427674072340949285e-02
7.981502300867572564e-02
5.378385341931275765e-02
1.137570430601073657e-01
7.224340262848955030e-02
9.865306565498073443e-02
1.290812618538275114e-01
1.473100317472726406e-01
4.157844618719892804e-02
1.418142941276216429e-01
1.259446155509015841e-01
1.354167808096579662e-01
1.078373497002881043e-01
1.445615432673366396e-01
1.552831707132892869e-01
1.402452822116343201e-01
1.473769925552247673e-01
1.767943447804394830e-01
1.599256128033001156e-01
9.537406919146233786e-02
1.330039230376700299e-01
1.413436791721932040e-01
1.134078660015820778e-01
1.192336559482950198e-01
4.936184435033970364e-02
8.952425832720486976e-02
7.936278897504715768e-02
5.562736549463150049e-02
1.115571751019873714e-01
4.664068760488301879e-02
1.125643732263933439e-01
8.559974847384103913e-02
1.339600452200220559e-01
1.259819542791802971e-01
1.397791206868290725e-01
1.627278695249235740e-01
1.871398186272751341e-01
2.545675916984903031e-01
2.429536293223788779e-01
3.633166076051996263e-01
4.694399539045714387e-01
5.350651619966170225e-01
6.598851408511834382e-01
7.099488578083301693e-01
8.067100369341873023e-01
9.423304634218009346e-01
1.016666285537105807e+00
1.138279774541376632e+00
1.179592996168409957e+00
1.255458756030380485e+00
1.212196910283734441e+00
1.287746648651000081e+00
1.278120950515851506e+00
1.202799118735736750e+00
1.209152189752328965e+00
1.127550524438010182e+00
1.021021822475307372e+00
9.890518326231101387e-01
8.187327902707715044e-01
7.718459904872451149e-01
6.390671053151701919e-01
5.730560999703874225e-01
4.717265997416597023e-01
3.153852380288773016e-01
2.723384140354159766e-01
2.179119914264462943e-01
2.628866306851627699e-01
1.832112682965028883e-01
1.650884384938066940e-01
6.292662631384039751e-02
8.533232020304494514e-02
4.513881598549430302e-02
1.068222636961411731e-01
6.990853427198683023e-02
4.636861007944871604e-02
3.382211666821446222e-02
7.565606801080197730e-02
6.934133959530047742e-02
5.276676793535452908e-02
4.447176127247202265e-02
9.207484693477779869e-02
7.646112944702158909e-02
6.377256765730145160e-02
9.612230474123667490e-02
1.180023589943680618e-01
1.024517385878000730e-01
1.283727168166686472e-01
8.912179175431073075e-02
1.667266708145736243e-01
1.040042605949226817e-01
1.529638059590328614e-01
1.394185355308626695e-01
1.220158407665754979e-01
1.460885367634563170e-01
2.165032365335493592e-01
1.417028570486057459e-01
1.485831119673952094e-01
1.579278902787099592e-01
2.202348051499147530e-01
2.020720654715444098e-01
1.904697914499123568e-01
1.996381019434037007e-01
2.003363416043789091e-01
2.129325311714174440e-01
1.914669095914852681e-01
1.868345401899630942e-01
2.388452517293965793e-01
2.169017353667962167e-01
2.510682001776072259e-01
2.463705663565194937e-01
2.784784717931424458e-01
2.499964679684386626e-01
2.643196975326207454e-01
2.307118720695812697e-01
1.969101673539098429e-01
2.396127067560106516e-01
2.309170786380196072e-01
2.164200104746211439e-01
2.690283457353695451e-01
2.320801913061234789e-01
2.492685946808062825e-01
2.017301949265969951e-01
2.384444636135537587e-01
2.576116203415589889e-01
2.844886223063834985e-01
1.785916753910450627e-01
2.242470724513435654e-01
1.676105519109353792e-01
1.677816165940639037e-01
2.074675769436127026e-01
2.054290196506074473e-01
2.099983555275729274e-01
1.768557568855074480e-01
2.103279275209423704e-01
1.909982489712856446e-01
1.595691951642572437e-01
1.768167421729003319e-01
1.381855495189738270e-01
1.750367015905364976e-01
1.437904653835777591e-01
1.221993245133991546e-01
1.018783783137293952e-01
1.107663188252857867e-01
1.207701123067451143e-01
1.054457732137621673e-01
1.211758185285777834e-01
8.463839988304959483e-02
1.051302811155417072e-01
1.270159092414321206e-02
7.067675621764224481e-02
6.395863444635582762e-02
9.722467625089842996e-03
9.470117512642270419e-02
6.032612200969278415e-02
7.187167267796308601e-02
4.175815672470752776e-02
7.466950273965326790e-02
5.004442445915784077e-02
6.303596419822007912e-02
4.602803215007270771e-02
5.335935924196401337e-02
3.967347853157601051e-02
4.600192611228328537e-02
3.463051218661485076e-02
-1.625074562674630116e-02
-1.483950022101778593e-02
1.202999270618807653e-02
5.884318252369050151e-02
2.438564656356609350e-02
-1.665825469206294596e-02
1.365922249211887901e-02
8.466770174777251898e-03
1.405420863283489419e-02
4.182289367927630869e-02
3.493813911752394891e-02
4.990536260328309881e-02
1.085894268337271942e-02
2.961450550574006024e-02
4.732071328403990307e-02
1.537827032815466607e-02
-4.209594858946709428e-02
7.342660425231732624e-03
6.936084286773856744e-02
2.608498571770971261e-02
1.865297194797467875e-02
-1.133284181594508555e-03
2.148868713127267266e-03
2.114882657207018540e-02
4.165363986770674598e-02
-2.621567254020458482e-02
-1.371401624605845040e-02
2.695047153845832322e-02
2.044655426701064843e-02
-3.774398445413747194e-02
6.724529618304424944e-03
5.808953646076285560e-02
1.814395242810696099e-02
-6.552985122125643686e-03
1.564282475852523530e-02
5.935526704971112733e-02
3.748589502396725004e-02
1.626731548693693963e-04
3.812233193618000393e-02
1.402012333514381787e-02
-1.112689839766595190e-02
5.539181575628890353e-02
4.301604789105081816e-02
2.353687296655235239e-03
5.877549863023166787e-02
-3.343027422319508335e-02
3.478055515432625089e-02
1.035221345809907711e-01
1.008884559129929331e-01
3.441273577480592066e-02
1.261472548462756471e-01
6.797500513358276097e-02
4.814506065952568054e-02
6.476841871505414905e-02
4.936241096928178224e-02
9.145878065940987733e-02
6.304432687610964092e-02
8.629222375040151993e-02
7.582093673322976013e-02
3.919178256255161086e-02
7.654238525465584253e-02
9.802823502981156123e-02
1.047438804963893300e-01
1.388134256009337097e-01
1.374027041668522409e-01
1.153916112378433334e-01
1.196188992009699914e-01
1.442416889105396227e-01
1.357940231046488311e-01
1.362167097326536513e-01
1.308964408659876733e-01
1.490062927408331850e-01
1.799725423655413326e-01
1.379222660752959517e-01
1.865013824988425717e-01
2.555722163706088956e-01
1.610654417230721613e-01
1.705653172258005112e-01
1.654196420366434161e-01
1.885403108181302745e-01
1.689488016556673355e-01
1.699361028148383135e-01
1.292455887945311854e-01
1.653929022676898786e-01
1.347502703284842174e-01
1.442008660559916389e-01
1.982388174877788845e-01
1.323938181688942839e-01
1.431469817734850880e-01
1.673387833295189586e-01
1.374372641085431224e-01
1.591651241766002811e-01
1.898139832376374569e-01
1.508372583487403995e-01
9.978950805794517542e-02
1.692598986589243237e-01
1.352392556225650022e-01
9.970664443809182376e-02
1.362033341792022734e-01
1.860539782250305307e-01
2.421998009933155893e-01
2.489031979863468302e-01
3.159521937179420314e-01
3.527955562370156395e-01
4.906359599549541817e-01
4.928757999706804283e-01
6.437986418488604867e-01
6.977197806682140513e-01
8.116078392666365993e-01
8.263129070321638681e-01
1.051579836568744541e+00
1.069973288739772155e+00
1.204511464054825565e+00
1.235359220951918413e+00
1.267098436821005869e+00
1.367369329160597946e+00
1.334258894577050159e+00
1.334504294618710230e+00
1.294038464740242311e+00
1.193286630556152028e+00
1.138822772116653281e+00
1.026605366612992176e+00
9.639616028988388097e-01
9.361766070441169818e-01
8.216848506052250034e-01
7.405876141992796535e-01
6.162672418271972763e-01
5.069150046982936475e-01
4.623451225930235720e-01
3.335730256741477051e-01
3.342222516656034870e-01
2.421762775103801779e-01
2.011620998475951716e-01
1.711463612755617369e-01
1.876773697790014295e-01
1.911754585857974309e-01
7.990533816689915358e-02
1.404722857663144864e-01
9.855981399525348685e-02
1.037350720674181104e-01
1.071933927402750480e-01
1.368829548079701919e-01
6.996126652445908145e-02
7.345380308174638551e-02
1.209458670996171881e-01
7.984243471962765293e-02
1.346932453492543091e-01
1.649214632838679473e-01
1.536915007750669915e-01
1.585771898760778009e-01
1.284129860786137889e-01
2.094091800363711287e-01
2.052570817260903902e-01
2.131303912893910968e-01
1.976238322103534006e-01
1.574116214954603965e-01
1.550556446304923452e-01
2.366212492816521795e-01
1.928947560394316252e-01
1.721351469455133232e-01
1.475073621580317296e-01
2.595210777122023416e-01
2.675108074057975793e-01
3.069030029279664618e-01
2.527813794007399695e-01
2.550909575678759200e-01
1.969205812184157689e-01
2.947446730841893348e-01
2.620323993432114862e-01
2.711324494986692146e-01
2.521292025287099614e-01
2.778719283833558928e-01
2.935955929067012304e-01
2.762195214164768764e-01
2.467344217902149861e-01
3.160384597847534782e-01
3.069650248840803397e-01
2.854519512913358814e-01
3.369674496832696931e-01
2.873122143383513016e-01
3.002003514271417428e-01
2.268828279611766474e-01
2.674112909005005867e-01
3.024133822526242632e-01
2.793677356189001593e-01
3.027007221213913746e-01
2.168319464444822819e-01
2.971550864406304893e-01
2.694448867030342365e-01
3.111383266931586622e-01
2.614268025511620741e-01
2.780605599339349143e-01
2.722348046058160609e-01
2.775634268008227434e-01
2.529698725720754826e-01
2.376847319198347186e-01
2.252052360031564504e-01
2.566208811902542797e-01
2.089209785790941409e-01
1.945609781417287354e-01
2.275414877728091367e-01
2.323842143134948746e-01
2.385273930797216224e-01
2.348936283941323033e-01
1.841147860566192673e-01
1.916087754909907015e-01
2.293046739091058883e-01
1.903593921429459213e-01
2.019497649163477793e-01
1.764297766440161563e-01
1.183939914750449102e-01
1.288307131954306572e-01
8.230405656527738090e-02
1.182802702158443631e-01
1.027541637111252237e-01
9.525922814211082446e-02
1.036920824276346687e-01
8.043617282523971013e-02
6.616219130943937210e-02
1.282367636340576711e-01
7.592640164070438291e-02
8.250791394945664048e-02
1.239762616951713969e-01
6.106884120409809824e-02
1.039521548653809663e-01
4.025576963372505535e-02
7.939992036893409044e-02
9.246973810276529204e-02
5.319365017183709521e-02
1.001588089287701600e-01
8.273493568310018309e-02
7.600151175128888603e-02
9.724152362919752379e-02
8.799224500110497393e-02
6.060382254213613623e-02
1.463647479297829068e-02
1.164077969932185153e-01
4.225110156671225276e-02
-1.331394281251671585e-02
1.058127332630727502e-01
7.396111034731520095e-02
5.583997359170850272e-02
5.243629210888434145e-02
8.058566671286501726e-02
1.201419698493429167e-01
4.145538090191051156e-02
2.811961099106479248e-02
4.551710187937779012e-02
1.059675454325485072e-02
4.740695411418714700e-02
8.913757611051713325e-02
5.698318982812930478e-02
6.465313094684507766e-02
8.149271750505152068e-02
4.268367627364069022e-02
1.659853899328238291e-02
4.568084288317067476e-02
4.702811767871707682e-02
7.558778283852891910e-02
7.388630569157682293e-02
-1.014103846493844691e-02
4.699450624883409755e-03
8.635202717529774641e-02
1.692114685006232411e-02
8.337200869249257462e-02
-2.377798115678166763e-02
1.073247033426989183e-01
5.607722348008541829e-02
8.978963917274751516e-02
6.131958209480418975e-02
1.029746249774482342e-01
1.027957316788506437e-01
5.638830790280621036e-02
1.725945204099698510e-02
1.161361164403629243e-02
3.657374717358404664e-02
4.059032154146477445e-02
1.157293170252054748e-01
5.656316158186189963e-02
8.653221853929188301e-02
3.397723393216715848e-02
7.275843262830088143e-02
8.754982249706988462e-02
8.968549105032999624e-02
5.603244224911213545e-02
1.196520806013701976e-01
1.293240893975063366e-01
1.015755632419325372e-01
5.166281471599688119e-02
1.398628901408901781e-01
1.354616372854088868e-01
1.739465327377391346e-01
1.069782781566510077e-01
1.977938313227522726e-01
1.350938082531716600e-01
2.239870167827055780e-01
1.407026234385991281e-01
1.802093704695645893e-01
1.201978786496849527e-01
1.710917958277645146e-01
1.772061697506274180e-01
1.988927833678379997e-01
1.794352746594685966e-01
1.877855181460438838e-01
2.294961374561756695e-01
1.771277393206100448e-01
1.858972987600528981e-01
2.115364275153272799e-01
2.016859338029166893e-01
1.937413644457473827e-01
1.987358296942192404e-01
1.540632181807902734e-01
2.507461030380717659e-01
1.729125065652913074e-01
1.576686185015560016e-01
1.877655379553744286e-01
1.416203388032603039e-01
1.603694638861918320e-01
2.041190957353438973e-01
1.637704693040213377e-01
1.368017708426190748e-01
1.209926282417194687e-01
1.644087663928668341e-01
1.269048440082075624e-01
1.282865711333631420e-01
1.729365114738184439e-01
1.986939326524864435e-01
1.667928949447853859e-01
1.650353876388760410e-01
2.301207740942061430e-01
2.986368130245475871e-01
3.390561578881106097e-01
3.672699225397638156e-01
4.690202362196176367e-01
5.168553116228749023e-01
5.941101896603768751e-01
7.668830750397059859e-01
8.597787100796330240e-01
8.996710540650454391e-01
1.043081442949099547e+00
1.080918579791662726e+00
1.248567940627676398e+00
1.293089928512540121e+00
1.330736687176006461e+00
1.313574655908341882e+00
1.393919003359459730e+00
1.355802187926767655e+00
1.323865508102548327e+00
1.285982672602498100e+00
1.193873528949006779e+00
1.050113706642282763e+00
1.023539381639190671e+00
8.633957669843077554e-01
7.729605555067916578e-01
6.702628570538288200e-01
5.443425701086548329e-01
4.725557982783356592e-01
3.839690810766993034e-01
3.167855507747395216e-01
2.865842656327793891e-01
2.658379333083285556e-01
2.597169814129872689e-01
1.898649499117833206e-01
2.009356566804699207e-01
9.824178988408002744e-02
1.753520077843291891e-01
1.056671794948725873e-01
1.777764620101757453e-01
8.050457526777519968e-02
1.421022225737336164e-01
7.580310255669669983e-02
8.078146703724470301e-02
1.854152879141590660e-01
9.710542093644863870e-02
1.350480904932048476e-01
9.759793192759332048e-02
1.392944753860514973e-01
2.049352937724622792e-01
1.584004812479339053e-01
1.400030637678284506e-01
1.504289635050587437e-01
1.649609716539477688e-01
1.764992089514639539e-01
1.937054155041770254e-01
2.121154197555774890e-01
1.759607373996249780e-01
2.193855709524973052e-01
1.576670826286118987e-01
2.203863741502519735e-01
1.983572203957359170e-01
2.220754121077894438e-01
2.487815761672908244e-01
2.805407756673388708e-01
2.367594835138650544e-01
2.610666205980075594e-01
2.617595325873237622e-01
2.074704590392063286e-01
2.732663606365868803e-01
3.307998963631305633e-01
3.019585671705087293e-01
2.651292988925473271e-01
2.676608696596144421e-01
2.657607212139705966e-01
3.044314015357093561e-01
2.886925481725799436e-01
2.438058189950924881e-01
3.091372040707330848e-01
3.056885297597531359e-01
2.887892973668866325e-01
2.944215718313753505e-01
2.614192246405549480e-01
3.302568929136694975e-01
2.391433751059439394e-01
2.786787786460070970e-01
2.776844330573630115e-01
2.620723334659551540e-01
2.715686078828085104e-01
2.355758093152270360e-01
2.437592206882780166e-01
2.264494473021283205e-01
2.447644305696258238e-01
2.871124727448015057e-01
2.543264448713686843e-01
1.944916608045542117e-01
2.184702670962445081e-01
2.187883831194954998e-01
1.930609623430206701e-01
1.925758197157096674e-01
2.381695613110031973e-01
1.416298978116375396e-01
1.982896617125797512e-01
1.242460107848599726e-01
1.806067933839509143e-01
1.390829343875110702e-01
1.774573099676190757e-01
2.104434065994942316e-01
1.433785562599856345e-01
1.786215834578805395e-01
1.531114489182567318e-01
1.400484477842276754e-01
8.890060959384832318e-02
1.479320029693846072e-01
1.219048732522135525e-01
7.256267787073056308e-02
7.113872566290163624e-02
7.717424267887323941e-02
6.312698124453362813e-02
8.051237886835119206e-02
9.775377234359364231e-02
6.974863894608196446e-02
7.920360835544906775e-02
3.177131436982986307e-02
9.697947859567962459e-02
8.893518792240026616e-02
1.224449175354736796e-01
2.558296911766392776e-02
1.954026245236284431e-02
1.219075292524038692e-02
8.630615173411307350e-02
5.266005752649613458e-03
3.214184419323931619e-02
-3.771080012221289524e-03
4.419022316778989379e-02
4.699571581730216385e-02
5.282722578580630046e-02
3.463547347852219405e-02
2.027320519462343790e-03
5.045672051561182064e-02
3.602265648644608492e-02
3.466587667761059088e-02
5.896929315780705810e-03
4.353713054848019903e-02
5.571118963139919111e-02
4.977831252654302263e-03
-1.104885761661666271e-02
5.123120027012530858e-02
-2.565209264940784134e-02
-2.400631851669495637e-03
4.340599989077608550e-03
1.092830599475954484e-03
4.837047444572024207e-02
6.061094768879896066e-02
5.565900953172006616e-02
-2.887981340061112484e-03
6.962077358551292672e-02
-1.397310261169526502e-02
3.158498500886186555e-02
2.950358904631033424e-02
6.910565706566210165e-02
3.846683521461220084e-02
7.377796102632336317e-02
-3.278205197056939524e-03
4.823832610472295057e-02
5.647814505700102239e-02
3.839707797315231735e-02
-2.885133240109867547e-03
1.339717318029812199e-02
4.020573485892199594e-02
4.421408418888274350e-02
-7.853264045175334385e-03
-1.348472056209896325e-02
5.853522106612601972e-02
4.979107697154654122e-02
5.839210786383677160e-02
7.474163840699948880e-02
2.421085556027505539e-02
-2.729803173404954375e-02
6.260314342105209595e-02
1.469716902476616606e-02
7.031772104541000878e-02
-6.439545656053865391e-03
4.722636137409351453e-02
-1.354697983562221097e-02
6.237593629763937830e-02
-2.886188592694935093e-02
1.925765025352161111e-02
1.366232608940857671e-02
-2.713185785441888515e-03
1.603223789185533044e-02
-6.131475785016632374e-03
7.065536109271101581e-03
2.004342075653238811e-02
-1.024561724217474580e-02
1.199387351559972476e-02
3.638790065902901966e-02
-1.208669146479547998e-02
1.718140237494982306e-02
-1.848756300198872715e-02
6.278632484844563766e-02
2.604149966454166396e-02
-2.651598094782266907e-02
6.836347728544682478e-02
2.381632165389453368e-02
-1.349346364162925561e-02
8.583990531520063749e-02
7.583630262142107559e-03
-3.635391752680704192e-02
4.893188596304395843e-02
2.052065142352449412e-02
5.217384340706441442e-02
1.488891718318171957e-02
-1.036428132943880559e-02
-2.534902083512362292e-02
-1.302811585741762805e-02
-1.087932994449579069e-02
-3.863422763994123904e-02
-1.349925023705271857e-02
3.823782784319836037e-03
5.250146697977770005e-05
-8.759228816550981844e-02
-2.479774272616243336e-02
3.202797486275941671e-03
-1.247199260712713274e-02
2.326382636043193564e-02
-1.006245462673608509e-02
3.765329748755765708e-03
