1.388653351191569740e+00
1.394356378574576949e+00
1.331055098618967980e+00
1.266771654086968235e+00
1.205911591206007882e+00
1.111311406692832016e+00
1.018107022175829046e+00
8.492197380409037821e-01
7.511480515704792582e-01
6.513381794576945660e-01
6.188315973131556236e-01
4.145280632215908034e-01
4.326020662008759343e-01
3.227890361314323941e-01
2.662160637523345308e-01
2.201020185336087231e-01
1.103003327970744074e-01
1.209556243564028771e-01
1.278640870352022452e-01
1.207550301182045288e-01
1.083717350590037015e-01
7.708738589760305571e-02
1.104318276446941971e-01
6.548300840009821377e-02
7.772679719747696558e-02
8.674882176392335886e-02
5.515284579367992629e-02
8.824404490363900455e-02
7.232494448627561912e-02
7.743537340398129465e-02
1.015655545027856071e-01
1.123292996335313182e-01
1.024578068893069321e-01
1.042661627892141063e-01
1.251633380038606469e-01
1.231366763189479518e-01
9.958470383767706324e-02
1.594701269043796998e-01
1.153597621673627671e-01
1.748989017334324769e-01
1.669562073580952710e-01
1.720235461053748749e-01
1.974514877255514056e-01
1.800076585222742664e-01
2.447226471350954224e-01
1.807532196084495613e-01
1.285917270593435191e-01
1.832909096715314157e-01
2.434026371869346950e-01
2.709732268613277983e-01
2.744979066753144292e-01
2.602605462142006387e-01
2.220385813381906270e-01
2.187581673640539848e-01
2.875537908629071659e-01
2.495616049568294970e-01
2.259748829669030734e-01
2.658315954429998351e-01
2.032406161401172362e-01
2.155101066082819317e-01
2.014242026962997922e-01
2.479022106174532669e-01
2.703575553638031814e-01
2.546834123961262408e-01
2.023752665567810916e-01
2.493873574777774327e-01
2.214502368114172615e-01
2.032042382247193080e-01
1.998926099749785967e-01
2.630402171675922385e-01
2.371570964231477507e-01
2.528884241081461037e-01
2.831251753034436103e-01
2.192043128066001323e-01
2.467943805452391670e-01
1.936908041606434372e-01
1.946645206262588301e-01
2.024789656387031012e-01
1.894224739951819170e-01
1.920157383312713906e-01
1.341201854913283698e-01
1.986255338294750095e-01
1.422887456787619298e-01
1.541041602554939771e-01
1.536808845020249115e-01
1.796479638387328548e-01
1.562299617175365585e-01
1.139598956737525870e-01
5.840229003794771001e-02
1.316831220421868232e-01
1.448861436493320554e-01
7.238812061323464386e-02
1.054707617257598790e-01
9.948393224693743986e-02
1.143012972539469846e-01
5.760859372603022166e-02
9.321347738055990595e-02
5.280262671864258128e-02
2.765533148978063099e-02
2.999544028914940749e-02
4.604801289024537669e-02
5.826306155858117231e-02
4.365468422582222119e-02
2.222063076468510159e-02
1.936966457813101700e-02
-1.342809265495574847e-02
-3.433006939123262047e-02
-1.766453410335754731e-02
-2.786447361477233445e-02
5.863730746727703613e-02
2.065759623034448683e-02
2.925634908931582304e-02
1.200897348443894647e-02
-1.656791138414748232e-02
-1.230042590232639441e-02
-6.012354117211755195e-02
-2.503947798890998611e-02
-3.065188537570182753e-02
-6.440571970922168155e-02
7.075683258340549620e-03
-1.996644762161568082e-02
2.153057128996491848e-02
1.904737889281965524e-02
4.026546300791884747e-02
1.742531479903456151e-02
-8.521265492594500002e-03
-2.197615800891798005e-02
-3.558329036629748199e-02
1.641111975814968718e-02
-5.042415289573820569e-02
-2.257860795747291746e-02
-1.939695895903591205e-02
-2.197212441070034439e-02
-7.313231934915809251e-02
-2.454319972115798221e-02
-3.136720364245280251e-02
9.955828608145061986e-03
8.360769352352925149e-03
-5.016047082434682558e-02
6.306882806252297330e-03
-4.698956617640430433e-02
-4.128731134570822608e-02
-2.424372807716449266e-02
-9.007797807849726029e-03
-6.178638057933610872e-02
-1.189031266075650170e-02
-3.569214676717732959e-02
-4.617489380005773691e-02
-6.130631989153539907e-02
-1.775522968065730567e-02
-2.649029672219482129e-03
-7.232330854139558396e-02
-6.195808735526845551e-02
-5.781250042436518466e-02
-1.594301739621251796e-02
-1.481626912684473260e-02
-2.497489364651845484e-02
-7.307559277078859439e-02
-3.277687325872263857e-02
-8.238152796536585276e-02
-2.295840875215823806e-02
-4.869945851907527684e-03
-9.487877678275957738e-02
-7.753971143329498050e-02
-5.098475113810671533e-02
-4.689804107012301299e-02
-2.763031297214727997e-02
2.143395524576396927e-02
-2.279752050823059470e-02
-5.634450869748603569e-02
-1.172261196171930780e-01
1.260034127170111401e-02
-3.170727320880889488e-02
9.071036414833262562e-03
-1.283520151537660692e-02
-2.207694817597831427e-02
-3.016966882530707633e-02
4.198125556273440973e-03
2.128698025966344748e-02
2.658929140568003224e-02
1.470241966570366710e-02
3.486826030785199204e-03
3.324099782993342189e-02
-8.402097380818353278e-03
4.717250530205369802e-02
-7.943995997453864866e-03
5.172990878882199189e-02
6.233578364648512810e-02
4.600223944096846346e-02
5.369346295328809859e-02
5.919810937981505317e-02
4.865673753411640240e-02
4.483805117730879641e-02
8.095356618681782968e-02
7.503865215189439719e-02
8.810223725780667869e-02
1.036369481976448098e-01
1.193083066024065719e-01
8.548765353576978643e-02
7.764317243428434101e-02
1.012387276783713597e-01
9.986632519917162942e-02
6.249365196000652989e-02
9.925205059758146486e-02
8.894221982801214788e-02
1.013392213582718498e-01
1.194265134252134875e-01
4.428874004316897539e-02
1.138465758687065010e-01
1.296121273037061650e-01
1.160162381018100403e-01
7.662967807852455460e-02
1.511907049682413851e-01
6.029471727420568361e-02
9.337814720194553830e-02
1.362053083998163161e-01
6.434214119024293799e-02
6.707624005960463598e-02
7.379127550032060778e-02
8.409944669560545649e-02
1.420750221963713034e-01
7.411905600551813023e-02
6.821835675691492740e-02
8.724264467319346739e-02
2.970032664922177962e-02
1.366317409645947945e-01
1.912736062259648706e-01
2.249634650856075502e-01
2.061808761374325505e-01
2.181589812228937886e-01
2.895234004580198306e-01
3.755750453653490806e-01
4.503458359475109307e-01
5.345419220058138521e-01
6.301051008609181991e-01
7.308809116682384310e-01
8.197680930506189290e-01
9.746899358365658239e-01
1.097069666911057340e+00
1.160358129559605933e+00
1.266442980881468339e+00
1.300396427326486304e+00
1.327336003441993872e+00
1.271829626008962988e+00
1.265608337746600753e+00
1.241003007890383536e+00
1.187200487693873985e+00
1.084955110135684020e+00
1.070687007305554106e+00
9.709834241352570672e-01
7.959173711097407011e-01
7.057564219455455534e-01
5.819774667627273246e-01
4.856833242943414675e-01
4.524949902928424583e-01
3.099195392507969604e-01
2.728805216504633369e-01
1.201590756577251007e-01
2.086394404565181104e-01
1.191493282962005074e-01
1.115343717495691500e-01
7.083145665473333796e-02
5.430021308026027754e-02
8.879022907876794879e-03
-7.338479852888699084e-03
-3.948159834320492251e-02
7.400590624845293508e-02
5.973148470090761802e-02
5.935125225296829232e-02
1.414659814631651774e-02
4.970570097337978499e-02
1.184518796217144676e-02
7.316215699478906265e-02
3.867440672045747985e-02
3.508206559652134876e-02
2.638171859187688623e-02
5.433299164236393697e-02
3.361190826611095556e-02
2.548090092120489092e-02
6.462540488275161921e-02
9.527437232393259903e-02
8.112716747631157355e-02
7.143211084225223328e-02
1.979917374098315586e-01
9.840748823500461429e-02
1.563330997240327536e-01
6.441554041313066192e-02
4.745426094741356932e-02
1.813470643000197891e-01
1.518391056344035039e-01
1.768216581734562975e-01
1.730446471632936245e-01
1.138083803957732065e-01
1.742445822120073373e-01
2.042571293054188664e-01
1.236414907681603614e-01
1.679179411199167027e-01
2.026860295641765286e-01
1.558311571841655141e-01
2.216965093192240777e-01
1.686155138071304405e-01
1.320228821187717783e-01
2.095767448823137313e-01
2.313306303973285405e-01
2.427981738535806289e-01
2.539849950761953745e-01
1.535981524154909628e-01
1.996883586895926710e-01
2.340130244715956931e-01
2.173618559987131604e-01
1.855174898315405108e-01
2.419071211984231140e-01
2.098827067120824508e-01
2.233985561712928114e-01
1.440524735602712880e-01
1.669809989473015899e-01
1.528521139317398359e-01
1.672910094196848885e-01
1.535151387445444215e-01
1.978771021059219648e-01
1.317041633003504242e-01
1.394387470586630762e-01
1.640330725854705352e-01
9.597949018894898210e-02
1.230964818470189903e-01
1.266394002845863953e-01
1.013046733874939653e-01
9.290533712570808733e-02
1.097103796985557100e-01
6.780937614458117102e-02
9.478526496332884133e-02
6.651505105740371238e-02
8.148132373900261738e-02
8.856575205048497490e-02
7.466847317975783271e-02
4.680370321984560905e-02
1.205627268501255622e-01
5.968878681189852820e-02
9.132999955341836174e-03
5.446828571471067082e-02
1.576981158109947573e-02
3.915060758980018485e-02
2.716929544846938271e-02
1.779122894360694179e-02
2.113094320051624175e-02
-3.391298970920613581e-02
-2.258784937515017494e-02
-2.339200376488844227e-02
-2.251798430568131837e-02
3.304095264688673705e-02
1.322752489615677818e-04
-8.434114385348787102e-03
-2.242034970878005809e-02
4.595963405020603992e-02
-4.488925959714305802e-02
-2.131701309669324640e-03
-3.214589747069764025e-03
-7.603010375537525012e-03
-4.466073894832200963e-02
-6.605311842947642065e-02
-2.367502420022490894e-02
-3.499846722231059193e-02
-4.584042242914807691e-02
-5.246823105797213810e-02
-1.598609398239707324e-02
-4.715383613635870663e-02
-7.029690576091943144e-02
3.314487595945402737e-02
-1.113072443472147566e-03
-5.699397821421340465e-02
8.658989848518421073e-03
-8.749206715739199502e-02
-8.210569232349193558e-02
-6.116418213913560331e-02
-5.688817054304913523e-03
-6.674418969429586623e-02
-2.098661045001551026e-02
-7.540259423446074583e-02
-4.192438077481608349e-02
-4.136120396763971752e-02
-6.730243408962180429e-02
-3.280046940738504113e-02
-7.490470788167843952e-02
-8.395229463929423930e-02
-6.427861448065298744e-02
-8.268859398033412411e-02
-8.567005758449321162e-02
2.776989165410796712e-03
-5.427148544929345786e-02
-5.292270631193270181e-02
-5.620884323412594918e-02
-6.285770619789370073e-02
-1.237306834392249977e-01
-1.884649504926799030e-02
1.474977351834821926e-02
-6.254485261143662156e-02
-4.379685275223091367e-02
-3.880790790122104483e-02
-6.050898501065721941e-02
-6.431824284184778362e-02
-3.562368937204198061e-02
-8.657928973580883425e-02
-2.001174944797679336e-02
-6.025982687513919966e-02
-1.119683299567385132e-01
-7.753884310341496722e-02
-5.437686120296126441e-02
-1.762057857989133766e-02
-2.263073015725668158e-03
-1.787820148649333502e-02
-2.823496637403809933e-02
-1.559517833798743786e-02
-5.757608647316614370e-02
-1.983947148193867388e-02
-1.236667224336983339e-03
-5.883861078520062626e-02
-5.447551203591036867e-02
-4.339866117747935570e-02
-7.102376036852413310e-02
1.391965937012741572e-02
-3.603772213515415296e-02
-6.608115199030209497e-02
-8.377046545336100380e-02
3.706230619221377587e-02
2.633354215384677011e-02
-2.477280594213385548e-02
2.515059861690816662e-02
-2.505896016464532333e-02
1.316929076388282521e-02
-1.793021945147028895e-03
-8.165240145439234265e-03
5.969420661584092652e-02
5.001804337735118317e-02
3.448924575442190166e-02
7.244760149003588723e-02
6.122457163190773294e-02
4.010873580017920020e-02
4.073278171737865216e-02
9.907021371577494351e-02
8.372539593109032396e-02
7.731163984465080907e-02
8.283263252322614623e-02
1.276237777288861674e-01
1.190801307556365596e-01
9.889904350851819181e-02
1.722469200431925307e-01
1.047480829431846061e-01
1.224561306730680282e-01
1.297953222216236546e-01
5.557741687941140929e-02
9.906190143508869506e-02
1.016157951327198439e-01
3.014365634221560786e-02
1.100063424875415141e-01
4.307897504413001066e-02
1.763992040855149601e-01
1.140522522146350248e-01
5.914673545358892226e-02
1.502379012799917035e-01
1.117511850597372319e-01
9.220299623684916068e-02
8.225778061494526394e-02
5.795552223395065289e-02
5.886618111905555367e-02
8.412984684830907001e-02
1.332704266154104422e-01
1.011376173957487246e-01
1.404404248024329893e-01
1.118046934685086591e-01
1.147990674023501856e-01
2.164855973588961646e-01
2.640609815377700231e-01
2.236549890963295817e-01
3.169492960884230381e-01
4.271538807855917441e-01
4.598943442726258768e-01
5.642433119258903895e-01
7.100511486206700917e-01
7.783980567473146595e-01
8.734883407022158153e-01
9.974424345033875428e-01
1.101961523513416585e+00
1.081968280886462130e+00
1.297947087177625525e+00
1.289881198688587416e+00
1.340426780455858724e+00
1.349896583771666547e+00
1.265840775918657179e+00
1.198397299239920333e+00
1.225075708140633823e+00
1.147104049648520308e+00
1.000132377655908122e+00
9.667546635088865026e-01
7.901763833354901179e-01
6.951047294981022029e-01
6.030121171675850711e-01
4.726468469409368378e-01
4.044451713830819473e-01
3.507546077412955210e-01
3.034964145372939237e-01
2.150793587512945526e-01
1.536965836463259072e-01
9.293819568443656420e-02
9.191597415207908295e-02
4.630828305605444450e-02
2.743369893348279742e-02
1.864058112590363803e-02
4.628482887789828193e-02
4.645603960764289886e-02
2.789549974897786305e-02
6.835600557613860651e-02
6.630865232382998631e-02
1.313636042554536948e-02
8.972063877959345068e-02
-1.739266448160707579e-02
8.077821177482602533e-02
6.571308967893497999e-02
5.320741481607933060e-02
5.998145749190220838e-02
8.682575532108280369e-02
7.021420221747509682e-02
1.102293078673313304e-01
3.242413769439132787e-02
9.111060286465463842e-02
1.220911364010894007e-01
1.157675224961463301e-01
9.183653127563884411e-02
1.297441889126762504e-01
1.522733970739690024e-01
1.562962138917702581e-01
1.427712460918477144e-01
1.764173123140381494e-01
1.519633600985263455e-01
1.605029901664098146e-01
2.032470265785270569e-01
1.524506226512878648e-01
1.910997866266817280e-01
1.559318894170462766e-01
2.260286334442523359e-01
2.117647272744948572e-01
2.466306966465931505e-01
2.538847468196581691e-01
2.170782975456529429e-01
1.785143839099763707e-01
2.059209956571176892e-01
2.044919643550891508e-01
2.820123318006855784e-01
2.375294107763073204e-01
2.473190490874689063e-01
2.725796245369969117e-01
2.438419255263638286e-01
2.332141697367440536e-01
2.529078455035540518e-01
1.640598244177596254e-01
1.835634563640209937e-01
2.216832106723446716e-01
2.427698357322138345e-01
2.109328704439349389e-01
2.093552985995598137e-01
1.460552282826856341e-01
2.313529880542867789e-01
2.425321175644498672e-01
1.451325617295727011e-01
1.235573400036278635e-01
1.985951613024385110e-01
1.974709624893848381e-01
6.085474427097218447e-02
1.711801824790156190e-01
1.409722579053897806e-01
1.253145036666605538e-01
9.144104058456700712e-02
1.383008790929610154e-01
1.045240879743231793e-01
1.078705719669530994e-01
1.718064021239753825e-01
1.589974625869645664e-01
1.299798052177724705e-01
6.721150971499824378e-02
6.857110538103328157e-02
7.661526669871376871e-02
1.072454337119400775e-01
3.078584897245694937e-02
4.216638364691235874e-02
6.394670845766400880e-02
4.460991937668544460e-02
2.366679344722936312e-02
5.102090771149313253e-02
2.933548229134417401e-03
3.087046761627486313e-02
-1.285948980001899375e-02
5.114229097022149340e-02
-2.769267035027810075e-02
-2.863166251938285140e-02
-4.519212360033992085e-03
-3.027161809804927023e-02
5.154292392078188914e-03
-3.951574936257383486e-03
2.159130458025198748e-02
-4.512189172521833408e-03
1.714325846010314805e-02
-2.552513599971689695e-03
7.447003476440222647e-02
-3.783958849246037148e-02
-4.764461291089518158e-02
-9.875825414494398408e-04
-3.743962163918217873e-02
-9.360472843091178358e-03
3.171889846612031827e-02
5.882115307636262211e-03
1.736721886265688714e-02
-2.391665277854694571e-02
-2.675631088667695945e-02
1.948206611477562578e-02
-5.386638497535280873e-02
1.445824237022944742e-04
-1.796646687003104065e-02
-2.944103494384895520e-02
-1.463401043372112957e-02
-1.781709988830439823e-02
6.727286998583756339e-03
-2.137647929219877591e-03
-3.618468990316945494e-02
2.968881210827949146e-02
3.645327511715825558e-02
1.262132555639179643e-03
2.296164195174511813e-02
-7.279744902228525716e-03
-3.488198549665885717e-02
1.344473021713693886e-02
-7.067702865553244888e-03
-1.219966759094314596e-03
-8.333683336273512224e-03
2.244899309167561544e-02
-8.913207953475709225e-03
-3.699983995978230016e-03
2.025679311264852456e-02
5.288596801742509457e-02
-1.134783750636209586e-02
5.915772739317210621e-02
3.052233108690575319e-02
1.086814807596389772e-02
2.141551387163346393e-02
5.004949841465287930e-02
-7.071389288354552882e-03
-5.930148629688378192e-02
-4.496159181504151559e-02
-2.760630588103274441e-02
1.946614038851021342e-02
-1.075628337015782816e-03
5.554636987945615195e-02
3.014538680285959102e-02
6.049095454612320871e-03
4.450139093646205898e-03
-4.190235767107557650e-03
-2.086214877243870724e-03
1.129553184402494470e-02
-3.105978546160029219e-02
-3.377301977505452885e-02
9.608871575882825533e-03
2.191715291707811361e-02
1.350930677347048775e-02
3.910332592112894176e-03
6.547504221228746257e-02
4.919904685843171782e-02
2.828225404033804860e-02
1.603391708452408387e-02
1.368578299779663054e-02
6.770820565582996720e-02
2.272936065482344947e-02
9.593148475653058560e-02
7.900380713893556672e-02
6.017148444436153792e-02
4.927375073118242521e-02
8.976434163474562855e-02
7.586801085993706562e-02
7.651141521759459441e-02
7.844130245514480126e-02
1.099022134512536164e-01
8.774567652282630470e-02
1.176778493364962347e-01
1.533507025190427586e-01
1.081554957642123227e-01
1.019470518491817773e-01
1.943339283926266425e-01
1.351438330304713109e-01
1.687429861790328833e-01
1.456603423405606890e-01
1.426049575009064041e-01
1.815082852726478124e-01
1.940442833860853977e-01
1.246629949730517495e-01
9.408710369918875382e-02
1.783281028571086779e-01
1.983044073728423839e-01
1.576278099146583289e-01
1.458977073592912510e-01
1.540218739927192160e-01
1.760384719454282654e-01
1.631904115449701043e-01
1.139211528598665368e-01
9.954548793989687061e-02
8.549445135764829895e-02
1.329290493280809171e-01
1.721138386203057424e-01
5.161684685966797664e-02
9.122232845454254779e-02
1.480450740243261509e-01
9.534306727568085671e-02
1.431009696159373512e-01
1.100924177036033264e-01
1.118578701844332862e-01
1.782868457510536908e-01
1.503040632450918235e-01
2.173880032403563978e-01
2.600131651989169845e-01
3.725709917278558492e-01
3.626654065273006711e-01
4.393190975048397728e-01
5.620406834312129396e-01
6.468707742814032713e-01
7.153576107141094154e-01
8.234210387724402169e-01
9.222021360461871708e-01
1.042832428261376787e+00
1.158826528377015164e+00
1.203698175927791381e+00
1.275586101168093345e+00
1.385917659610089503e+00
1.361388025176356154e+00
1.391467642688531070e+00
1.353884104296921853e+00
1.300965799368673625e+00
1.267301357767573133e+00
1.148862170835718288e+00
1.069330251193517434e+00
9.239635218895567714e-01
8.196743114215049308e-01
7.156912129088439656e-01
6.073874031894624936e-01
5.887572288185949354e-01
4.374105078396343105e-01
3.757229684548646365e-01
3.402168261786726600e-01
3.027495274225502908e-01
2.064357307006552955e-01
1.697835082127212847e-01
1.076851428165041813e-01
6.991155125493617173e-02
1.396272998074802874e-01
9.671754978093188848e-02
1.099485336951137593e-01
1.014250143146268324e-01
6.013042496697324629e-02
6.358270817921629625e-02
1.073220193520612736e-01
1.062155363499146660e-01
1.315109351222807366e-01
8.150972144219546800e-02
8.236864345053174219e-02
1.201264261409820122e-01
1.621397632624745344e-01
1.719435293216964866e-01
1.029666793581141687e-01
1.422443850392919318e-01
1.859675301943692072e-01
1.746996002941084425e-01
1.146220754207334103e-01
1.947786600955435654e-01
1.516958582682149670e-01
1.918902072197022357e-01
2.019640149934912032e-01
2.184530336331616251e-01
2.002636919807101457e-01
2.188089889324066895e-01
2.156326082505519159e-01
2.265694004650513627e-01
2.700468810059661884e-01
2.450482866735713139e-01
2.127038340955724749e-01
2.532761717930716583e-01
2.400781957282012713e-01
2.821855513614688893e-01
2.816671374034624420e-01
2.797575407324494057e-01
2.296766679340963013e-01
2.785328541743930519e-01
2.408191883090652075e-01
2.446842365119228091e-01
2.730703615143498242e-01
2.967467479327959845e-01
2.891574743392291147e-01
2.661781029827883227e-01
2.833326307151212697e-01
3.276723004189129318e-01
2.609483571996230045e-01
2.227746964002967900e-01
2.751598608861221540e-01
2.434568368064572719e-01
2.797451890907270422e-01
2.210062260651295962e-01
2.036212705130777401e-01
2.385551639093644871e-01
2.871319271240872495e-01
2.347250943561159930e-01
2.696065384860600878e-01
2.403694761477224162e-01
1.834881738436076326e-01
2.288735365608426386e-01
2.604075531106413988e-01
2.261670107581009725e-01
2.457570211165135687e-01
2.090132861368566575e-01
2.353058420709379372e-01
1.999489748378592280e-01
1.363895033668924561e-01
1.496062578827987433e-01
2.047539252232415674e-01
1.441472138394795655e-01
1.593052656894274333e-01
1.628631741946984235e-01
1.417898002354547327e-01
1.273008110979760577e-01
1.483985224083151921e-01
1.267595797163862947e-01
1.491066819599953241e-01
8.523883939549194155e-02
9.734252055116401903e-02
1.596944390390818147e-01
1.533416402890143138e-01
9.617850129105703916e-02
6.209861828478514811e-02
1.236199728237166451e-01
1.566006343947436985e-01
4.052784933467313416e-02
1.077474234400895431e-01
9.336536757125452057e-02
4.668054402368519706e-02
1.004905838458547696e-01
3.793814407050540016e-02
5.416106308013984155e-02
5.681122784059969982e-02
2.696767101407792841e-02
5.843497943576571318e-02
2.275799004342248313e-02
4.255464228126742965e-02
9.522308379934694977e-02
7.800714972874625563e-02
7.247554535381461882e-02
8.189187559561264540e-02
9.523188885277679427e-02
-7.205674663286476544e-04
5.804950371938491505e-02
1.893092874997315267e-02
2.687091404421045743e-02
1.003831412240924204e-02
1.109305527056671237e-01
-1.012560876824799422e-02
5.122057763299639466e-02
9.713278897441735005e-02
4.343582974987361678e-02
-3.487890139692717550e-02
1.121143032387918181e-01
1.049997326052372615e-01
1.365918303972631434e-02
7.784779516090184481e-02
5.513997382293313321e-02
3.518243510577459543e-03
7.634857237738257307e-02
2.940881792072571124e-02
4.738052449231702073e-02
6.637734998824461330e-02
6.082061182494170187e-02
6.228619163620506549e-02
1.023677676669516867e-02
-3.695105596833614392e-02
2.281704992748303032e-02
7.184678545011453921e-02
8.835104185176211045e-03
4.205353129620175573e-02
5.406727431076491924e-02
4.276270144317709937e-02
8.591492989897690780e-02
2.956444468649494298e-02
4.227694627082140277e-02
5.387290728688182151e-02
5.147734718994783493e-02
1.249356789477601426e-03
9.107532851291455511e-02
7.823789110924096735e-02
2.144529081835618370e-02
6.504833045747210329e-02
3.763784084981769418e-02
7.580338000199671189e-02
9.535534290247074662e-02
2.383598699032797585e-03
1.059789483039855207e-01
1.027804658959846212e-01
2.531254610453653742e-02
-1.646919911669656594e-02
5.850865155290672220e-02
6.908033958441482658e-02
3.070590804842478899e-02
3.658163509467155655e-02
8.524147048483983469e-02
6.777947585377322448e-02
4.883764426169588668e-02
9.671057599812588057e-02
7.987663417458504278e-02
1.413916117821881757e-01
1.535077161158518166e-01
9.786662144276768449e-02
9.102342467559904060e-02
1.016731201241026505e-01
8.434680541734763948e-02
1.235047257014099675e-01
8.934270878251102110e-02
1.289678344959773182e-01
1.066694714436753899e-01
1.099801881331070041e-01
1.253759251321877877e-01
1.321684468241612342e-01
1.628204069686529365e-01
1.702031923218678688e-01
1.649320223626031812e-01
1.765903987116149709e-01
1.895837130435127915e-01
1.540701880240143429e-01
1.869738050589029033e-01
1.803279603282516297e-01
1.694175827528207889e-01
2.217160191664230562e-01
2.531885184050640114e-01
2.333492306977593134e-01
2.246742356238502769e-01
2.095725429379353966e-01
2.062655356152919006e-01
2.088543853202511347e-01
2.104746339815258271e-01
2.288821352004001553e-01
1.836829116648482363e-01
1.920967573688580343e-01
2.179190001268337951e-01
1.617192600841382277e-01
1.608522959465293334e-01
1.549761375173626665e-01
1.560608730384594744e-01
1.923986514035114781e-01
2.171114574966242217e-01
1.347512219047747317e-01
1.127124065199024416e-01
1.407659453664944216e-01
1.642236899841260089e-01
1.578238063813722503e-01
1.947891059196561747e-01
1.980897018423658229e-01
2.566803477190681138e-01
2.745430880575402410e-01
2.318445228639947064e-01
3.279957256349481654e-01
4.180714408665009985e-01
4.574758370215915027e-01
6.031904041683906481e-01
7.111693780501788797e-01
7.939741322605012863e-01
8.844054988721995469e-01
9.915339973749571767e-01
1.076199170668056926e+00
1.188548470116197242e+00
1.238648370051145475e+00
1.321286656837541873e+00
1.356810469397706331e+00
1.378715573694484497e+00
1.463673410580688561e+00
1.364894270082120942e+00
1.338443352785058549e+00
1.256444809431480847e+00
1.143729735906301004e+00
1.088955228358632787e+00
9.367465336554818833e-01
8.777056202473426660e-01
7.727632947781538642e-01
6.558421705975893135e-01
5.332265013479637883e-01
4.983657073070820731e-01
4.453168776904068427e-01
2.708309946708045146e-01
2.560215631682065673e-01
2.024720631313027541e-01
1.782123002197068540e-01
1.581548773039643252e-01
1.433773540638670629e-01
1.895286664679953215e-01
1.141188165205792859e-01
1.332453159493523498e-01
1.230428428498853421e-01
1.161145607116869649e-01
1.420829135452403857e-01
1.097340640803753375e-01
1.484210600452255668e-01
1.776596095007201837e-01
1.021917484601044951e-01
1.637392832486836425e-01
1.494501236949916656e-01
1.561798305313521484e-01
1.463906040201541636e-01
1.845111155792014679e-01
1.188475446867808955e-01
1.665255293787753499e-01
1.401828700377726888e-01
1.271634461307497299e-01
2.223237194246028281e-01
1.550755388531838697e-01
2.505960981521684339e-01
2.246610080271813081e-01
2.214364010322773524e-01
2.000331620199023996e-01
2.565596837066795866e-01
2.686681002346933411e-01
2.444686517563674499e-01
2.957774856101389460e-01
2.516737018032611517e-01
2.495995840112253672e-01
2.713541478248847061e-01
3.201616391852093457e-01
2.502911835401083751e-01
3.110227846737595447e-01
2.991837447771068526e-01
3.048332349925438889e-01
2.822802739848181419e-01
2.735300719854396601e-01
3.038967322798120096e-01
2.762115511321702743e-01
3.017378132616731490e-01
2.905605055104151790e-01
3.145091482714866271e-01
3.183883159122926632e-01
3.234520892067963560e-01
2.909179400155109119e-01
3.200542405927821465e-01
3.272075345414234837e-01
2.497091301344725733e-01
2.947654600658177748e-01
2.350439293329834034e-01
3.105180612792189376e-01
3.419879733379654896e-01
2.747756481620355351e-01
2.517484425279747917e-01
2.588564745593081029e-01
2.362500183274391097e-01
2.093163808795188985e-01
1.729060674727416758e-01
2.080120965886573803e-01
2.159393295950399472e-01
2.029690743931510388e-01
2.120166609590587170e-01
2.073586268027470259e-01
1.750243754246929850e-01
1.905709073010099230e-01
1.864262601326015234e-01
1.699896878201513362e-01
1.930000283351126222e-01
2.434393218479992405e-01
1.836518071981053934e-01
1.466303279954165872e-01
1.183545955995007892e-01
2.166536432473192275e-01
1.529353641400070518e-01
1.272974935363156423e-01
1.460737987190503240e-01
1.263710957505444488e-01
1.357383021891800379e-01
1.118534880040691071e-01
7.523749184254260869e-02
9.124485518466268763e-02
5.463299823509657621e-02
1.081382934828599846e-01
1.027420287824730577e-01
1.065228852839665008e-01
1.098619460090649036e-01
-8.318664699205544077e-04
6.398514785743786293e-02
6.229185065662967702e-02
5.132353726920069192e-02
6.517552385664057701e-02
2.890813253576334993e-02
9.637529146908184463e-02
3.207979989486048344e-03
1.374094414152707971e-02
1.972531815157673590e-02
6.998956073920764576e-02
2.916456630667342564e-02
8.262849085247189751e-02
1.183743361186176402e-02
4.472916743449664723e-02
5.562411238024134175e-02
5.706884685204031971e-02
1.144458561251305087e-02
4.589959999554883707e-02
-2.016057224025358946e-02
1.206344298097617312e-01
7.322159155014568155e-02
6.926416819496425403e-02
3.242625151506188519e-02
3.640794124377863539e-02
5.903560815737849549e-02
3.202089587602043735e-02
5.605281594727873351e-02
8.262819510847140003e-02
6.445200633037863336e-03
6.783871403283778245e-02
1.042973501486366833e-02
9.493244333620615150e-03
3.640000804735379902e-02
5.078712592030653478e-02
-1.334961714223806273e-02
7.374190723571676098e-02
4.138047211106228584e-03
-3.951749644741336942e-02
1.879341739155815719e-02
6.290044063888000636e-04
3.616582263133718417e-02
4.166829391381274283e-02
-5.377574415063077207e-03
2.851566788818567927e-02
6.601730300340720448e-02
9.799658970552727055e-02
2.579381947543541581e-02
4.352109590156206381e-02
8.219378240575041933e-03
2.764918014129380194e-02
6.957321180715271558e-02
2.172583335633335166e-02
1.101752997539144283e-02
3.079128428291283068e-02
1.080178557299794548e-02
1.368443505010225394e-02
4.199192675205262737e-02
9.751018344734317667e-03
-3.833500431396178604e-02
2.027006788173064261e-02
1.957090485547801489e-02
4.079368908680150452e-02
5.668581182588286471e-02
4.427799384014582951e-02
2.182622859283265757e-02
5.316356488314646911e-02
6.889916956274158566e-02
2.968588039731799924e-02
4.609917685744525928e-02
1.113865002786362524e-01
8.011675612781671285e-02
1.047727997046803972e-01
7.390098973782723013e-02
5.230907426546129585e-02
9.726069741308218664e-02
6.820537381560910772e-02
4.690623388206661970e-02
6.550939767920763157e-02
1.079402843675803247e-01
9.921758474534175809e-02
9.745979720001643476e-02
1.017201022463069260e-01
1.172973130674748315e-01
1.625517013771292096e-01
7.609144064269621199e-02
1.443376105398087028e-01
1.759566540753100261e-01
1.540901796583278305e-01
1.666031532337620691e-01
1.894289133410769210e-01
1.351839333133216803e-01
1.691438426153454022e-01
1.320480132813416918e-01
1.933603148991557275e-01
2.203216902474693928e-01
1.929575490918884195e-01
1.447216488863616035e-01
2.504236340480017753e-01
2.056887048943471519e-01
1.486624708061702049e-01
1.754853394077494633e-01
1.539781870830787547e-01
1.656717508545180184e-01
1.867686589700145450e-01
1.452615968503794541e-01
1.181343854846442915e-01
1.080350704924775002e-01
1.423655654661712122e-01
1.629734720196968634e-01
8.402312927144670041e-02
1.281252234505916299e-01
1.282132586047567413e-01
1.061219778900702043e-01
8.977806722192713251e-02
1.385210320230244041e-01
1.511875134553259947e-01
1.529714622281940772e-01
1.744100796855952429e-01
1.912998563430081955e-01
2.319137510323585061e-01
3.381331954077419488e-01
3.456201070664088326e-01
4.291554654627339205e-01
4.566845309074687997e-01
5.442137093633941936e-01
6.701987720336504140e-01
7.475980677294915555e-01
8.447029079086174619e-01
9.543802030009740367e-01
1.063151210771656308e+00
1.236409343992648902e+00
1.306039859219270571e+00
1.345089562565765284e+00
1.384612163820228892e+00
1.392292315461250540e+00
1.319196741159418984e+00
1.357692645730791625e+00
1.233507537292746647e+00
1.260326199836214967e+00
1.144025920969191867e+00
1.007767970569392268e+00
9.397098237931222897e-01
7.896688681324245396e-01
7.085361356789782183e-01
6.093266026946517755e-01
5.065332411311213034e-01
4.842495628975271305e-01
3.734105881445837771e-01
3.070749732795032272e-01
2.206080180142442060e-01
1.833936017165878340e-01
1.860706419261255462e-01
1.133258334060879557e-01
9.336523951837213953e-02
9.854612763756333271e-02
9.339874878320406082e-02
7.016663381773881325e-02
6.512929118733751244e-02
3.591030894640988985e-02
9.903677413494846316e-02
5.845247512364121212e-02
8.078447401763878821e-02
1.122397974550528275e-02
1.117289561276200438e-01
1.276934520308828092e-01
1.224287028932750931e-01
1.290030450510083193e-01
1.042309655322023465e-01
1.733996702449794591e-01
1.169692955775355481e-01
1.744739075159090214e-01
1.216304894612014603e-01
1.978854212630233034e-01
1.510848965856844139e-01
1.286670106164053140e-01
9.831877651922354966e-02
1.539660372721175785e-01
2.038416129988635805e-01
1.577499046129727522e-01
1.409753179400184409e-01
1.881309634273092002e-01
2.498500905375536651e-01
2.552338866983275834e-01
1.127066966682046950e-01
2.338048137246213631e-01
2.355198716643257806e-01
1.826336054822423338e-01
2.291658495403984808e-01
2.886680715308781453e-01
2.487374744027005813e-01
2.793296179042393246e-01
2.043001575465233088e-01
2.727598746484289349e-01
2.451838212457091992e-01
2.387537351603300773e-01
2.253279133058206651e-01
2.323912936199630241e-01
2.510866119803680241e-01
2.330464709281008240e-01
2.750761063239529070e-01
1.837983614177825242e-01
2.735702419706746436e-01
1.907163475770091154e-01
2.133334421139507775e-01
2.630618064510975573e-01
2.603111455913770245e-01
2.403116829825199530e-01
2.523120693089875299e-01
2.270407450254074977e-01
2.075855392422103485e-01
1.965213483310327136e-01
1.982270935424654268e-01
1.975567605156367257e-01
1.811857976176934337e-01
1.576002160087596193e-01
1.295915970051312871e-01
1.412583150897407935e-01
1.927286629986935673e-01
1.483565054701702357e-01
1.325857300948334871e-01
1.695977536274588249e-01
1.318071933887749181e-01
1.402593759907913296e-01
1.092400192282354798e-01
1.046972260129203636e-01
7.364229020862779473e-02
1.000978973073571171e-01
7.140548547551836545e-02
6.073461014900997934e-02
8.633900991547238668e-02
7.863577663800501438e-02
4.723549062014380934e-02
5.619864125978574210e-02
5.587293741628781424e-02
8.956491518800678564e-02
2.825973373165377792e-03
8.217610343099879255e-02
7.061252033326045896e-02
3.731051803808194123e-02
4.617007327227563851e-02
4.460094571147166231e-02
-1.623032011664673341e-02
2.984209436926647807e-02
7.016320987055572195e-03
-3.994322780898199032e-02
-1.029222984282958733e-02
4.377451285342962017e-02
2.666619446534627264e-03
3.364605350567294317e-02
1.220101542292918034e-02
-3.808168894833743878e-02
2.393544087169539869e-02
2.401453348899269119e-02
-1.766056474186363662e-02
-4.849040452822718505e-02
-1.040804894529451241e-02
-2.490753928225048625e-02
-1.106643333117332366e-02
2.864120668211750376e-02
2.235556700057045321e-02
1.415445067408677149e-02
5.082074846899249307e-03
-1.668131660798078536e-02
2.376524385088395544e-02
-3.997805004359264447e-02
-3.407079237018527385e-02
3.292935543518123176e-04
4.989419252936403565e-02
-2.031404970721606071e-02
1.745183928607091026e-02
-4.882993664379012971e-02
-8.912433933539092371e-03
2.221255185039929664e-03
7.682184184583735337e-03
-2.550039651998987217e-02
-3.645817555982329428e-02
-5.170503203495833977e-02
-2.338671156404527676e-02
3.142469282710267514e-02
-2.796378270807419950e-02
5.518824310077348472e-02
-1.896765130935032517e-02
5.386304633934857478e-03
4.549234767506527694e-02
-1.606093392439882778e-02
3.643940712143298177e-02
-1.839844244487765998e-02
-2.653879372166733155e-02
-1.697497366683591719e-02
-6.615592500115245744e-02
-4.714799957878966497e-02
-5.280848390208513210e-02
-2.128137154949980361e-02
-3.596576283697538318e-03
-3.809438598415764571e-02
5.364556758918165996e-02
-6.841263459599700170e-02
-5.703108446182446334e-02
1.283229430220710066e-03
-3.111794205804753813e-02
-8.035223965388629819e-02
-5.264172594612388095e-03
-8.038321957093197412e-03
-1.093408190646005633e-02
-1.770425521704168878e-02
-1.563434423639147725e-02
3.661104465189095325e-02
1.921154776696490027e-02
1.243454534601321632e-02
2.516485595600032737e-02
-7.348078226207456487e-03
7.345423948753416338e-03
-9.474777963042452233e-02
7.997729301329653540e-02
8.698803696595414775e-03
4.671426808548580223e-02
4.283519271554873942e-02
4.402534413238923944e-02
1.541484904721840063e-02
6.935841771743096740e-02
5.985384924934523954e-02
6.092035010882131119e-03
5.148198576441601060e-02
5.527005859544391331e-02
4.464595484195378605e-02
3.010764441685193429e-02
4.077181744626301452e-02
9.464435196915907400e-02
6.915739306775117723e-02
1.015932412014576014e-01
8.712390991181800937e-02
9.280019615951974610e-02
7.312364293246813307e-02
8.667406447338371622e-02
1.059757678801970110e-01
6.207387049199803580e-02
1.208807163193265366e-01
1.133305893516337592e-01
7.083120782590357489e-02
1.143058168432583011e-01
3.498214451744161707e-02
1.027530547880491363e-01
1.177828234025173337e-01
1.406602083783523027e-01
1.899109796787817328e-01
1.131065653861335341e-01
1.126238938593630834e-01
5.172810952403119472e-02
8.973487986804942751e-02
7.661921516549716205e-02
3.475280271081369193e-02
1.332350182643435021e-01
9.034663336041234838e-02
8.994979116469767333e-02
1.215551696806725090e-01
2.849374966277533339e-02
3.432315348882589157e-02
1.197386290613496607e-01
5.730106684492040220e-02
1.217714006264825066e-01
1.306620047799320061e-01
2.104914861841077067e-01
2.323139559646579810e-01
2.805242506998713026e-01
2.414937077495134810e-01
3.804435846080564398e-01
4.707011886378088539e-01
5.275508768702869000e-01
6.066820320134229672e-01
7.239660074198033257e-01
8.595221080661649138e-01
9.002137547458560762e-01
1.090428258017452023e+00
1.070924864522902364e+00
1.182244397802968638e+00
1.224390386729765634e+00
1.299134360313065395e+00
1.298209122286973383e+00
1.344052139570696358e+00
1.266573528033612561e+00
1.229446114965047077e+00
1.144532160301646284e+00
1.051846669321084615e+00
9.691348078805609445e-01
8.189721302914434453e-01
7.223083836092898391e-01
6.117293098928625605e-01
5.531278426910781754e-01
4.542868345403252017e-01
3.719858444926695262e-01
2.923070082400485714e-01
2.401239847473175537e-01
1.622432717402557123e-01
1.279424716261144956e-01
1.099737168288464489e-01
5.032961440503053857e-02
6.826844518718465371e-02
7.487985363569563124e-02
3.732682773641372853e-02
6.954957684205065327e-02
2.039969090497346232e-02
5.634211368858244029e-02
4.269932010951271728e-04
3.673896897817302554e-02
4.768322055105270879e-02
6.453820485738462343e-02
5.491218663855744475e-02
9.143320751222454301e-02
7.258140349445643680e-02
5.815011453456533919e-02
6.489672571017118807e-02
4.892562200306463382e-02
6.617529553326918779e-02
7.553534586694554687e-02
9.358109148182791603e-02
8.877362548887654525e-02
5.847195166084792617e-02
1.432488678477645827e-01
4.866634112630824349e-02
9.358762818162903729e-02
1.642630295877579860e-01
1.085343887184944123e-01
1.689356502480262034e-01
1.525257012438356041e-01
1.671945004415072433e-01
1.447557365550812825e-01
1.546511537613657339e-01
1.878384109623735532e-01
1.753530072752703395e-01
1.638689736361190197e-01
1.813766360744717698e-01
1.775155647349241361e-01
1.519392567893805279e-01
1.959092577619678255e-01
2.169993929424103019e-01
1.980716317990276476e-01
1.961799124154244567e-01
2.115337433872019335e-01
1.721309359373388026e-01
1.440990199914794767e-01
2.316673728713743441e-01
2.208530921261469548e-01
1.416430200723632904e-01
1.952925196385079387e-01
1.979579255682889505e-01
1.826683672355712273e-01
1.666721308894469900e-01
1.878973141145076076e-01
1.628459331880923178e-01
1.802593516414153496e-01
1.360621173891002900e-01
1.879593335137689225e-01
2.154267469856735728e-01
1.630615569828425537e-01
1.776404941806908611e-01
1.430322531611794568e-01
1.905648311925512706e-01
1.174835257573011993e-01
8.343976177611239775e-02
8.123046001397329907e-02
9.117889558921014881e-02
1.160258052592944289e-01
9.501832168425089487e-02
1.574275513003908222e-01
9.814215076839810648e-02
8.706818336613172948e-02
8.143872748918082327e-02
1.098214069873246213e-01
1.357745789367410111e-02
7.684368036525014711e-02
2.390095318777109290e-02
5.547125135186055378e-02
2.978725401562576369e-02
3.717590145195185519e-02
4.382322748643605048e-02
5.045029520323069533e-02
3.355366779815699418e-02
1.807966454457202166e-02
2.406255462854128835e-02
3.429225830417222121e-03
1.739028031780524147e-02
3.196493048780989915e-02
4.754600950664208264e-02
2.492455750643828016e-02
2.968244841907435178e-02
-4.243232112327011141e-02
8.285760449771265024e-03
-1.521601703556185736e-02
-4.918304648090084802e-02
-4.607641437598823664e-02
3.765333779989825380e-03
-1.871562195175029142e-03
-6.640481114747751046e-02
-3.841175288118026110e-02
-7.524655748517278253e-02
-4.908680897883876959e-02
-5.953397319109181296e-02
-4.100517919006359951e-02
-1.772334015834430010e-02
-6.603721207006682525e-02
-7.339163469267527551e-02
-4.359182629178973145e-02
-4.481453423397427360e-02
-8.237762054757086227e-02
-2.922917002234198813e-02
-7.330015283321583697e-02
-5.884624623451170655e-03
-2.460075572126175017e-02
-9.963615703543433899e-03
-5.462165466174348505e-02
-1.996023630709893582e-03
-3.291146124441099441e-02
-2.024511753619326684e-02
-1.674500685205061734e-02
-2.490031043092872862e-02
-8.371791546758020064e-02
-5.854477067815999636e-02
-4.259326685259062772e-02
-7.230910635349041549e-02
-3.559864209725061707e-02
-7.312835779146158177e-02
-3.065304400502552248e-02
-1.499343809741602446e-02
1.366585406300400291e-02
-5.460285547183260646e-02
-4.101363968181306885e-02
-5.706625824721531237e-02
-2.542695463994596936e-02
-4.959582191825603198e-02
-5.950956331591343573e-02
1.171413969685568268e-02
-2.246432345160194466e-02
-8.830053216084099432e-02
-6.185144904932423499e-02
-4.065442519749791483e-02
-3.797874457968040268e-02
-9.875916943767745759e-02
-5.382142312659361771e-02
1.817188632826025052e-04
-2.007392349385031874e-02
-2.230541028797203285e-02
-1.086431127105030037e-01
-1.020733996549533507e-01
-4.871928488777618055e-02
-6.988694362959818607e-02
-5.692852191829476938e-02
-5.861936439809490446e-02
-3.617687211408777276e-02
-5.289974617103185284e-02
8.863781402796741538e-03
-1.084795679295631199e-01
-1.825388967751831806e-02
-3.665599248254913095e-02
-1.701176915606984752e-02
-1.285557672309526472e-02
-4.463621942438002199e-02
-2.090843994816226140e-02
3.194053868467307267e-03
-2.868921175114965902e-02
1.379012730858026475e-02
2.809395307331875175e-02
-3.764170619394497513e-02
-1.771596638568738794e-02
-5.548277598697027441e-02
6.134443065543159629e-02
5.384222328103052679e-03
8.970395236074005241e-02
3.018800949139722328e-02
1.074528711553624227e-01
4.700359145371535430e-02
2.170626651143504893e-02
6.497746415533975362e-02
5.505840828286006489e-02
6.614275553408542618e-02
1.118092356159322009e-01
1.073808790328803775e-01
9.693862307474275519e-02
8.302034255738469093e-02
8.624972895550546415e-02
1.171883514557132133e-01
1.525722432561379127e-01
1.352604481768142075e-01
6.099427429793694011e-02
1.314854080411285153e-01
8.722360155867074638e-02
9.760596888280533012e-02
1.289608480578799676e-01
1.000999730457545478e-01
1.214926642246877686e-01
8.355325141042257986e-02
3.735987475062826219e-02
6.462985146946519099e-02
2.434018436025269655e-02
8.642065618916067171e-02
5.627790691039997323e-02
5.599071863757543177e-02
5.454151076834089229e-02
8.762183361077524602e-02
7.520441416775855425e-02
-3.142399681201719919e-02
-1.326816511607396831e-03
1.103945592894510774e-01
1.031804591513194314e-01
1.107234928429255416e-01
1.475790582381690252e-01
1.894472233920125037e-01
2.351957913121882904e-01
3.147854618212366229e-01
3.312144995521210111e-01
4.341775423547623580e-01
5.323371879137908103e-01
6.379399397758959145e-01
7.308849092833089589e-01
8.372887125459445024e-01
9.622931806150677447e-01
1.076249737978100418e+00
1.140618485904282275e+00
1.169538150712337909e+00
1.249839386149789178e+00
1.248753756489178190e+00
1.327767203809365304e+00
1.291165566321182290e+00
1.293990850630762912e+00
1.217846304030518967e+00
1.148165166474365506e+00
1.007057325926961511e+00
9.184461745834034962e-01
8.338884912481900891e-01
7.198565572581357985e-01
6.203378131931414075e-01
4.991314892967795291e-01
4.534695098666955415e-01
3.485478952240517181e-01
3.117032921774588461e-01
1.769706784444666503e-01
2.128683442367967360e-01
1.240364303198793483e-01
7.017442731910333853e-02
6.322666555663969401e-02
2.766078685292217010e-02
3.260498560202008261e-02
6.408591319268962250e-02
1.846992862237351735e-02
2.974324542218879236e-02
1.485391804886020128e-02
2.136624491241383844e-02
1.928669191135664457e-02
-2.503662221855440517e-03
9.377574469333820051e-02
5.474987987950193091e-02
1.035983733118973071e-01
7.497749270484416195e-02
8.431286013458258455e-03
7.904604755194283294e-02
7.367407769822917341e-02
7.349114910329050676e-02
7.790887257679082745e-02
1.335470716757927445e-01
6.748869665698867260e-02
9.987156059602919633e-02
1.291314589653884681e-01
1.023745123799270074e-01
1.342357170192065852e-01
1.680917995388010733e-01
1.606489857817707811e-01
9.082914089723834183e-02
1.323493642393077097e-01
1.351987887392743504e-01
1.869664547808075894e-01
1.585712737525373506e-01
1.805244412170158297e-01
1.678908569506563642e-01
1.852339020124242897e-01
2.480625617017634121e-01
2.682790289147795604e-01
2.105149416205859825e-01
1.757027075860251863e-01
2.157226023041215190e-01
2.575371095742847727e-01
2.215635100150775139e-01
1.653792565736581510e-01
2.116908765756121136e-01
1.778385368624813001e-01
1.889566113928831947e-01
2.135113316529501926e-01
1.912465085711108626e-01
2.295626776284965531e-01
2.420673126521557805e-01
1.731039244909677866e-01
2.375998524627760122e-01
2.309309154544169629e-01
2.045800651843341089e-01
2.078924147316150162e-01
2.121005086113024185e-01
2.203951044055227071e-01
1.339591409534973965e-01
2.065269480419021364e-01
2.072616495125039482e-01
1.746029174799995642e-01
1.874758029170714158e-01
9.648300180896958456e-02
1.752878251789853903e-01
1.072673942090812127e-01
1.665039096137287955e-01
1.897133436621724623e-01
1.741282461115818969e-01
1.645771254292522356e-01
1.040274047953636816e-01
1.381912114760118215e-01
9.143274256353782492e-02
1.351640562031758974e-01
1.003796295817159928e-01
7.813006646471346017e-03
9.887412249081178883e-02
2.204383288844360272e-02
1.189636250857496191e-01
8.204261419524294663e-02
4.801035489640215204e-02
1.002647561844370178e-01
4.928791186571855609e-02
1.097225066050839387e-02
4.171993492382511381e-02
8.150136820573668228e-02
3.982502851575975972e-02
-3.531064510547581720e-02
2.768956062791257458e-02
2.947925001922763188e-02
1.650549449046953207e-02
-6.805389804913723750e-02
-1.646095841208221680e-02
1.984525069716313109e-02
4.929424892038704320e-02
-2.722712552150012219e-02
-2.591736163363396461e-02
-2.960510089359142533e-02
1.276747260862763633e-02
1.142980442928584126e-02
1.032368744813063829e-02
-2.183788315900894034e-02
-2.855140362288226263e-02
6.846623443806317683e-03
3.098499153432160425e-02
-4.564646289888917019e-03
4.899597926578264095e-05
-3.849641072104621753e-02
-4.715265638069184029e-02
3.640495427736280959e-03
-2.653561924678193157e-02
-1.446652820318003116e-02
1.006554081593033501e-02
1.697600824328987512e-05
-3.214833132022639622e-02
6.871752881893938153e-03
1.425173537514504152e-02
2.784526558020623821e-02
-2.317090193556910552e-02
-1.996558459685417175e-02
-4.288196504011559940e-02
9.365184686321449681e-03
1.233967662187619371e-02
-1.094660414697689287e-02
3.352552283917162312e-02
-2.787370108830868748e-03
-3.683783354168078394e-02
-9.146226784659181736e-03
-1.914081870913319355e-02
2.362332902702792697e-03
6.435953280891121286e-02
3.244839995154966822e-02
2.210679933853701776e-02
-5.293236698566633480e-02
2.993646367042044482e-02
1.085928585838938365e-02
3.128953651820077370e-02
-6.209011519092609566e-02
-3.224678645877905592e-02
1.020297346317915882e-02
-5.793467540742512634e-02
3.619080493542795735e-02
9.422251712995936140e-03
-3.798897736193683136e-03
-3.413622336882531777e-02
-2.729918458557185207e-02
-4.004111171344203884e-02
-1.295119089398935608e-02
2.172620229143993470e-02
-1.457669559425331385e-02
2.420437614765250101e-02
-4.246856143599418015e-02
-5.459206702592848265e-02
3.640519575589527823e-02
-1.694846694654807834e-02
1.902173671233763075e-04
-1.873332842804752499e-02
1.759660406311855385e-02
6.339236834424964717e-02
-7.901886663690120549e-03
-2.864647264488984907e-02
-1.295254649512258757e-02
2.735944318625254182e-02
-5.371343731532998884e-03
8.376649050838728960e-03
-2.362042402223994350e-02
5.280390884766807125e-02
7.207430167698093693e-02
2.853346052910403149e-02
4.001950178607342062e-02
7.257900951056289740e-02
8.900169962688764258e-02
8.116546996831533467e-02
8.836574703302722822e-02
8.054510960088112625e-02
1.172333049890305345e-01
1.179782897123114321e-01
8.424947876124190549e-02
1.048430453311485905e-01
1.387174142858424719e-01
1.433812879212049141e-01
1.009999983213054897e-01
1.344232596213990882e-01
1.275262858635360930e-01
8.671423137544903570e-02
1.924978514360675130e-01
1.370885495098962126e-01
1.254525497233210385e-01
1.490054515183710238e-01
1.368470946246758135e-01
1.903672659593801664e-01
1.833443928339954787e-01
1.463016246597342029e-01
1.720985510402619489e-01
1.425492564927770822e-01
8.814026080692208276e-02
1.352307133558385832e-01
1.138927959351025143e-01
1.045398587748327113e-01
1.395348748776561454e-01
1.804880717572324988e-01
9.133666693166495043e-02
1.190250812105467099e-01
1.129563193642545427e-01
1.692557536000053042e-01
1.008228041753651411e-01
1.717284519800150455e-01
7.624374205512828018e-02
1.286821494038468128e-01
1.965394613806198121e-01
1.382305485664669931e-01
2.337546969985139500e-01
2.507128258965259371e-01
3.119180046043538157e-01
4.765072256175013066e-01
5.373979703923768003e-01
6.041259341188859322e-01
7.365120415536096088e-01
8.174284261548668828e-01
9.380532387453011101e-01
1.021442006799777369e+00
1.098342730151495417e+00
1.175421720655232649e+00
1.261538508966755456e+00
1.272542507789707011e+00
1.356936934345384094e+00
1.407827741415815570e+00
1.321953339062884147e+00
1.306563237625192775e+00
1.187641281900247092e+00
1.178527641285090910e+00
1.174266958969886421e+00
9.909770530116541742e-01
9.097328872897739727e-01
7.585692826914384179e-01
6.866818197786667133e-01
5.510527930243488415e-01
4.850014523524845966e-01
3.466387763310136427e-01
3.601919464509417135e-01
2.813675956158649960e-01
2.384888553677625422e-01
1.643326045550732584e-01
1.604811450280824447e-01
1.667019153669739573e-01
8.315462249862273780e-02
1.168191835488923969e-01
8.627519462916410919e-02
1.293350545222126668e-01
5.942168892937793601e-02
6.593072407804888291e-02
1.132456800588699519e-01
8.211242534921768532e-02
1.058735912051804312e-01
1.185050767664238558e-01
1.072245859598400519e-01
5.486452586790117880e-02
1.321715567787465906e-01
9.860961466364565053e-02
7.973718867622898998e-02
1.831205636996387498e-01
1.724894652758975910e-01
1.081634664296230730e-01
8.097024622502030367e-02
1.509342924729704105e-01
2.152090967545234323e-01
1.424735083414576664e-01
1.655505224141303744e-01
1.530721705608251160e-01
2.025664457323158585e-01
1.963640992004367092e-01
1.825260617890533121e-01
1.678907486486952705e-01
2.261657807568985268e-01
2.509533766678301303e-01
2.138339147545587904e-01
2.558531796450435047e-01
2.399826405847051147e-01
3.072240265243117996e-01
2.926765994341800625e-01
2.689450202094048059e-01
2.622690369411532774e-01
2.666598505968619248e-01
2.665855813050082568e-01
2.658284352822954943e-01
2.176313839451096133e-01
3.248897051963398619e-01
2.384486810080712893e-01
3.143688015876052178e-01
2.410431023482395019e-01
2.613641691008442569e-01
2.763155596392659064e-01
2.751904226044548096e-01
2.247138542337129563e-01
2.935504297916701200e-01
2.483993089347038552e-01
2.792928471069080487e-01
3.164013533174030446e-01
2.537727051135326151e-01
2.570148608869615714e-01
2.118244566381645433e-01
2.419413973546936103e-01
1.998427068674976381e-01
2.247370691755567473e-01
2.345028125431357913e-01
1.809632144716679381e-01
1.849426687511747380e-01
2.251344176106905570e-01
1.921164863182759919e-01
1.857780125311737363e-01
2.271904368223159332e-01
1.450608493615574701e-01
1.330709001243733369e-01
1.757569447584501066e-01
2.245411332869882426e-01
1.710912671718389788e-01
1.456551352029878954e-01
1.501820046432683353e-01
1.232383117593388033e-01
1.659852265195423948e-01
9.892317164690309084e-02
1.085864473661797280e-01
1.600987912696075210e-01
1.118030173024661400e-01
1.257129361724079741e-01
7.017146506587580712e-02
7.388101719721443250e-02
9.061984923880139764e-02
9.076361524337434039e-02
7.220742327102244729e-02
3.522198845645153203e-02
8.497379272791191762e-02
7.493224329546838147e-02
9.951752761194654351e-02
1.486979144989571816e-02
2.984036963282132165e-02
3.920292993373877127e-02
-7.779608813508184784e-03
7.150070512327681704e-02
3.596968878992008734e-02
3.556113639973024210e-02
5.087429180968308651e-02
1.345236767310716702e-02
3.586799946502245567e-02
7.277034176463195725e-02
-5.339106369789452244e-03
1.896000312699424109e-02
5.501062340706094206e-02
9.664263750273417719e-02
6.807556638875467137e-02
4.477406157042800733e-02
9.178662455391756181e-02
1.468062878241268437e-02
7.189012803767702575e-02
5.629751684545114543e-02
6.836436881833614365e-02
1.020276046162912342e-01
1.981341614816872071e-02
2.995044022509005949e-02
3.644925541627898335e-02
7.419064958845636437e-02
-3.259506900757193348e-03
7.303564727253214484e-02
-2.785263310422973759e-02
5.199073402832927321e-02
8.217027852390170611e-03
3.059827732045496823e-02
2.614777687330567535e-02
4.663996897241054485e-02
4.464536148673899085e-02
8.071649366587468899e-02
2.555480840249188534e-03
4.204274473862051886e-02
4.703265799033106570e-02
2.936154091241282779e-02
4.251988937350211634e-02
3.311146531938490012e-02
8.742041118015686507e-02
6.445767030985867507e-02
5.774776486010002596e-02
1.088663670283096796e-01
3.651686270038220078e-02
6.527237561969206903e-02
2.208960465623907229e-02
4.132895844753196879e-02
3.338221769861639265e-02
4.568666411005647271e-02
6.648549124098587781e-02
4.368189020319728638e-02
5.528567050436040270e-02
2.668236101481468933e-02
1.224904420377874101e-02
4.218209544817107942e-02
2.598740499075149341e-02
8.018589659509348100e-02
5.984037142500653328e-02
4.325400572248041392e-02
5.924509317828226956e-02
5.571025469289656029e-02
2.263054325678308734e-02
5.346214061420306168e-02
5.882552959073013982e-02
8.985782024765831544e-02
2.219049370154341227e-02
6.018944070784863071e-02
1.098069310315861191e-01
7.054507665973559771e-02
1.112715380879818888e-01
1.031121844511163066e-01
1.187856373241612112e-01
9.245418915655734260e-02
6.201472971402890305e-02
1.062981076013820858e-01
1.322227023102086341e-01
1.568960026257145701e-01
1.029319712267109943e-01
1.254034288872469816e-01
1.300106153442015522e-01
1.971461579705999778e-01
1.495511351053714355e-01
1.683562737462442616e-01
1.710343352239896975e-01
1.037550070633003613e-01
1.839701773114885974e-01
1.758189522426846507e-01
1.524668823216016045e-01
2.522230038471008351e-01
2.355491801819722952e-01
2.026840393540059737e-01
1.999360319751808945e-01
2.421681407690812748e-01
2.309342281581097667e-01
1.881793376638501991e-01
2.004923237341279807e-01
2.144789894007112785e-01
1.726089857832155960e-01
2.667499435044989320e-01
2.122475429645974687e-01
1.702214444498310331e-01
3.171173366613595501e-01
1.608081664630336971e-01
2.023748875855174711e-01
1.521604123943118836e-01
1.486151447718399576e-01
1.720017668929386678e-01
1.600576386227493542e-01
1.562931821033543001e-01
1.624708230771784723e-01
1.866513973242275304e-01
2.032008689854899186e-01
2.762543700225132404e-01
2.292420619951957839e-01
2.107129943254331950e-01
2.306930363290151387e-01
3.184598501329507503e-01
3.357548909701618123e-01
3.819635258329736605e-01
4.401485458961577613e-01
5.555278387637346826e-01
6.091021367746575210e-01
7.738441796550564744e-01
8.227330151541121239e-01
9.907980950052969193e-01
1.108641826231823613e+00
1.158614367537544210e+00
1.188997982086335226e+00
1.372473710508343547e+00
1.368830419149724031e+00
1.421366133434313950e+00
1.363324967965526380e+00
1.429969096934820216e+00
1.276931086976454077e+00
1.236118442037489995e+00
1.244244453611707657e+00
1.077180132177561145e+00
1.036602155682644799e+00
9.219265790027897367e-01
8.193515755492656316e-01
7.298452198325564577e-01
5.619053285566963929e-01
5.574389247794031554e-01
4.203951458661051577e-01
3.776545491887211004e-01
3.511387846114591982e-01
2.513019914103399310e-01
2.855877208709783899e-01
1.181463699951838392e-01
2.116256780172855734e-01
1.259661154113284609e-01
9.205588103577846959e-02
2.065862874030687246e-01
7.905203804113446198e-02
8.643594005067284369e-02
1.472489936658967213e-01
1.465732990253100221e-01
1.148911665229124524e-01
8.816178073516099667e-02
1.215900216444545656e-01
1.253885347391615612e-01
1.055565565249026311e-01
1.294375711170216436e-01
1.899865274360044431e-01
1.776877308511397024e-01
1.879426380303806654e-01
1.562846379382900885e-01
1.479950683668320721e-01
2.337896319200958306e-01
1.696039892117434944e-01
1.600742474417479466e-01
2.136165140855333933e-01
2.094948658258699026e-01
1.964448721475440807e-01
1.907986539204725440e-01
1.957343659112639189e-01
2.476116747820675812e-01
2.163422305683266877e-01
2.906002363779203734e-01
2.827074691874625900e-01
2.662116275313328728e-01
2.683408303522980543e-01
3.162485247455820159e-01
3.180572003502807887e-01
3.219810029988837141e-01
3.166371804356573061e-01
2.789794732042590875e-01
3.511541681519791958e-01
2.966679994233160089e-01
2.972834022729781700e-01
2.857610470902082200e-01
2.782446960997236873e-01
3.036495459784892548e-01
2.777211248534002808e-01
2.843425003024937503e-01
3.393281322255660148e-01
3.163006366499246935e-01
3.130906255172191677e-01
2.503684842545954581e-01
3.638470335790720545e-01
2.670019741991204731e-01
2.811793856858882945e-01
2.838148745940194395e-01
2.871608202946337451e-01
2.757274417465185867e-01
2.536424085716814103e-01
2.379209646096940578e-01
2.413337744196792645e-01
1.719010039592804850e-01
2.920395626689293866e-01
3.133588352216628570e-01
2.873135787303275901e-01
2.507631146538332745e-01
2.414193055019397127e-01
2.219800317036587090e-01
2.138112656309582027e-01
1.898047134489759258e-01
1.746352637048652068e-01
1.200082184949043118e-01
1.789494398328740632e-01
1.669746368553303162e-01
1.693404809611238626e-01
1.749119486453554750e-01
1.596834140097937171e-01
1.524419986263604032e-01
1.219509062730891047e-01
1.365600154274553835e-01
1.385974871778600792e-01
1.052283381715503341e-01
1.093541842172811585e-01
5.751214974688838300e-02
1.699136476522172812e-01
6.619977948819993907e-02
1.223695143776662164e-01
1.152932933798539727e-01
6.744779691738911342e-02
1.166746088600904285e-01
9.970329709658759532e-02
4.566651062299727920e-02
6.646179608158106489e-02
6.200370975483675273e-02
8.880187155580754332e-02
8.959702110168719924e-02
5.065285218375305265e-02
8.180365463213581934e-02
5.647246616211884507e-02
6.969938135495631903e-02
7.651828032238257304e-02
8.061561824320448433e-02
4.290121262981010097e-02
1.130241699435731439e-02
4.960221416788249127e-02
5.604756445773539930e-02
-7.774351614673803701e-03
4.178499280965015938e-02
3.005385553555641603e-02
2.872703906483536213e-02
2.153586663291116865e-02
6.489444866680821322e-02
9.101938988751792636e-03
6.376455162101943297e-02
7.614621493630933935e-02
8.544862478832820907e-02
5.204974848753465833e-02
8.320838790607593127e-02
3.496281324064635238e-02
4.340187498396721327e-02
6.974116697285277777e-02
4.683990470584104004e-02
2.257479230323124197e-02
9.971379087299829524e-03
6.624612056886081124e-02
4.729145311108852445e-02
4.306822970287314117e-02
5.860674251777626964e-02
1.151398649803107160e-02
5.418179573922406178e-02
3.972135578209796958e-02
9.689181287529845255e-03
2.694849998845871147e-02
8.085152014703085588e-02
2.400684699334106054e-02
4.875047545360385731e-02
6.584972847655023998e-02
2.585102042519223445e-02
1.044185983628878045e-01
6.846117751752703318e-02
2.711416076086455712e-02
4.428139105022819988e-02
-1.034034875470814241e-01
5.268702739693917336e-02
1.164127435379805342e-01
4.561958413045155702e-02
2.652665300880893695e-02
5.446275739298549190e-02
-9.556551889134949629e-03
8.106525142868553635e-02
3.822879186492402631e-02
2.073398931539199158e-02
2.561448861434637014e-02
5.809534232024325673e-02
7.391776930808824364e-02
4.766258042608695344e-02
7.167502629865393771e-02
6.659804526317285311e-02
1.803084208923151632e-02
8.058369166728091004e-02
7.188624458058474886e-02
5.733466263644283745e-02
1.010211594658707301e-01
6.781430553503457748e-02
9.289189417299029139e-02
3.718772010515094401e-02
1.217990044808476835e-01
1.322221294985303219e-01
5.464925103379272842e-02
6.205208083088704918e-02
1.075877574392098135e-01
1.577324781502101037e-01
1.459347214818454974e-01
1.197976170392215517e-01
1.274186895999336600e-01
1.059940201511402058e-01
1.568337805667307516e-01
1.127754150711243464e-01
1.903665094906232813e-01
1.658508772231470640e-01
1.155427791177905394e-01
1.731824562882011975e-01
1.669358816758199360e-01
1.295872507186921208e-01
1.610635670388743113e-01
2.016279431948642953e-01
1.928317525425083390e-01
1.822351842516087284e-01
1.770217729238966475e-01
1.486264142906280339e-01
1.744151667299319031e-01
1.928014240249971700e-01
1.675931966586458599e-01
2.018854178974232583e-01
1.422209300085186812e-01
1.728960601508493788e-01
1.727522311501304975e-01
1.906022240447036165e-01
1.749796081314602958e-01
1.283792344401243068e-01
1.766026503833011962e-01
1.299593030807782434e-01
1.201737207789851797e-01
1.275495117089358588e-01
1.364345219537820009e-01
1.726894505682519121e-01
1.533400887864676820e-01
1.805713936109673290e-01
1.812522825887085687e-01
2.101954991864891653e-01
1.954014130713373765e-01
1.543765453909830832e-01
3.251372639251167707e-01
3.411999686595946213e-01
4.265869365481619879e-01
3.929248361135392331e-01
5.941754987288495604e-01
7.004326287597951728e-01
8.053778385138145035e-01
8.150532012684806871e-01
8.950056122561548255e-01
1.028698520376927439e+00
1.154953391618719571e+00
1.254460085256255963e+00
1.284734446807500596e+00
1.370682181159670998e+00
1.362067008293690984e+00
1.370042705977160713e+00
1.350875935902326352e+00
1.268724937731277036e+00
1.233871201613283786e+00
1.161529064802357514e+00
1.053284221324195746e+00
9.493194477367034034e-01
8.672162969235246432e-01
7.034304079333562054e-01
6.822528693459394278e-01
5.954762203825729738e-01
4.550042839732827971e-01
3.985193786775582114e-01
3.378809096652332089e-01
2.921794506778214728e-01
2.115122731258097522e-01
2.027489977478733052e-01
1.650018900575657421e-01
1.051905277884218337e-01
7.962672836321145475e-02
6.416669743588911123e-02
4.496397919266665461e-02
7.550909253592601178e-02
8.939501413698267007e-02
6.209860231373821871e-02
6.816647319551140394e-02
5.689391453149628824e-02
1.190794441458480069e-01
1.043394032685994871e-01
1.174874641032247341e-01
9.727922551657826322e-02
1.032431618848100308e-01
1.192317190688332862e-01
8.327353655000011012e-02
1.309487852306872868e-01
1.280161577399256678e-01
1.016950439680272683e-01
1.335057869361350735e-01
1.430919320680911766e-01
1.388846551005082364e-01
2.095429967440404495e-01
2.069170410107012414e-01
1.757373361519101451e-01
1.991257029383747545e-01
1.848127376411195233e-01
1.989819279758816839e-01
2.286192652183761664e-01
1.822481170589607680e-01
2.041589908600589254e-01
2.253841405875621762e-01
1.972504498200392253e-01
2.430452744210414573e-01
2.723416424440866512e-01
2.636822009971905856e-01
2.683233332324732601e-01
2.253484864411495481e-01
2.507965361840349128e-01
2.850949507679773065e-01
2.241434754234853388e-01
2.192145029314634952e-01
2.591985569490873886e-01
2.539605758411355718e-01
2.954908340835134539e-01
2.912901857500586056e-01
2.593088355388262212e-01
2.496961555856394288e-01
2.453977232047792612e-01
2.210830475953402263e-01
2.319851684048582774e-01
2.080154672481422384e-01
2.359236474115219973e-01
