1.364549875482379715e+00
1.331557460499326773e+00
1.290084277012249148e+00
1.255147173334597133e+00
1.178548552597542320e+00
1.084659679421079881e+00
1.012289620122766243e+00
8.542027720569029814e-01
7.719451654752905734e-01
7.245036426720499190e-01
5.659294371503070797e-01
4.607766759360388265e-01
3.918189486803141941e-01
3.093064911277135232e-01
2.532386598021679203e-01
2.272197340766773932e-01
1.766214166305129507e-01
7.682665457642266771e-02
1.512092272567091000e-01
8.510947422556792985e-02
6.020336607634534098e-02
8.643738894905261816e-02
1.115714225511855312e-01
9.000196789353449855e-02
6.041370450291467381e-02
7.638481632635554797e-02
6.757497787269828304e-02
3.330879375866947767e-02
5.504906111089710036e-02
3.691951905271562140e-02
1.557893740041153829e-01
6.945275239331218098e-02
1.049087173037143716e-01
1.255400602604140048e-01
1.096047422257275805e-01
1.280126047660036237e-01
1.062758013207363850e-01
1.432282886296982749e-01
1.072596948594064792e-01
1.286939984147013882e-01
1.711254451596805060e-01
1.378036886268959316e-01
1.802926619024545207e-01
1.394656099220148437e-01
2.216459632725441831e-01
2.226857294011748700e-01
1.818768938929730961e-01
2.237859849902712750e-01
2.025338400805950234e-01
1.713556403817611540e-01
2.465586119656713038e-01
1.723900740644935536e-01
2.110659254666470142e-01
1.991680302419779613e-01
2.607827968141767094e-01
2.279829436037972834e-01
2.261734648820318272e-01
2.393794566163598425e-01
2.834575244792718607e-01
2.689813071198390859e-01
2.890472157058459612e-01
2.225643504591615918e-01
2.720354128710809061e-01
2.253441038796095974e-01
1.872612742895241600e-01
2.197999012484630477e-01
2.258815471405391517e-01
1.930176874630642747e-01
2.899178573020906313e-01
1.943497325658818109e-01
2.235167078831905574e-01
1.885257577927010875e-01
2.405572883707013387e-01
2.091624008374886601e-01
2.105566942583274592e-01
2.197878297794052527e-01
1.718990574046866671e-01
2.201911354146555699e-01
1.804257267819545651e-01
1.013730751663862173e-01
1.440489167067807441e-01
2.247712405100250610e-01
1.783548072299579734e-01
1.334423129810563269e-01
1.481102729420382125e-01
1.543680259318948311e-01
1.458089073337709429e-01
1.822962022283863281e-01
1.284343280244983898e-01
1.410531152341140404e-01
1.254644567086071749e-01
7.581845053421923386e-02
1.132170313491184105e-01
7.927210086198172023e-02
6.209823180479519256e-02
8.819985646997077766e-02
9.947437317096280429e-02
7.417851849073761605e-02
1.098387945164800567e-01
7.203794978082830869e-02
9.078248306816327773e-02
3.224066867615013599e-02
-2.015534651537145491e-02
-8.211693360248330242e-04
3.499624758107668099e-02
-1.030139100417269346e-02
2.179801254930144316e-02
2.607143012095081147e-02
-1.359388545313771485e-02
2.610477070125914387e-02
1.901019678055013151e-02
-3.176014562417511788e-02
3.913974957189213927e-03
5.685513145684408659e-02
-3.534965333012195232e-03
-4.569599110473833437e-02
-4.868666846545889604e-02
2.025813150442801192e-02
-2.423258528767739672e-02
6.549368393974432795e-03
-3.088789489473552780e-02
-2.813857770829975707e-02
1.234115041423542586e-03
2.673762003159926848e-04
-4.068472223705925372e-04
-1.707697155409598072e-02
2.431711391960921648e-02
-3.796896332153267689e-03
-4.613865079978035633e-02
-2.969629928139774430e-02
-1.861308802980356225e-02
-5.980899253364475865e-02
-3.600221654657802944e-02
1.742742295045164244e-02
-5.447367196772487374e-02
-3.769669309882540953e-02
-3.618689750402593469e-02
-1.679132593352872238e-02
-8.353187996858264103e-03
-3.490216774434219682e-02
8.027252686344972521e-04
-5.584205365789440129e-02
-5.343886563081273744e-02
2.965033672325745676e-02
-1.831673683578163153e-02
-1.596452271271260950e-02
-6.219137154217589669e-02
-1.437543664601960251e-02
-6.588942297065153442e-02
-3.586662840520730977e-02
-5.565994717311355949e-02
-3.783883810885793619e-02
-4.215290248720590660e-02
-8.029330496447616844e-03
-3.961656545185065353e-02
-3.797865196807749533e-02
-3.003419196937700056e-02
1.436786583133469949e-02
2.551362365409981861e-02
-5.457815114914486843e-02
-4.862426017640596176e-02
-2.387479529826279021e-02
-1.427889477639734256e-02
2.468912906603109442e-02
-3.955564333634346841e-02
-1.291073979863322646e-02
-2.004312452060792379e-02
-3.741738477711097077e-02
-2.848160756781979719e-02
-3.270422523121659097e-02
-6.089748608022287069e-02
5.150982465647928332e-02
2.402272510675426687e-02
3.165316647016071933e-02
-2.984140622162615233e-02
-3.654302798195031149e-02
3.060025462972348897e-02
-3.072060417439340801e-02
5.936921538489905309e-02
5.505756118773630359e-03
6.235896781797298921e-02
-4.579455756426729918e-02
1.904218979140892554e-03
6.224033191690015593e-02
1.641385060286508490e-02
3.345602797665744171e-02
3.437123473637677257e-02
4.265561900720617194e-03
3.036969803269779639e-02
9.378310577749546240e-02
1.005442623463867480e-02
5.445708126661368692e-02
7.679970166194959036e-02
5.295857262871031534e-02
9.547974046622068056e-02
1.228037477874993483e-01
1.092338743326082134e-01
1.176438639969054067e-01
8.106384153080214983e-02
9.811022539270605747e-02
9.347486537799895578e-02
1.292401917892338215e-01
1.534614746468589974e-01
1.233792662771789894e-01
8.598851583761243922e-02
4.566960249029065888e-02
1.157490991870267216e-01
1.314085047668701600e-01
8.119945629575059387e-02
1.042109427065891769e-01
6.361462766479364372e-02
1.045899447853716469e-01
4.433867757524895259e-02
1.062644823479345635e-01
6.503934999262456218e-02
8.751308767058972593e-02
7.049463628852030428e-02
9.569118851021551908e-02
9.406954501703418403e-02
5.852419244400774989e-02
1.204410020142574478e-01
7.767343897535214370e-02
1.807865856602035304e-02
6.531342082301473673e-02
6.388402627931849542e-02
9.205651880294676848e-02
1.470596807315471544e-01
1.736111296287631001e-01
2.508926220040908484e-01
2.895714403303211726e-01
4.353920681497897016e-01
4.755677173601397523e-01
4.990819133149446141e-01
6.695929977196796168e-01
7.589139531607410616e-01
8.156832813666623494e-01
9.499728101320110696e-01
1.058692383651076430e+00
1.144816368608521318e+00
1.177671337453976896e+00
1.300831604769390859e+00
1.310758811967516424e+00
1.330148957877393512e+00
1.290050101986053743e+00
1.241770156479153231e+00
1.215307406311003646e+00
1.114706673591660202e+00
1.043286751058165152e+00
9.348328043050154745e-01
8.148070684198004399e-01
7.526436043858056868e-01
6.374363009756963683e-01
5.365947399490049730e-01
3.971120676917800907e-01
2.876895703253973258e-01
2.522179461197428529e-01
1.899511854919002929e-01
2.049003356775153106e-01
4.335191757125302775e-02
1.434518734051448141e-01
7.693240049281785398e-02
6.299552806054722898e-02
8.670388683393681628e-02
7.786673290161907901e-02
3.696350706312588608e-02
2.799241622974427135e-02
3.459380949526266041e-02
3.478469430123320300e-02
3.253129410634611474e-02
4.873553922953299811e-02
1.408666196463597559e-02
5.894222073146146434e-02
9.855091125598229584e-03
4.817367864702365443e-02
7.131046916320332718e-02
1.791521525768766110e-04
5.389163146233097446e-03
8.041717406657938882e-02
2.687046297277509432e-02
8.759073053041996348e-02
7.693197895982115120e-02
1.113750311030698714e-01
1.346957224726442748e-01
7.090805587142398614e-02
1.582797311779607641e-01
1.233314183507625006e-01
1.522863372574255192e-01
1.848888591371012635e-01
1.568545562719507180e-01
1.434716976779361330e-01
1.528859349038612925e-01
1.683613943252799117e-01
1.891389492614979628e-01
2.164449327251216915e-01
1.953518526553425227e-01
1.157910580031872583e-01
2.296308412612790006e-01
1.952871766682612309e-01
2.207615650498106485e-01
2.058720964445199253e-01
1.463087093371628622e-01
1.385071798261091613e-01
1.746201958405539378e-01
2.051505006949228549e-01
1.662152339876522278e-01
2.338509852952056489e-01
1.818315862750414791e-01
2.108074088812425528e-01
2.149137619733481885e-01
1.933941168578147407e-01
1.686218760949854401e-01
1.808250256148871693e-01
1.693789546457580841e-01
1.597482184199851274e-01
1.471724764322531742e-01
1.961864299064616790e-01
2.216135824707034241e-01
1.672422335974760033e-01
1.680905098635407102e-01
1.464912497256017354e-01
1.376881244890093003e-01
1.106545259022148897e-01
1.630769970884227982e-01
1.328705440511396274e-01
1.343578851355393400e-01
1.077831004760914091e-01
5.544590774455516319e-02
7.621480022898302620e-02
1.062623710176618108e-01
9.518739716173651999e-02
8.190790451978649522e-02
9.265335810126201777e-02
3.324357003083962259e-02
8.814289129164307179e-02
1.092367993520355351e-01
8.117984761846017139e-02
3.397234665886737087e-02
7.633877401859101575e-02
4.395603857654493962e-02
2.302538171750839746e-02
3.923897940518487198e-02
5.681599703010442592e-02
-6.119834955512382102e-02
-5.283818305154808215e-02
-4.242035284796934896e-02
-1.413478964632534224e-02
9.152002400967973461e-03
3.492924006943687321e-02
-4.836304407845332110e-02
2.766671337858191138e-02
-3.148379329777777763e-02
8.939102507392118757e-04
-3.082552469880414300e-02
-6.600410022572036906e-02
5.798968136448388877e-03
-5.656129887079874852e-02
-7.520876040078935953e-02
7.297317096789171509e-04
-1.775308371913011940e-02
3.407604927779292470e-03
8.258455593099345293e-03
-2.232340875553557105e-02
-7.660084721577538336e-02
-8.484269320509899015e-02
-6.989648289093554345e-02
7.110837674320212576e-03
-3.234834405449291128e-02
-5.413348916487729229e-02
-1.916156812981367405e-02
-2.533697994312608670e-02
-4.424315405119456923e-02
-2.287983439248684678e-02
-8.173274234827487827e-02
2.741300686137822934e-02
-1.170146516594342823e-01
-7.583793232367311288e-02
-6.925949607211000225e-02
-6.190270663865710815e-02
-5.559774407879426728e-02
-1.667803411670574359e-02
-3.680058669409619343e-02
-5.893986203996730289e-02
-1.584090515463439097e-02
-6.376677986614781579e-02
-5.038850584568626417e-02
-7.171287081060070956e-02
-9.602390959021681049e-02
-5.709704573670269789e-02
-4.119948332199153268e-02
8.838981402494665296e-03
-5.932590040789530172e-02
-5.238844663071823282e-02
-6.943190172621785394e-02
-9.998356862223026220e-02
-7.186101799368520282e-02
-6.790440679806336588e-02
-1.820907425754427628e-02
-5.550141108303070087e-02
-5.288968164497651753e-02
-1.273186456196456068e-02
-2.455305708857911939e-02
-2.729200343599405901e-02
-9.952551080760957403e-03
-8.201768078624971370e-02
-1.075909144121467986e-01
-4.187003939189164886e-02
-5.891069066919231434e-02
-8.110483135829273105e-03
-4.563107676416209429e-02
2.310340318112580338e-02
1.892497302202880705e-03
-1.386780588535710401e-02
-2.265151866825271254e-05
-6.358545479293552238e-02
-5.693992911754226088e-02
-6.431270206782310761e-02
-3.631768515594799990e-02
-7.311212238645127537e-02
-5.805639959167439856e-02
-3.419439076550290224e-02
-7.567812218930333734e-02
-1.601694995322662518e-02
-5.368212357200118773e-02
-1.670638749591684194e-02
-5.271011297391443168e-02
4.504720046261311700e-02
4.878884832806709010e-02
-9.461497815970588976e-03
2.361859958717121150e-02
7.911384213855338077e-02
8.651393097897487616e-02
3.337381176096784058e-02
2.309771652710256723e-02
1.168066888991825258e-01
2.761712517024531022e-02
9.214438950379164051e-02
6.392892022216575820e-02
6.826256994785208365e-02
6.427126446700567874e-02
1.005410531119317052e-01
9.405019688555057988e-02
5.559057914846300685e-02
9.953610588287313543e-02
8.122828588754912871e-02
1.011524940006234552e-01
1.212273550186032112e-01
9.175426802447469998e-02
9.755402748925530443e-02
8.459200026476730583e-02
1.167941580672800794e-01
9.948203877643330140e-02
1.119006576530554020e-01
9.928636403190589654e-02
1.487218913408828169e-01
1.014378683327546576e-01
8.763193595873747244e-02
8.570123563314391291e-02
1.272817874179839881e-01
1.111051304139736573e-01
1.099355336485710460e-01
6.579966126717692876e-02
8.722072803393601803e-02
6.287325004519131455e-02
9.000976548115666165e-02
7.575717168408782620e-02
8.542880812684150449e-02
9.640908145654270012e-02
1.393399091704752568e-01
1.932035004814859069e-01
2.364874810399206218e-01
2.426695159879253549e-01
3.224963739072406188e-01
3.668755444032379964e-01
4.706266372932960129e-01
5.574644187863442291e-01
6.391126320388053061e-01
7.741729630349739599e-01
9.399384144699751698e-01
9.892074677933572202e-01
1.114283925049693869e+00
1.169335020909956668e+00
1.226413860093068520e+00
1.320076953652427276e+00
1.357314113108361031e+00
1.277935722335922009e+00
1.329414406701217466e+00
1.255473933183367752e+00
1.149719347943802372e+00
1.094519919971579824e+00
1.009853689065224769e+00
9.316848202243922517e-01
8.178821691107194258e-01
6.873045770029252433e-01
6.156927135330759748e-01
4.795126502994088713e-01
3.963995575695273832e-01
3.871521056405426986e-01
2.143211542632441347e-01
2.292677357149375261e-01
1.247917460901182551e-01
1.320086931475678016e-01
9.425690059337882287e-02
5.054051949981382130e-02
5.188071627574695338e-02
1.504622526971695351e-02
5.279300115713930763e-02
5.557312763565531999e-02
6.962091258396028992e-02
8.421235686167494183e-02
2.684590469557631559e-02
2.137396858424690099e-02
2.677078946867367942e-02
8.796497448410545150e-02
4.008036622516435166e-02
7.466029167510845888e-02
2.649203279707781217e-02
6.900210956795305162e-02
8.625197040996143705e-02
7.701746773807202628e-02
7.662491175882996108e-02
5.041430323720241108e-02
1.568087609801498139e-01
1.181556885140082891e-01
1.755687926297455626e-01
1.432727606295388090e-01
1.620681781956784528e-01
1.302730036367649169e-01
1.480222310877727376e-01
1.559504933201643351e-01
1.617540931410490490e-01
2.185185548031893521e-01
1.668208292674696613e-01
1.812240346906263122e-01
1.663742820044236959e-01
1.976697866584081198e-01
1.751819317187275626e-01
1.895922059634468637e-01
2.551063093671156468e-01
2.042453982269408219e-01
1.819937273576706094e-01
2.588916468300226925e-01
2.146792661902304500e-01
2.518763737044263928e-01
2.545242349625286282e-01
2.363819062894720602e-01
2.372325545890252851e-01
2.073803879543898998e-01
2.276012882159061668e-01
2.645288032147247170e-01
2.170010310224393113e-01
1.970870465138716554e-01
1.719601129440403164e-01
2.231240360761879982e-01
1.944437690935639229e-01
2.542935337279291774e-01
2.217622488404160375e-01
2.106459179605484622e-01
2.054715143927298981e-01
1.943028892189779255e-01
1.964374571111970336e-01
1.512353347001416659e-01
1.996819296498202612e-01
1.683130158820791422e-01
1.766553544638007067e-01
1.290771694220783639e-01
1.178539016332142420e-01
1.294942997880225155e-01
1.414812272790641479e-01
1.777228616745832601e-01
3.375400657932821347e-02
1.807115920175243751e-01
8.508361721680296474e-02
1.278848483245801915e-01
1.280173527798920685e-01
7.985419532438572943e-02
1.022249409158579037e-01
6.816320834669314932e-02
7.374588639206987317e-02
3.421635907997232912e-02
5.490166852039606027e-02
9.901282715947999635e-02
1.009716750493216131e-01
3.690297871478833563e-02
3.236648555562286755e-02
9.895060527626172581e-03
6.070257753270857232e-02
3.980145754980222994e-02
2.258278452118548871e-02
1.026422730176650491e-02
4.155962819631256466e-02
1.671750316741614506e-02
3.587191729920377603e-02
1.336880729949408396e-02
4.093854603070161413e-02
3.035805717401322129e-02
-1.164003685862605338e-02
1.027108181670885467e-05
-4.649386332215610373e-02
1.433780971159683698e-02
-2.802276618810490422e-02
1.331790320132501121e-02
-3.189214274810121125e-02
-1.863528491867286196e-02
-4.030954484361535389e-02
3.536039283979043601e-02
9.467135397734138813e-03
9.553954422639059085e-03
-5.162498998395594063e-02
-1.358473461417951389e-02
1.078528853236035770e-02
2.004404765535984512e-02
-1.989658532425391674e-02
-2.514653350889212852e-02
-3.393815967190241811e-02
2.090590261162278071e-02
-6.317890237196426007e-02
-2.910144734891750677e-03
-8.153095807181691412e-02
1.831288016221403747e-02
-3.161131290664048049e-02
2.504315859486861209e-02
-3.988265410879820311e-02
6.788073055425634938e-04
7.876150556551921034e-03
-1.882503468066500443e-02
-5.746906528339602166e-02
-3.107842305251696385e-02
-3.070767644642695068e-02
1.604553242730228160e-02
-1.282435114863446877e-02
1.806663688918833457e-02
4.253496345606076062e-02
-6.639941949230016016e-02
1.363610164147667156e-03
-1.662308746903503817e-02
1.437878830210731311e-02
-1.308656242925401031e-02
-1.561094057337847427e-03
-4.063745447660082472e-02
-3.002931733511483153e-02
1.149671113086255317e-03
-4.708929362729950829e-02
-3.599383401020207068e-02
4.256911497813988324e-03
1.093786936935547613e-03
-1.537168428033379615e-02
-5.731626514913277896e-03
-1.286968703919083579e-02
-7.773782974465182072e-03
-1.884133530196289291e-02
-4.069735910607443635e-02
3.308545458667499356e-02
2.446182633590317929e-02
-3.879271796530370936e-02
-2.484951280104269467e-02
6.752414311252433188e-02
3.147534382905892159e-02
5.437560528114730035e-02
-7.135619842281694207e-03
4.827053912991791790e-02
7.526737453705774697e-03
-1.311836821735982896e-03
4.159278267748323099e-02
6.077287633056606062e-03
3.215470074598263117e-02
3.312783042826342866e-02
-1.540088444229077008e-02
6.105285549839072068e-03
7.050773072770404049e-02
5.128505248127410154e-02
9.996270602933647609e-02
8.845387734933621293e-02
8.548481680858953380e-02
1.443078510675477044e-01
1.170677638186917169e-01
1.139737756034430866e-01
1.323292777340560056e-01
1.325554970083844264e-01
1.237176230004467942e-01
1.387532832604134736e-01
1.186396864282655422e-01
1.640886885091193403e-01
1.363935979081266070e-01
1.653257058168185745e-01
1.389933953701987246e-01
8.981919113810940547e-02
1.662379668280697387e-01
2.209815767477926740e-01
1.316908510010183220e-01
1.537840478963831137e-01
1.653383657071378909e-01
1.672991041633283826e-01
1.789958681792829798e-01
1.388813876844487150e-01
1.307918786376683074e-01
1.142796887710865045e-01
1.542806112657117423e-01
1.609685796914495926e-01
1.423432959139454557e-01
1.323384920284896571e-01
1.192859331880563589e-01
1.568150159264025123e-01
1.675619619433016960e-01
1.137716851180557848e-01
9.402744417018576994e-02
8.755187526947964816e-02
1.565778843949518218e-01
1.118682635773238232e-01
1.505875913561054436e-01
1.715042430977775090e-01
2.740011797994271747e-01
2.961738966553773000e-01
3.677894761942549495e-01
3.808834648799482858e-01
4.987183065221008071e-01
5.792640313017678455e-01
6.617759398152198713e-01
7.328099673336717634e-01
8.574398965870239087e-01
9.764245374274181932e-01
1.058833883228317507e+00
1.138397537198817311e+00
1.290107516783721708e+00
1.314322200383374550e+00
1.342980015068175437e+00
1.389526895083534219e+00
1.398388995416417258e+00
1.311810619022851343e+00
1.235087863825989229e+00
1.236319163193583037e+00
1.172326753463015514e+00
1.085010173526691046e+00
9.625318138009926194e-01
8.041618330384575630e-01
7.438050581529176419e-01
6.498603275007001079e-01
5.263778316877301133e-01
4.704373084792353166e-01
3.325802186797829352e-01
3.527968704466067362e-01
2.324930476257672796e-01
1.585029262837854835e-01
1.470645110820601176e-01
1.641615560417881148e-01
1.448095403013653915e-01
1.115388022668929446e-01
3.701808826274776559e-02
6.176267048913602897e-02
7.808454805741277260e-02
7.899074567205977004e-02
5.490461423279267839e-02
8.677517367338027920e-02
1.251183322545419974e-01
1.020759745843444477e-01
1.487663135661552172e-01
1.085398260687537308e-01
1.596478244547807623e-01
1.736324072110634054e-01
1.396757999720804333e-01
1.388925232032628965e-01
1.789579202911856792e-01
1.810772532310441219e-01
1.460249077389579320e-01
1.523278194390895179e-01
1.818153096872668351e-01
1.381453999562589907e-01
1.963293092070217682e-01
1.903348528340899071e-01
1.638414872298590841e-01
1.911524531791991277e-01
2.247505720871176282e-01
2.103048793043311437e-01
2.316337333927365183e-01
2.502660175866428527e-01
2.813512724164181078e-01
2.298449377149788808e-01
2.425192340761976872e-01
2.563818431953896471e-01
3.132909321700071414e-01
2.927184332146982593e-01
2.385071706586877616e-01
2.247925405360934881e-01
3.101629146023346939e-01
2.805711955538310876e-01
3.200962513951553512e-01
3.244468445943062274e-01
2.667799113073460182e-01
2.793995059311961127e-01
3.043431896687297522e-01
2.575605751692366385e-01
2.845401419144817368e-01
2.744487796500277854e-01
2.648916725390371707e-01
2.970664351813400716e-01
2.717714773804731920e-01
2.471527026718480791e-01
2.958923574171385962e-01
2.987538554586689488e-01
2.890399649193458043e-01
2.386975099377914855e-01
2.631831282376389525e-01
2.499160498655055018e-01
2.431780821007535065e-01
2.505604241405783861e-01
2.478862897096896223e-01
2.697434291836548481e-01
2.317886843941058539e-01
2.218217327377551840e-01
2.164150427718211367e-01
2.477924216596064655e-01
1.501634773805938794e-01
2.168611379300693365e-01
1.947122630886194139e-01
1.729364620292078714e-01
1.756257720517385990e-01
2.014361260149003796e-01
1.681642409404774385e-01
1.635059176440070705e-01
1.398592799655013208e-01
1.609403789084710990e-01
1.562997259494304514e-01
6.369810595159945688e-02
1.282432500928832320e-01
1.893458323483910299e-01
1.587719415361705244e-01
1.377089476411612612e-01
1.011224932160749435e-01
1.317317400174830566e-01
1.006854464218077394e-01
3.729710216225227970e-02
8.111355076982526557e-02
3.672452089631327021e-02
7.656578574243112778e-02
1.437855976254932000e-01
5.245130998630702368e-02
9.616129492304695270e-02
2.524618119785573128e-02
7.137207069635609358e-02
1.435509963571517458e-02
2.035729695711231343e-02
7.932119837127490913e-02
5.195264431927751336e-02
5.247236492561659083e-02
5.379038041870815023e-02
-1.127412672057916121e-02
3.831222228675150443e-02
5.007245431958452786e-02
6.117197123612520132e-02
-3.039430772504745498e-02
7.918652967273764887e-02
1.594429791398698643e-02
6.352354506720389593e-02
4.877595327717153262e-02
7.503573281724140731e-02
9.257470372274942405e-02
4.807738529484187340e-02
5.351454062483516905e-02
-2.479225439322914337e-02
2.196899943500992686e-02
1.597736753200598020e-02
4.283098763400693815e-02
4.283730633426247048e-02
4.135360812002692593e-02
5.408081134355263719e-02
1.094509650541503204e-01
6.849869422319763979e-02
6.378872034671323465e-02
4.587155818612287383e-02
4.639289985078082212e-02
5.834085121035875732e-02
4.573127343686783641e-02
9.786846512464017489e-02
2.074168993968859842e-02
6.667857638576005219e-02
2.427806132378445073e-02
5.808438912832009082e-02
6.156709625811446207e-02
5.857550845635121906e-02
4.021038073285475301e-02
9.821536488692710065e-03
3.588517243370382970e-02
6.079082251658102926e-02
-1.853608592830219282e-02
5.827930109574010198e-02
3.976922506823449277e-02
1.028614268138542537e-02
5.322512685318554759e-02
9.597245854871466753e-02
8.395553324240694060e-02
2.482870857248680591e-02
1.156786017242925207e-01
6.950996604585023275e-02
7.796702789526267774e-02
5.682032503525135531e-02
4.649668003559676022e-02
8.824707375319533476e-03
1.065107868443528061e-01
7.292925739455810574e-02
5.732656615548861745e-02
1.002609975891213256e-01
7.584219245247852959e-02
3.404607228964781629e-02
7.489012109912379644e-02
6.390662874782010450e-02
6.929685073258977368e-02
1.324976754248441135e-01
1.068563449415111666e-01
1.190194054648902183e-01
1.374391379350964892e-01
1.275457342293602192e-01
1.328408446612357463e-01
1.360786225519438619e-01
1.281588923309451011e-01
1.344866966586994450e-01
1.140046119895909427e-01
1.318427963933344049e-01
1.581070922859976191e-01
1.607590626379709620e-01
1.397322688862972506e-01
1.606377165574377208e-01
1.604612993467145754e-01
2.121174427475566726e-01
1.790670054634289909e-01
1.717588267289690829e-01
1.568420193305249677e-01
1.582089788940371777e-01
1.507936163783568650e-01
2.137351962648341430e-01
1.641424100344877901e-01
1.681801346556978938e-01
1.335183150534917096e-01
1.795000284085269682e-01
1.465526168597786616e-01
1.479214592439803688e-01
2.155209500001105116e-01
1.903967662681615991e-01
1.702595750206258585e-01
2.107655183080333894e-01
1.701123908009017638e-01
1.364428870293988849e-01
1.929032365690836748e-01
1.863874283578021707e-01
1.359168257081300457e-01
1.408519480598639517e-01
1.408585981743442628e-01
2.042279811788146049e-01
1.414608248987162531e-01
1.503155240490284539e-01
1.483080437515274519e-01
1.608609614009015865e-01
2.195630251394978250e-01
2.738722453317643524e-01
2.443672488230877460e-01
2.419227074906032393e-01
3.751078074690104014e-01
3.598561115382988840e-01
5.095425502599751910e-01
6.053318546295742841e-01
6.585389537404102711e-01
8.103601392235383338e-01
9.053879073592363547e-01
9.606452006583684478e-01
1.087952290418261914e+00
1.204089692492063657e+00
1.310263156397085016e+00
1.324803017527204529e+00
1.371267454660441976e+00
1.368428860821968129e+00
1.399032046759338233e+00
1.359683741011479485e+00
1.327511434384483158e+00
1.222714302150319954e+00
1.130047352539151007e+00
1.048460540126327167e+00
9.500682886457065823e-01
8.573937926606325366e-01
7.589659021878383260e-01
6.530517966070039648e-01
5.345288223379179859e-01
4.923213830976124195e-01
3.935835713396627633e-01
3.689277679171186208e-01
2.873611256776468226e-01
1.673380020793639456e-01
1.469348091547337254e-01
2.112092533175448927e-01
1.638111323709474654e-01
1.340643054936324907e-01
1.855383419727539840e-01
5.213741545849746167e-02
8.753746838998698043e-02
1.222717457218004677e-01
1.078178260048913983e-01
1.473062833529840132e-01
1.827478800043290386e-01
1.510131603388769617e-01
7.171923982634778594e-02
1.867263480278420484e-01
1.405069364110769770e-01
1.276455037374324142e-01
9.897282090719519698e-02
1.607303333146523072e-01
1.170096068274089907e-01
1.487592566922661674e-01
1.356652661086744927e-01
1.744438445050640885e-01
1.807070823553461880e-01
1.629613940599723421e-01
1.974789094069620554e-01
2.274444370989373854e-01
2.142355624964709104e-01
2.979094346207697974e-01
2.166403762222943730e-01
2.331155481044767108e-01
2.780599177651854603e-01
2.221418467140812980e-01
2.747114570334783235e-01
2.290062492693950291e-01
2.453964509788350845e-01
2.791521979769425732e-01
2.516715789227752520e-01
2.648593378545335275e-01
2.228693952856173055e-01
3.357099837454075031e-01
3.101683751069967410e-01
3.027033729494786884e-01
2.754244063174041135e-01
2.390024365850129118e-01
3.077989723840797165e-01
3.077297371371034984e-01
2.390939162856482725e-01
2.520292180544194682e-01
2.933668994559433529e-01
3.030100474611901462e-01
2.875414952824597581e-01
2.073886606313017633e-01
2.914037885559239149e-01
2.790769250314504291e-01
2.364586184589921314e-01
2.759403461460573359e-01
2.515705004648613463e-01
2.022691830961586557e-01
2.619899710289396721e-01
2.837017831263073386e-01
2.853003787177589845e-01
2.684318752583431666e-01
2.286294441282708534e-01
2.107986381555669309e-01
1.883674488345183640e-01
1.511737275763102295e-01
2.146573409259415754e-01
2.087515004907659621e-01
1.845110527046449622e-01
2.271731893603116392e-01
2.154224132464940267e-01
1.940501644220688215e-01
1.488270484878018995e-01
2.179873539931067861e-01
1.985418461271695745e-01
1.097102223322278247e-01
1.525418816542185030e-01
1.564689578846598095e-01
1.008872948859494689e-01
1.506300474433404368e-01
1.575045411392535788e-01
9.485219084526777533e-02
1.020877228745944165e-01
1.234576867145337764e-01
1.520527863156554138e-01
1.145211772113131077e-01
7.682162364122901987e-02
7.645555687172492232e-02
9.583826845074322476e-02
8.448803146384911700e-02
7.849537614460050383e-02
3.695437020543631407e-02
7.894207734959558798e-02
8.508576358206507151e-02
4.933241721616068998e-02
8.061129715008630292e-02
9.214398739848443654e-02
8.331057489024251694e-02
9.929257956635445526e-02
2.261063544898671979e-02
7.117116885561812489e-02
1.025614702882250706e-01
9.354554118633187643e-02
-1.497788381867412588e-02
3.470481445876665016e-02
5.505552347851554174e-02
-1.982990960820412568e-02
5.690781433710535159e-02
-5.499574037123942938e-03
3.220266029171505590e-02
2.466055254020489002e-02
2.533973391313089352e-02
3.290007700737852814e-02
-2.036023425053210684e-02
5.558343433552558055e-02
4.768990273146035686e-02
5.302346332199808082e-02
7.372171514012958171e-02
6.977622836113434035e-02
3.937726820056032528e-02
5.041221575704651903e-02
7.045985227740642065e-02
6.667434934436194949e-03
5.005742686888134396e-02
5.655124182905743591e-03
9.643489041932240546e-04
1.738627678985533651e-02
3.534076059880412318e-02
4.968685306493818288e-02
9.564798594891964906e-03
7.601668683148488093e-02
4.201808751584988622e-02
2.745896812034251747e-02
2.320618636005820912e-02
2.240177412181675043e-02
2.841683430886199346e-03
1.524389398299914877e-03
2.638425972963284391e-02
2.783635677099122532e-02
5.560977674270753401e-02
9.903848415013512263e-02
4.657168273736753128e-02
4.134911017464357880e-03
2.320411252800525653e-02
9.376769095662482179e-02
9.948071810817506189e-02
4.023719362627734691e-02
8.723457280178834039e-02
7.057074055412890234e-02
5.166654070007314914e-02
4.772708340263530358e-02
7.455736173889382368e-02
7.276702257068759505e-02
6.751646502756537827e-03
2.103614208828150783e-02
5.049055002243382079e-02
3.782944122343850912e-02
1.428120146934186083e-02
1.562496437412543709e-03
4.036962373604460752e-02
3.544605986588843238e-02
8.898444619603132488e-02
9.663417652257849655e-02
6.480584818317677853e-02
9.338203860398397449e-02
6.496126164224695632e-02
1.413700517140743518e-01
1.027703222412253287e-01
1.213196768112451140e-01
1.041242157026767978e-01
1.332773201184563328e-01
1.486349584423050929e-01
7.627942847277331684e-02
1.400578431515917266e-01
1.333566072648462164e-01
9.596247992722907461e-02
1.358385740476493186e-01
1.205538560362442446e-01
1.767600247419385817e-01
1.332043592960599487e-01
1.880827534744955454e-01
1.477083794237003256e-01
1.375908617085366270e-01
1.388310407454745599e-01
2.165136532823401794e-01
1.829014788812134418e-01
1.666848265152165998e-01
2.141002609372786580e-01
2.362282436867446378e-01
1.554748387300062817e-01
2.139591699398137314e-01
1.647651974253263041e-01
1.745349479350672695e-01
1.476653274538561045e-01
1.729848168915439632e-01
1.792705412983778834e-01
1.756202215143931322e-01
1.230782977944107626e-01
1.882786622603753734e-01
2.025647579377342078e-01
1.566312809997196798e-01
1.654023272746602546e-01
8.328543664350152032e-02
1.050508799036966590e-01
1.774466484506524999e-01
1.738658491997159272e-01
1.534207502957738445e-01
1.493720740821684045e-01
1.853720830613894144e-01
2.273303325477777914e-01
2.818006955523066348e-01
2.915270648591051228e-01
3.093895602436138592e-01
4.340036655331207527e-01
4.628725258204203219e-01
6.430031000315151735e-01
7.133885315088908108e-01
8.366920729347259167e-01
9.276613865153324756e-01
1.024011987942530233e+00
1.072352783692494649e+00
1.176639309564602831e+00
1.242061458511156458e+00
1.308250574696951496e+00
1.356356539293539498e+00
1.346603842616283409e+00
1.321529503374146319e+00
1.270384980994253787e+00
1.236270935841049967e+00
1.210244035829996401e+00
1.108404797684561238e+00
1.024747835963810472e+00
8.931966844883507672e-01
7.843663975791284049e-01
7.026397937071969801e-01
5.963742693955774721e-01
5.044024308101705545e-01
4.099904447732693469e-01
3.516233486966413024e-01
2.347724856089814516e-01
2.345538683194273721e-01
1.668007178887306874e-01
1.539745454135891256e-01
1.029692622858405238e-01
5.969859768053537713e-02
6.265350726830012928e-02
1.047346364628059939e-01
6.889151214445515814e-02
7.774632683157542412e-02
8.383684051908177337e-02
4.521094630265001801e-02
2.652498700210974281e-02
8.357609869919119250e-02
7.498483703636607545e-02
1.098390197853281458e-01
8.764265573419284527e-02
1.677907452320377690e-02
1.318570366103282154e-01
1.339077034158643043e-01
9.778426000430183451e-02
1.232124239087765555e-01
1.124073158545911832e-01
1.360449165512521152e-01
1.621718677971113742e-01
1.505863722454918729e-01
1.720476894421463510e-01
1.256079844508151411e-01
1.299896880889317985e-01
2.055295390392767596e-01
1.859856207847370713e-01
1.874556036258074321e-01
2.481171660877571628e-01
2.471062417649219078e-01
2.165982520178333648e-01
1.948089326551991907e-01
2.196359211766195918e-01
1.998822663117516274e-01
2.305176049088616952e-01
2.416509442348916126e-01
2.782880646287170801e-01
2.339901893870947602e-01
2.471533823957609288e-01
2.476274744257467575e-01
2.748626663517662050e-01
1.948476288712217563e-01
2.906127625477697429e-01
2.692093222359072113e-01
2.236182308235653837e-01
2.223677023835849420e-01
2.114437846410824884e-01
2.709151545205032985e-01
2.796102152962074983e-01
2.568135949799870699e-01
2.732345608937560288e-01
2.617791954409632860e-01
1.955904564380976929e-01
1.957483607518163138e-01
2.346311405808779171e-01
1.781699295462514931e-01
1.874896480542427302e-01
2.561523366828550308e-01
2.306357976650602326e-01
1.170670611700440344e-01
1.603399611797509394e-01
1.747507232901769625e-01
1.422273107293325622e-01
1.982931769962111013e-01
1.182773732330156952e-01
1.615376062491354348e-01
1.508217295185005080e-01
1.908201059740196881e-01
1.139950884064317993e-01
8.069716655877283429e-02
1.250773759572650357e-01
8.508326512486685811e-02
1.330112025870014425e-01
7.869749436943664078e-02
1.179655274265005577e-01
1.010677886308238849e-01
9.484327330012128077e-02
1.371976750167669748e-02
1.027805492040288066e-01
7.569902074510163892e-02
8.347008604076196214e-02
4.318881173406173557e-02
4.291702277180849817e-02
3.452009706484125695e-02
3.908520372935432585e-02
9.283084620338565712e-03
2.218655656168636719e-02
3.546965957243967960e-02
3.955204959033108494e-03
2.816189246967559096e-02
1.103551965812246682e-01
1.874424855703794857e-02
4.932812304897708083e-02
8.413618284581428353e-02
5.639270020889099178e-02
5.138835872333227806e-02
2.294650842468232491e-02
-1.450488227766977278e-02
3.500793896400735544e-02
-1.955745491053803575e-02
7.050721589368402764e-02
2.118718513125283920e-02
-5.623409324429849698e-02
-1.770520690166645442e-03
1.263573480746631346e-02
-2.863953270069977131e-02
6.652912185345454671e-03
-3.056278712055313096e-02
8.546769417129703242e-03
-4.171837258077452926e-02
1.128279748368539621e-02
-1.605383754552123024e-02
-2.614192634527316705e-02
-6.609408045128811748e-02
-1.453964363382325743e-02
-3.972574734224797177e-02
-3.523758163681135758e-02
-5.555302187985133172e-02
-9.279628144475870338e-03
-6.112169272360419570e-03
-1.342714457503939307e-03
-4.019020314452745324e-02
-2.412875848949617638e-02
-2.544617266186829929e-02
-3.110326695627309290e-04
-3.659678053914500184e-02
-5.241771760424975002e-02
-1.808241072387285070e-02
-5.127207792368561334e-02
-4.467947714127643022e-02
2.402907009618806058e-02
-5.222655645889744819e-02
-2.368026573217042741e-02
-1.823286097619475354e-02
-3.845954180634118813e-02
-7.971327273250646342e-03
-4.406825669645292320e-02
-2.159926742243241382e-02
-3.455945608342030073e-02
1.667252687786101306e-02
7.509380222459036830e-03
-3.967448037637311131e-02
-1.353021352834860719e-02
-4.125354269385252126e-02
-4.435724209271978830e-02
7.896428128785597245e-04
2.681459647640924149e-03
-4.386815417925102323e-02
2.024540693408398428e-04
-5.964351589285611654e-02
1.046460029012900167e-02
6.429603189018303494e-03
-2.465868476461191561e-02
-1.939436072632826080e-02
-8.728339369265005615e-03
-2.311552583134317967e-02
3.150393739879650545e-02
3.789662576349635964e-02
4.170102891066715389e-05
1.633841510370409936e-02
6.263647318907206857e-03
1.811495611664262068e-02
5.309840117494232792e-03
-1.586363908325455138e-02
8.946598717878151419e-02
9.665965835477127732e-02
7.782042651790871401e-02
8.642793132013022739e-02
2.621280503237108372e-02
-2.504969658746131200e-02
4.014513001952129539e-02
2.696046415251790104e-02
7.530020281790589243e-02
4.638224945211351369e-02
9.810416415489017772e-02
1.240709650125134261e-01
3.003879792886832850e-02
6.034170095387557387e-02
5.987207003728629851e-02
2.424078556051161015e-02
1.275948052510842978e-01
7.564562055878407132e-02
1.230244844453559916e-01
7.843600082068341584e-02
8.844008682621173900e-02
1.110207230515539850e-01
1.149274826122617665e-01
1.095345268062921512e-01
1.180538987269098283e-01
1.375973160267736917e-01
1.293285187401147229e-01
1.052628998277516381e-01
1.002628587969690011e-01
1.065797920127475595e-01
1.004609993293546222e-01
7.496299503765310734e-02
1.276393450476054070e-01
8.920812329248459238e-02
8.346859463182187966e-02
4.084822925787941900e-02
4.112030353795870924e-02
3.392280697615369239e-02
7.362635185125845916e-02
7.934239057423109198e-02
6.261028721985953394e-02
6.270402799101612579e-02
1.056858890742272405e-01
1.631675205739261947e-01
1.464671423624767099e-01
2.045833658249912868e-01
2.455676260611222017e-01
2.915192849005478481e-01
3.738008407897908114e-01
5.052785496401831500e-01
5.443082555549897394e-01
6.687573769119854461e-01
7.557872748745977365e-01
8.792422075109430635e-01
9.310788106189925584e-01
1.074749140839388106e+00
1.166683950826285621e+00
1.201846368828824785e+00
1.239262680880353518e+00
1.372351893805423551e+00
1.340815704256807628e+00
1.321870086851931969e+00
1.295885462253444809e+00
1.243901240955203491e+00
1.106509006783260141e+00
1.055995285006444018e+00
9.101382701823749199e-01
8.092877265818066990e-01
7.210858931650893089e-01
5.790290267778087641e-01
5.726782412091514507e-01
4.177404510801764337e-01
3.355525923749866912e-01
2.927822469760100743e-01
2.024532083360205403e-01
1.510896968527966067e-01
1.065993566145394811e-01
1.093119957414280807e-01
3.983883104031583217e-02
2.826714985763650878e-02
2.724202073947838698e-02
2.765650825327176099e-02
2.708158784329799118e-02
3.423201566678565899e-03
6.066005039201467774e-03
4.841640227930250895e-02
4.274390154979959555e-02
5.630788501744828090e-02
2.950647295667357950e-02
5.812658967430411189e-02
2.414353343469469171e-02
4.763667133764591666e-02
8.344753204449337214e-02
6.603116053060539836e-02
9.787536887828759968e-02
6.778783960966576483e-02
7.904748874689714044e-02
1.216431187475824072e-01
3.372687448561464962e-02
1.331961629817829951e-01
1.168362357866691292e-01
1.194894885792952138e-01
6.986024701788758062e-02
1.057031733443827837e-01
1.591211350140397662e-01
1.510755564619245817e-01
1.292827308042326651e-01
1.657949885604466100e-01
1.436650659251554885e-01
1.494125020208952326e-01
2.504375022844374521e-01
1.575576615548767156e-01
9.348025872626089527e-02
1.646215142456484148e-01
1.381219439216084810e-01
1.655959857826881931e-01
1.815411641061287495e-01
1.590368259635850379e-01
2.484481725370943916e-01
1.925979126882796100e-01
2.145459221974740094e-01
1.727452221571899593e-01
1.895005759399253087e-01
2.014765823268804823e-01
1.796329439535951089e-01
2.195560655451665455e-01
1.791682615367076736e-01
1.807773545067025145e-01
2.309352808560969084e-01
2.315418928942891141e-01
2.347558033407738387e-01
2.303656186666099004e-01
1.671951272392667165e-01
1.867249615180640032e-01
1.584005549711538507e-01
1.870090135035219203e-01
2.137560579905596336e-01
1.760289934468580175e-01
1.939268637758464475e-01
1.176888225843609470e-01
1.252696372280983905e-01
1.565922977359310575e-01
1.351125307071486537e-01
6.688645197616455151e-02
1.585899443329544523e-01
9.485938884726885512e-02
6.779493555082771739e-02
6.727108959598895876e-02
8.642721396664790334e-02
6.518405430300815151e-02
1.000862428661597192e-01
8.453301223850762103e-02
4.529294246843761085e-02
3.441904168004247810e-02
1.116704342482529311e-01
4.362176609756146517e-02
7.401127848731790804e-02
4.833286798970613807e-02
5.048448336997293784e-02
-1.278438158714213790e-02
4.358028016819434636e-03
2.680106752685382232e-02
-3.512632747863975169e-02
-1.245421459623565624e-02
-6.864736181680305971e-03
-3.133772808037428581e-02
-5.269183470431183791e-02
1.551273329353275443e-02
-1.226260505942102647e-02
4.548257391782686149e-02
-5.163619235558448983e-03
-1.481588567317990851e-02
-3.132240000277626557e-02
-4.316648471845863089e-02
1.403521382753525337e-02
-1.483753194842083595e-02
-3.124695708902347144e-02
-1.810478654538850291e-02
-2.379601546423001923e-02
-4.434154054314470850e-02
-4.661600960275383287e-02
-6.231715129635423400e-02
-3.352688350457947580e-02
-3.953616666269572227e-02
-1.262029154571837064e-01
-6.745274766228792629e-02
4.816753500178003189e-04
-7.025500863114343686e-02
-1.612356349893726004e-02
-6.860077166166146656e-02
-1.088921860013668946e-02
-4.901670793987381036e-02
-4.082194124943454294e-02
-1.260060625399421486e-02
-7.073217899569927969e-02
-1.884059429358603266e-02
-5.500592400491959716e-02
-1.343437830098917485e-02
-8.715878532954279834e-02
-2.652747316695281202e-02
-5.590376581174043291e-02
-5.896488740234146625e-02
-3.250296920091658853e-02
-8.976889785777825148e-02
-5.487466020875781531e-02
-1.160678667801727515e-02
-4.484693838568671459e-02
-5.273174326760136921e-02
-3.622435145142460788e-03
-5.953306159798398001e-02
-2.840063982464278297e-02
-3.997517844823510885e-02
-5.488034512831758971e-03
-2.528580662529762713e-02
-3.971527774478655903e-02
-9.432416021466968892e-02
-4.894745968419652454e-02
5.722954050966753969e-03
3.828461914866715388e-03
-6.137038574581298034e-02
-4.171019342584409567e-02
-8.989623472827554251e-02
-2.498557574056758934e-02
-7.694943266354480060e-02
-4.750590320877143280e-02
-1.851151385349131956e-02
-5.356573879407844352e-02
-3.764159872663948303e-02
-6.036567432109479769e-03
-3.293525876870068148e-03
-5.281573109256485626e-02
-6.853504046176038533e-02
-4.077053516529917376e-02
-5.125677763985080071e-02
-7.418630642022205901e-02
3.935949631849802732e-03
-6.470416166534549707e-02
-1.718668495830437404e-02
-1.170398765996946699e-02
-4.432087840777250431e-02
-9.146299141310751390e-03
2.224706460680823256e-02
7.936576742561138320e-03
-1.655316363272087143e-02
4.111991024185866761e-02
1.230483319119901608e-02
4.434584082109512687e-02
4.101029626352514779e-02
4.306578948085722919e-02
3.269519846247239542e-02
3.492722964429714749e-02
4.440709232663538064e-02
4.170994465805239609e-02
1.268247774323013055e-01
7.479815716510115897e-02
5.593224397406704185e-02
9.712694265638724400e-02
1.268035239318200669e-01
6.963162769906165728e-02
1.137515837375293326e-01
1.005926523912098192e-01
4.041487703737973308e-02
6.354239890017145120e-02
8.261353118673661622e-02
8.494560234971296198e-02
7.524765397462883365e-02
9.599509105700573808e-02
1.274529501372468898e-01
7.418920871221923452e-02
1.288277262402167944e-01
1.252695484176011564e-01
8.365248621459035749e-02
8.287171088667340257e-02
1.064399243993376515e-01
5.013558507640333839e-02
2.615877202689150666e-02
1.460070147315978284e-02
6.567724564306243185e-02
3.281937209559626645e-02
-2.350036013197331214e-02
1.071025590454262044e-01
1.306674743630122093e-01
5.580416225179148787e-02
1.626204927543759837e-01
1.035840716606952067e-01
1.538471130250081420e-01
1.734022540466939044e-01
1.970180400820535083e-01
2.216335797740302538e-01
3.185442359522911437e-01
3.435887783474701473e-01
4.171224151147365777e-01
5.346122492161058393e-01
6.793883264814318812e-01
7.689532285343237961e-01
8.482942810699783953e-01
9.957846707509171447e-01
1.093524509853959215e+00
1.126302321466844170e+00
1.206525831838947349e+00
1.276864257745365716e+00
1.298912087047837005e+00
1.270280612254812480e+00
1.293944521570440820e+00
1.239948000716833088e+00
1.183088620726434836e+00
1.049136377004227905e+00
1.034080390968253882e+00
9.160833916150646905e-01
8.368087182423235015e-01
7.165524018458444555e-01
6.284097729810316224e-01
4.948604122794231785e-01
3.656508458911392756e-01
3.541672690342857477e-01
2.493875712922320464e-01
2.145363295715388696e-01
1.290116879046668552e-01
1.266482267588828203e-01
4.439068578386677622e-02
9.366176266340903167e-02
4.926584219928285130e-02
5.681590172643363745e-02
1.393703643684608695e-03
2.375539964773991375e-02
4.176880663674741034e-02
4.055017207684730868e-02
3.679083264423068517e-02
1.189879017524102245e-02
3.347936773105820302e-02
3.101928855617004654e-02
-5.192826413808401820e-04
3.072163197543378160e-02
4.589138736689642173e-02
4.610493037687782986e-02
6.698184776024282416e-02
8.506637739015701638e-02
8.125221762591573749e-02
7.602256691669710686e-02
1.207832719717998327e-01
6.858261857949828066e-02
8.605629213576881931e-02
8.437661157759997199e-02
1.375044877229796292e-01
1.439302536025008350e-01
1.486441769518028200e-01
1.951858221391555570e-01
1.281717085068050377e-01
1.574383636704366207e-01
1.781341247131731920e-01
1.590010480150206296e-01
1.918104147177990548e-01
2.056997508866222901e-01
2.070106481154501687e-01
2.376702084354871125e-01
2.438977823521932820e-01
2.141959491942561911e-01
1.819107556116474345e-01
3.032783953050490200e-01
1.748041222132935002e-01
2.081501427225528333e-01
2.388754029543075363e-01
2.232677650324258745e-01
2.227374757626928159e-01
2.290364786348659809e-01
2.399737531907807642e-01
1.827309963446173136e-01
2.393982194205933611e-01
2.184793210989773860e-01
2.345433465961909714e-01
2.104849869928698547e-01
1.746399348668468687e-01
2.215028188301754741e-01
1.593344167812166534e-01
2.109192870328908398e-01
2.663622996552652000e-01
1.682011199350001707e-01
1.536104179404516046e-01
1.811452714807676723e-01
1.602100032696675558e-01
1.730618947695516385e-01
1.391983829107190651e-01
1.190641951900903717e-01
5.892788789814935174e-02
1.048529958239554360e-01
1.377075935936867834e-01
1.545335438080028823e-01
1.370706508373430166e-01
1.331569489857041544e-01
1.281497931085164854e-01
8.076871270187346852e-02
3.535759358772545824e-02
8.268920097535617519e-02
3.327036468482580389e-02
8.126069363229759812e-02
6.602072679100948194e-02
1.240566143109643193e-01
9.553155212000404017e-02
6.812534903615641291e-02
3.085588445439147592e-02
-3.494812372284959723e-04
1.002541105706575841e-01
3.055928509123303702e-02
4.133140596555080759e-02
2.538666451149713260e-03
7.291396399701516318e-02
-8.904008329519711579e-03
3.319600500028847129e-03
2.376533775241313276e-02
3.926988213220194285e-02
-3.681539210982444355e-03
6.154774142726249231e-03
-1.781720464362259934e-02
-2.908909248201200365e-03
1.310331610349162526e-02
4.081689756477269171e-02
-2.125260196943954544e-03
-4.273125773296659879e-02
4.203420920651544657e-02
1.164702116490216530e-02
2.118398398561208845e-03
4.295343846165503021e-02
3.444666487322842890e-02
-4.466711493716571391e-02
-1.931114169353496945e-02
-5.666286292476446773e-02
-1.681484220209487901e-02
-7.590733818685736073e-03
-6.857782378768681464e-02
-1.994275862177389766e-02
-3.090566196472982474e-02
1.618403026445600426e-02
3.328267457227900711e-02
1.736324386255030244e-02
-2.419202804731771655e-02
7.661394767436879860e-03
-2.926009356371358713e-02
-4.270631294084621665e-02
-4.138352574506753978e-02
1.608561469400066751e-02
3.562884477036827591e-02
-2.010887901964394237e-02
3.706273141797427478e-03
-3.466444459667675226e-02
9.815550137311748052e-03
-6.399887830699738100e-02
1.924367704732571349e-02
2.124372705454169799e-02
-3.445392346962049268e-02
2.655948774109643390e-02
-1.058982546610378328e-01
-2.427102739974915796e-02
1.326807271018538500e-02
-1.748139811785591816e-02
-6.560312597177883620e-02
-8.094126696963884274e-03
-3.755668389326103501e-02
2.722458846102157604e-02
-6.484957705792707139e-02
-1.267167099272253905e-02
-5.715157145799786703e-02
-8.252231989025074141e-03
-4.374196517456544614e-02
-1.431017684148673530e-02
-2.590801482621870461e-02
-2.477370700785188826e-02
-3.381755612071924572e-03
1.600456368378861544e-02
-1.125489931801086294e-03
-7.791684418114385238e-03
3.391996496043708093e-02
-2.552775679198510811e-02
1.832577696817629803e-02
-5.935189088743566752e-03
7.208777356351001031e-02
-1.595921452555758291e-02
-1.952367067656204241e-02
1.092823287235276421e-02
1.090954067592722100e-02
2.667558007082988791e-02
2.575388475165674151e-02
2.677696815166762112e-02
7.447223951516729334e-02
7.924259721664068945e-02
4.514863521237791333e-02
4.638355610656671318e-02
5.903210946074174265e-02
7.467909419876653243e-02
1.698519753542169011e-02
1.143623628521960450e-01
1.065548104903725202e-01
7.602888213298840403e-02
7.021987336654578193e-02
6.081613165507262359e-02
1.208086624533483144e-01
1.663447440774515895e-01
3.941108128250921105e-02
1.195422115935148299e-01
7.442945430867962953e-02
1.171022772604758955e-01
1.221637560816268564e-01
1.805967783454845155e-01
1.473925988324203962e-01
1.679216915071628236e-01
1.305789610744903517e-01
1.554875385452044456e-01
1.538885504992437148e-01
2.076883784913260700e-01
1.436672705550085249e-01
1.531524809446185853e-01
1.787674425415684831e-01
1.207739524705773171e-01
9.267816532479374037e-02
1.228336965459357055e-01
1.502656562412240937e-01
1.168269529734927703e-01
1.272127080731556559e-01
1.021142066132938592e-01
1.098935302595671071e-01
7.414550993203758433e-02
1.299983490339809145e-01
1.284456433380933849e-01
1.567878591233750063e-01
8.161614629545037303e-02
1.817161979884552303e-01
1.218297487622736208e-01
9.261868166016586079e-02
2.134546069954728620e-01
2.480922520771390305e-01
2.436403579679743969e-01
2.798006922401424235e-01
2.948095898924150138e-01
4.107313295243782414e-01
5.125141861906085117e-01
6.553650155712891223e-01
7.437782749583788933e-01
8.450228128161860752e-01
9.320444314416080900e-01
1.046497828905833538e+00
1.162415324831242325e+00
1.239573170251635714e+00
1.296370466627338347e+00
1.362923107552225011e+00
1.319054238458233552e+00
1.322760586372059954e+00
1.356563421920198298e+00
1.270995316668332542e+00
1.212186824484264180e+00
1.116389210028095436e+00
1.027643483553319026e+00
9.223708806549342221e-01
8.829112136123918875e-01
7.324840033451777144e-01
6.371979241739577082e-01
4.853708766324349999e-01
4.187783576486658332e-01
3.418245934862285118e-01
3.120767184287633889e-01
2.204481842335293262e-01
2.124130490139193861e-01
1.110929951977605024e-01
1.022913211153367308e-01
6.641179773429851940e-02
9.632564997037755539e-02
5.554298448623697093e-02
7.534037462397263907e-02
3.453971832614656512e-02
3.036343060109623904e-02
5.733386248666813567e-02
1.288401394146636292e-01
4.065846662239434167e-02
8.190752775115964224e-02
1.067861360515173080e-01
1.042120622123870327e-01
8.045126246062682396e-02
8.013844167893269255e-02
1.179639463965821561e-01
1.565129794360011484e-01
1.175500657004454608e-01
1.466400701892775493e-01
1.423955980413173783e-01
1.974835076682935342e-01
1.250143103198729233e-01
1.964634670444014852e-01
1.390266885597002955e-01
1.686563358197115114e-01
2.176074708388978651e-01
2.188720667191963454e-01
1.605567778767306997e-01
2.065107400655035730e-01
2.447920896045723271e-01
2.354651611592868954e-01
1.894895721058363347e-01
2.227076927512227078e-01
2.498299085760086191e-01
2.337589431217876323e-01
2.109153765911142286e-01
2.544662066341923379e-01
3.140563295583339021e-01
2.607452367256359871e-01
2.104220622296529286e-01
2.265972518932418411e-01
2.961115460839406355e-01
2.828127044613006902e-01
2.820189728299609677e-01
2.871069963377144152e-01
3.218921559647178743e-01
2.909860609546932042e-01
2.635063948861083860e-01
2.645034333859848652e-01
2.817309066107029913e-01
2.058166393815062944e-01
3.268084302040183409e-01
2.531050512091863602e-01
2.269875624646237600e-01
2.541935633796682525e-01
2.335268846431890200e-01
3.064959396399229985e-01
2.432076919004485527e-01
2.462436778789013903e-01
2.537368412738976731e-01
2.083676029599733082e-01
2.176906943105242909e-01
2.226165124881523405e-01
2.246300829818062839e-01
1.671426879493508877e-01
1.726473527491878268e-01
1.034054937417605846e-01
1.639308451725942084e-01
1.813232456147177152e-01
1.996368323585482329e-01
1.826261308134117245e-01
1.322332734015686240e-01
1.375426746507562303e-01
1.695219812976704876e-01
1.270839857405287598e-01
1.244608977137058453e-01
1.652382491139963716e-01
1.438517602343801216e-01
8.566432161425573122e-02
9.244772050782074091e-02
1.555917244711309266e-01
1.105414389749021231e-01
1.328236884786591632e-01
5.650147677426681225e-02
1.009424008735606976e-01
1.019351127617795921e-01
1.155782872977564879e-01
1.135482411497046734e-01
5.985641268924969671e-02
7.833836623396392418e-02
5.926880639562451258e-02
8.299131905033124701e-02
1.616586605059279480e-02
3.255959708310662837e-05
6.478509522586536895e-02
5.393826441210698014e-02
6.059949423458577122e-02
4.111358535552407656e-02
8.176190852979967061e-02
6.326646665049712182e-02
3.244646199816790533e-02
4.112869249620376699e-02
-1.034141397159227954e-02
1.121411429034775142e-01
3.484707969159356322e-02
6.037624000339997937e-02
4.949320148378179296e-02
4.003661988216861145e-02
4.630782477257414098e-02
-2.603479549244273189e-02
5.944628391513058496e-02
2.419742230287466947e-02
6.068219388185323859e-02
5.759534532947216401e-02
3.593601031100763371e-02
7.477628553689391611e-02
9.535240551004064979e-02
1.376092459740787047e-02
2.240380136503460767e-02
-1.640131501593348334e-02
3.602972907627560728e-02
4.783343021567752762e-02
1.273625688262993577e-02
3.169235336359306487e-02
9.973861759945426564e-02
4.859882447620323537e-02
3.576285916535894283e-02
5.049464251609294546e-02
4.960895832265097005e-02
-2.311492525588217106e-02
3.434458493129593365e-02
2.640544323856051229e-02
7.782243500303484551e-02
3.071773987420552826e-02
9.082752914162112168e-02
6.653562103215401868e-02
8.213821356050410305e-02
1.839024135928853804e-02
4.598344142786978811e-02
9.946498257392523412e-02
-3.798169866519880700e-03
6.003532765722011111e-02
7.675806607201547671e-02
3.946180398939053147e-02
5.234775462382275368e-02
8.510439416842013882e-02
9.611939725632114018e-02
-1.214274386795687055e-03
8.174198413818277442e-02
1.368907587527127406e-02
6.930398350782986105e-02
2.205724157943220187e-03
6.969454187060117323e-03
1.234747360880450451e-01
8.304371834317128553e-02
-6.878468803418504030e-03
2.892039138639849322e-02
3.693854096232110362e-02
5.397683859632586983e-02
4.312173427776079537e-02
3.053474852853665239e-02
5.877563348563121653e-02
7.573484658087525911e-02
5.724705969479251810e-02
1.181076413859180885e-01
6.241061141308214960e-02
1.164359823474270667e-01
1.174406401035379688e-01
9.676218299387653876e-02
9.954584679737932262e-02
1.536475453227043042e-01
1.056320591836795442e-01
1.681276673570024083e-01
1.429530035812144884e-01
1.864485381957398102e-01
1.082355790630071535e-01
1.559491650583109679e-01
1.448075659594224573e-01
2.199651607514543639e-01
1.818417058460971569e-01
1.646717472971263030e-01
1.508366644796423628e-01
1.604296506757220131e-01
2.037552166539760568e-01
2.131454976449360939e-01
2.442335559606375328e-01
1.968483678910570300e-01
1.359641566316142358e-01
2.079772983631483774e-01
2.098666016135528889e-01
1.801519271328534955e-01
2.092490235650574792e-01
1.931627075926890258e-01
2.020960994413044665e-01
1.391876817815365930e-01
1.900280555169573671e-01
1.299273128963101820e-01
1.372672449215430468e-01
1.666646204314081725e-01
1.424205869934824231e-01
1.392828396762242626e-01
1.563011349629076507e-01
1.529849293602617566e-01
1.108640122870564321e-01
1.524363430236390371e-01
1.950194760179388975e-01
1.899947389905336514e-01
2.638586043579333462e-01
2.446589577164272333e-01
3.124363411718831252e-01
2.715448402188708199e-01
3.641753303379435258e-01
4.001764534234872883e-01
4.876654425694330608e-01
6.509237034497346031e-01
6.418077034327224206e-01
8.259447595829600974e-01
9.175094648679286147e-01
1.027951344455596994e+00
1.098944138837284479e+00
1.242075760335263013e+00
1.283641829601772422e+00
1.356972008286679632e+00
1.319897532446363542e+00
1.364427302891183746e+00
1.381432660566481063e+00
1.382931835202687143e+00
1.277633985001796812e+00
1.194512266870690009e+00
1.164044678741047889e+00
1.035608650792304797e+00
9.686495731916171525e-01
8.435878762931546815e-01
7.653744421565708000e-01
6.016461954891293429e-01
5.336414647008632661e-01
4.552214487747595073e-01
4.177660599459798729e-01
3.095630461789959931e-01
2.712340122471573745e-01
1.950774461984106645e-01
2.078803317307491572e-01
1.850155706300289638e-01
1.419260650131722590e-01
1.128045018402543676e-01
1.043930022300723764e-01
1.076590134580158453e-01
1.301894672515431506e-01
1.035330245162085355e-01
1.500598047316361039e-01
1.131067155431255272e-01
8.736343729780610134e-02
1.775913991309782392e-01
1.095406336283417104e-01
1.081032267845093570e-01
1.289671949541549845e-01
1.817304994100192583e-01
1.800605700437513945e-01
1.750989903216718380e-01
1.775793821644671422e-01
1.815151954995108396e-01
1.870179059337475636e-01
1.978299816480653672e-01
1.801538268716155744e-01
1.731124845321321271e-01
2.273139175107005694e-01
1.805470382942318819e-01
2.182260010774016989e-01
2.045165733187144785e-01
2.069750922518202307e-01
2.562878121049442237e-01
2.519009799842631403e-01
2.860617835647518703e-01
2.441723493923195487e-01
2.762149491925075528e-01
2.429409562221055141e-01
2.797744147293540484e-01
2.411368194532550469e-01
2.564690776739186884e-01
2.958798098769688245e-01
2.374310871809623413e-01
3.253139587568353308e-01
2.970715490128607583e-01
2.809918237061251878e-01
3.051158235515885053e-01
3.168710528414860339e-01
3.563979156438758511e-01
2.550416964677979514e-01
2.794547646803581809e-01
3.330067215353359478e-01
2.900466156309408072e-01
3.059892835388284826e-01
2.330449011021381023e-01
3.024904738345480792e-01
2.841843410076730359e-01
2.842329112316219764e-01
2.840995109939173369e-01
2.410971607427737917e-01
2.444334645026842445e-01
3.040570964345806204e-01
2.497345205878672980e-01
3.119458895182007363e-01
2.809784527938666288e-01
2.443081285345561626e-01
2.353967088006236053e-01
2.243394558135959060e-01
2.118415449035110365e-01
2.069272759520733307e-01
2.775638974308932694e-01
1.987162739949157042e-01
2.291293683689245297e-01
1.763331209989797144e-01
1.329991515248458434e-01
1.536237501124749494e-01
1.653163337236157049e-01
1.564553728019190404e-01
1.639906285684415987e-01
1.402986981537355238e-01
8.981458771724006029e-02
1.557968530677509844e-01
1.253806952941126651e-01
1.167380854511077537e-01
1.264359741264516335e-01
1.393561999083736958e-01
1.302514682242987554e-01
1.091135689947944215e-01
1.333277364679067156e-01
1.162642973394441281e-01
6.709398097242771919e-02
7.344448279726019380e-02
7.897789023346520054e-02
1.373470022210973585e-01
8.322403009526102569e-02
4.322933954832118564e-02
1.020354076962197709e-01
5.371946477468745457e-02
1.376164362367485183e-01
7.757496544862207966e-02
5.866776162053090327e-03
5.611946186505989420e-02
5.528631717490627151e-02
5.051725909467374293e-02
8.370363531188147743e-02
7.184238424718905613e-02
9.046312476210285891e-02
7.038745601366017124e-02
6.570407461661156856e-02
1.540061665423088019e-02
5.902326429791101420e-02
6.812644523096472726e-02
6.252476999222436604e-02
6.368275279890851792e-02
1.429833354843035309e-03
5.634362709703707311e-02
3.392071128546054332e-02
6.394053275777096534e-02
7.789670121156780369e-02
7.013009627845347149e-02
3.872792667988557425e-02
2.076904447748678662e-02
4.533484742692282798e-02
4.102957786594584044e-02
7.099688698006192955e-02
7.264537785912880685e-02
6.510699047811641105e-02
3.191269816460583220e-02
7.085329313458335609e-02
5.597464946656890289e-02
-2.521795740207444236e-03
1.144345976692937722e-02
8.070798822792803195e-03
2.463056194958342104e-02
6.634325502344098902e-02
8.105358346250776669e-02
3.459374013710769108e-02
4.002126531237845675e-02
2.570129952644856219e-02
4.848646795169302831e-02
2.350990963902811412e-02
5.084258986947330639e-02
7.870048326105830161e-02
3.634603215479808441e-02
3.026860367704443944e-02
4.080367437081895698e-02
3.152261179780989353e-02
5.184059000494976172e-02
7.036582199916147085e-02
1.019300171133993849e-02
4.634396626074545333e-03
2.425512587900219980e-02
5.867457698053708814e-02
6.334975124592850948e-02
9.873338764080870356e-02
6.795190924112132214e-02
4.587173467889177347e-02
1.812710378614041176e-02
5.418500446983211261e-02
6.073581428862907805e-02
5.340750049415282641e-02
5.250099094961752089e-02
7.352338255725167360e-02
7.076636574921560396e-02
1.158305566896955102e-01
5.712613982135360258e-02
8.977184702058688126e-02
7.123473691540219144e-02
7.549412608782954393e-02
9.241952050852647593e-02
1.357305543486393151e-01
1.276719751203868880e-01
7.248388340066727609e-02
1.195301829181554809e-01
6.630582686494559952e-02
1.127147188679858830e-01
1.607621494134927609e-01
1.207667713417007183e-01
1.248332653592650054e-01
2.035030058455542246e-01
1.658638583740253136e-01
1.899177987727701522e-01
2.001205559655933053e-01
1.650074120200279437e-01
1.997880206623774968e-01
1.729728990757564699e-01
1.740862764501060755e-01
1.924318386185489838e-01
2.107817400648899497e-01
1.791869243370936282e-01
2.044820542279414954e-01
1.569422247478268473e-01
1.951337460301490745e-01
1.269921937445133431e-01
1.855565395334413670e-01
1.336404510547622160e-01
2.042037349252891487e-01
1.649973781702835096e-01
1.618287554569840525e-01
1.679596812231752279e-01
1.445401166817100458e-01
1.393176068385957311e-01
1.427680230627522417e-01
1.127962515899865459e-01
8.838682083879043083e-02
1.220063983016221182e-01
1.208234465156390325e-01
8.430644063063619242e-02
1.550065530801316704e-01
1.450589971221633578e-01
1.883988925535868275e-01
1.887207545657197949e-01
2.079990363622624960e-01
2.556943762926527919e-01
2.537367695557555813e-01
3.458985459512651239e-01
4.516129364679621339e-01
5.729679758455620275e-01
5.729682060823044765e-01
7.114878907978943179e-01
7.847962799808243517e-01
9.199260826044913797e-01
1.013628758279584430e+00
1.062969821731532205e+00
1.195793217481462278e+00
1.275084619885408888e+00
1.323860577732903554e+00
1.315705618449773517e+00
1.376421340388309655e+00
1.360813449677278131e+00
1.333912984992090545e+00
1.299645062760574676e+00
1.189875200119012266e+00
1.126378227346046090e+00
1.026370167725664473e+00
8.841949198713454638e-01
7.563051916183476386e-01
7.020490474528976454e-01
5.975412080453754715e-01
4.936242010207014252e-01
4.351840915633861107e-01
3.625092241176878227e-01
2.713844619340630704e-01
2.744724918808396641e-01
1.741988924794665716e-01
2.148651480861979712e-01
1.573587383991945921e-01
1.176678662544237558e-01
6.018664886884292353e-02
5.699250082263583594e-02
9.676760254329787314e-02
7.994577913468434160e-02
6.476159770582576303e-02
1.031551131038708768e-01
8.945669729965391448e-02
6.205590179801469958e-02
8.643898108704442529e-02
9.544234720886783652e-02
1.249027937874865879e-01
1.124702232335129393e-01
1.191921739122948770e-01
1.571674003293631050e-01
8.003884761601605391e-02
1.885177233953983233e-01
9.768404194722968281e-02
1.068327123939451784e-01
1.464673057662647104e-01
1.402270801374832510e-01
2.238134547302375599e-01
1.458497408414840268e-01
1.585068191817840533e-01
1.844244563459931652e-01
2.407373933188864668e-01
2.333707296935546016e-01
2.122766755941463135e-01
1.744083774818069588e-01
1.648080956172438827e-01
1.937646089504460323e-01
1.690177415689595175e-01
1.960268548930322874e-01
1.800278823913548654e-01
2.530358253919482436e-01
2.081056593296331247e-01
2.790516104287815158e-01
2.565635859371780958e-01
2.540196956584684362e-01
2.774134349011556089e-01
2.465231351040294561e-01
2.629594990247351993e-01
2.337532145498282254e-01
2.915325946071064545e-01
3.016177021286345905e-01
2.470311757586610701e-01
2.982470896255317583e-01
2.563445500435992952e-01
2.770558421784350411e-01
2.510098952319961829e-01
2.434977353883670814e-01
2.318531943259274364e-01
2.594813569337832138e-01
2.020443130245916374e-01
2.402707415609793562e-01
2.591151713283081914e-01
1.924712498387668447e-01
2.412457547003326597e-01
2.460672848716358163e-01
1.803293591485181369e-01
1.909626447196430266e-01
1.707240156117655339e-01
1.902749401552580044e-01
