1.041684303217335517e+00
1.082920169969362467e+00
1.007301439910492036e+00
9.612580243668684687e-01
9.462995754736023279e-01
8.976374779303055718e-01
8.969771969550780488e-01
7.682883501509010227e-01
6.911764925176125951e-01
6.696057068501800602e-01
5.761276587580850261e-01
5.456268307657924366e-01
3.496359798482911452e-01
4.140281769747626850e-01
3.691980492918212620e-01
2.518053651107205471e-01
2.188614568966381069e-01
1.515963406783955025e-01
1.006574878248063243e-01
1.228952397392234080e-01
1.152062827261220723e-01
8.181700582535458843e-02
1.154259390164951993e-01
9.598378103232152458e-02
4.628967929766824446e-02
8.201161759738886947e-02
1.285112039422839636e-01
6.314560505124747203e-02
1.139206420416561116e-01
6.563383137860434591e-02
1.283311676070084673e-01
1.060929900775691714e-01
1.083430985085434423e-01
1.503328553299066450e-01
1.022493935290296890e-01
1.138678559923678307e-01
9.062389714661200912e-02
1.246845786513045284e-01
1.909165860139148407e-01
1.413975631066974326e-01
8.756340158014382091e-02
1.873564690970194735e-01
1.344712227184287068e-01
1.547137524402591724e-01
1.067562174545608200e-01
2.469697602843514972e-01
1.363954793774644902e-01
1.372007408069995105e-01
2.040978220817336874e-01
1.321899966288919148e-01
1.907410493721305444e-01
1.871243915168764871e-01
2.256145493239612998e-01
2.110370878247878612e-01
2.083643692989920193e-01
1.959775494415962882e-01
1.527785917856105402e-01
1.910638257355331271e-01
1.884111939443025852e-01
2.484098134467346009e-01
2.317435591774763270e-01
2.323112471291480241e-01
2.421289236052452942e-01
1.989695750174482469e-01
2.279103784565448265e-01
1.711643372956602738e-01
1.996082649805867026e-01
2.051436826913978217e-01
1.754016350969871685e-01
2.234703840695126120e-01
2.115704148973440724e-01
2.315310446076728756e-01
1.858562113622898027e-01
1.368139710300793621e-01
2.094859261672410433e-01
1.999307965467305992e-01
2.207374864637632050e-01
1.635629560035885277e-01
1.825127801443492959e-01
2.439895320075582963e-01
1.683214764948368081e-01
1.185415478647548898e-01
1.930923637519195990e-01
1.304353603012392560e-01
1.111495539685903866e-01
1.631980517622787508e-01
8.618030106569732340e-02
1.305521228822369983e-01
1.389273947324526914e-01
7.546573339474066389e-02
8.977245479502020398e-02
1.069408201889597565e-01
1.097715633824867809e-01
1.243644891326580459e-01
5.631826442041711067e-02
8.720689066394182731e-02
8.244727681614397174e-03
2.372110054229674414e-02
4.567786064222595366e-02
5.233826094089706615e-02
1.454270703458488551e-02
5.289227242253930622e-02
5.481809880533455859e-03
1.067468603992822312e-02
-1.185317850667667872e-02
2.849079006871839403e-02
1.041852629007988806e-02
2.166862578390341132e-02
3.794838669136297443e-02
-4.235050116087553385e-02
-1.243168072402724839e-02
-3.210658019281443371e-02
-1.985596043666131710e-02
-2.373815931147130881e-02
-6.794476208527022720e-03
-8.974090321807064174e-03
-2.137452856473854440e-02
-1.054704418368128394e-02
-5.559865616578333475e-02
1.067020862615051385e-02
2.615027375350757050e-02
-3.662351241805523322e-02
-1.737679691607096552e-02
-2.772532649087319431e-02
2.068418446792238963e-02
-2.550727157347167096e-02
1.307006661420251348e-03
-3.377489836060102585e-02
-2.223925477758229366e-02
-5.826190994031882342e-02
-6.121641396424574305e-02
-4.685577604452770967e-02
-6.475131297406165609e-02
-4.013850110453583836e-02
-6.211885623824123237e-02
-1.466393807516958026e-02
2.922241386380480116e-02
1.455402430839664030e-02
-3.101262863009490722e-02
-7.078446981461154752e-02
-3.816250709114373668e-02
-7.135547475706709164e-03
-6.721483398875188753e-02
-3.903494387530481724e-02
-7.853662154217314062e-02
-3.382181539469654441e-03
2.130855477381282670e-02
-5.142082771257165674e-02
-4.927056144348106181e-02
-3.557514000042244495e-02
-5.850807881084123252e-02
7.954765043750172682e-04
7.610335037578387640e-03
1.164547410251564469e-02
-8.924743631128440047e-03
5.634807528573211599e-03
2.168179575964598177e-02
-5.937028041861996952e-03
5.726811780615848058e-03
-9.776628540318306471e-03
-6.520110109318674740e-04
1.803688054350358061e-02
3.785862063943897654e-02
4.321644084030770716e-02
-6.431079298279872292e-02
2.473135516295978109e-02
6.646429046655111250e-02
6.323391029329769597e-02
5.975261035387414987e-02
8.102593607554775534e-03
6.805102671739349240e-02
6.700659699893996013e-02
5.367140535519139555e-02
1.293814911235998399e-01
1.193342521231363362e-01
5.512825428973087277e-02
1.461072478961749077e-01
1.050967103789722246e-01
7.929865248682488321e-02
5.228123023080643444e-02
7.184909017910778850e-02
9.405896681769959633e-02
9.616448730087651109e-02
1.380693723292732433e-01
7.751806032523619883e-02
6.440851751818069126e-02
9.219311025837823026e-02
8.697081270818896037e-02
8.938309786072243246e-02
7.211830641500108219e-02
9.757262920509185422e-02
5.202547055871981074e-02
3.082550544136815340e-02
6.277188760218453678e-02
6.777380568741583899e-02
1.481681948001500881e-01
6.573029899556712130e-02
4.375590953400945726e-02
7.830554191830860211e-02
5.932808237144706481e-02
1.019437298684733872e-01
1.447343741510034587e-01
1.505630775132680566e-01
1.783173464597063440e-01
2.481132615866276925e-01
3.021327347062596758e-01
2.648029573853134533e-01
3.477340142845020132e-01
4.205781955522351345e-01
4.774541878274684015e-01
5.610993748551224014e-01
6.519113613480158609e-01
6.318958535544437760e-01
6.782523874531672936e-01
8.551772307470633105e-01
8.528602506769478175e-01
1.011981996630878067e+00
9.673274603470842781e-01
1.001030200177181584e+00
9.938272265843248743e-01
1.056242149936076569e+00
1.047748165653875185e+00
1.031928848150675426e+00
9.713971670339138775e-01
9.154919365564464506e-01
8.988857582293331427e-01
7.993644590706688868e-01
7.067265473800207198e-01
6.791694891590129846e-01
6.043583965717490569e-01
5.148855322823834291e-01
4.900403083667148607e-01
4.194877420043186533e-01
3.183961675052772722e-01
2.553041183397710689e-01
2.251187682804520751e-01
1.776032325199599637e-01
1.393910639163664089e-01
1.526169713878687273e-01
1.435795127589848535e-02
8.043406241752870667e-02
6.829741970942465601e-02
7.482721049673465852e-02
9.618027634474367316e-02
7.112230715987959140e-02
8.180235980877392787e-02
4.055181963978186921e-03
9.297139087188358020e-02
9.442205540811082765e-02
1.144315315275352546e-01
1.171810564447159919e-01
4.527669255432757722e-02
9.958025122762823034e-02
4.960160295930859248e-02
1.514344594015408219e-01
1.115280304090249669e-01
9.282133328476015188e-02
1.118650252904429127e-01
9.254806764876777336e-02
8.258582407047199148e-02
1.605084502371492694e-01
1.466185908173678054e-01
1.567626438803695621e-01
1.830568402521959570e-01
1.413572991700449144e-01
1.417358282471376518e-01
1.750165905758985230e-01
1.354822284930781162e-01
1.682480809382293774e-01
1.819121449632204734e-01
1.285764148794922845e-01
1.715112264721789792e-01
2.223962917731288624e-01
1.744178565842331163e-01
1.862339687159853818e-01
2.350353874162195433e-01
2.118101075042546355e-01
1.705137102905842084e-01
2.120880054117831592e-01
1.864525808101735183e-01
2.328119044460418563e-01
1.630411858263131342e-01
2.460447971318482363e-01
2.269740005829339879e-01
2.047209924404647663e-01
1.363409076447031631e-01
2.282334412070543828e-01
2.127603523858724033e-01
2.022786024355433532e-01
2.187994641618660752e-01
2.269800759345713681e-01
1.905810407498308989e-01
1.991986834941600060e-01
1.738779474344405995e-01
1.798975402515451683e-01
2.011071836660631162e-01
2.079992847477209195e-01
2.012367120020623623e-01
1.367247136301589505e-01
1.615569473437110937e-01
1.354440894751643698e-01
1.704747983102021247e-01
1.428462088317858369e-01
2.211302083442328592e-01
1.119643092880770741e-01
1.163087678526307511e-01
1.438428361208778650e-01
1.010344911336764351e-01
1.252402382525574787e-01
1.207842862594784850e-01
1.241237168669242635e-01
8.334422884695238953e-02
5.097856334206535278e-02
8.745093699984043956e-02
5.589637523340197645e-02
9.518820032547659071e-02
1.210385250076378427e-01
8.431448924365164688e-02
4.551156521562055302e-02
7.498529745794550727e-02
6.706670903464008460e-02
8.686419599427047666e-02
1.630457943936301779e-02
2.565825154153634352e-02
8.710690283816178991e-03
4.456872423151277129e-02
-1.901191240372843150e-02
9.378044801217122473e-03
-2.614011932378993569e-02
3.659444884416120786e-02
1.272368004980643785e-03
1.908950561373434773e-02
1.889399097757996082e-03
-5.117598569412985104e-02
-2.558316784536864355e-02
-5.799179851590050006e-03
-3.249876425723004225e-03
-5.850334263810283431e-02
-1.877330039497072597e-02
-4.248363522760022909e-02
2.305159931236731852e-02
-8.982589789946393566e-02
6.314689081757668410e-04
-4.759357429609392676e-02
-3.879292867203384954e-02
5.376288528039882553e-03
-6.519809350166230755e-02
-3.417725089057160881e-02
1.863680146703405871e-04
-4.510794826576344785e-02
-2.139288445063970007e-02
-1.093892144689101453e-02
-2.994144459178964615e-02
-2.004390303750411273e-02
-1.693629626401253752e-02
-2.308505571701639086e-02
-7.369706018492555577e-02
-2.307073292932244543e-02
-9.421096584732847889e-02
-2.410961720675271897e-02
-2.168235850480605686e-02
-1.115362581915087248e-03
2.280860206261094147e-02
-5.070416302750223314e-02
-3.125147554194052102e-02
-4.275037416823770919e-02
2.512440816837094304e-02
-4.394859476901027961e-02
-2.003764230999975637e-02
4.271454928808771090e-02
-1.896978445941269187e-02
1.898369681486460070e-02
1.946895128482842990e-02
-7.076260512648660517e-03
-1.828331536528145229e-02
3.041203296842331927e-02
6.100503200974886214e-02
-1.629229091168211616e-02
8.065296369920739450e-03
-8.668544845473670490e-03
7.115267665355734517e-02
6.744792474010125050e-02
9.095952523074878060e-02
6.470541706704070750e-02
7.241775047916221286e-02
6.091725873922676504e-02
5.184857983157094979e-02
1.253620941945719769e-01
8.137012401127971528e-02
2.806916981529787580e-02
5.033328889313870569e-02
1.055419742573601577e-01
9.365959646801887140e-02
8.242272400280623024e-02
1.277789436143156321e-01
1.196688911784365150e-01
1.144877287820011830e-01
1.929732249353035001e-01
7.533635580341346838e-02
8.707722590891553427e-02
5.676054933060471763e-02
1.377790749638297396e-01
1.914483873397350155e-01
1.344897725625163742e-01
1.223938512439588511e-01
1.342345130072792048e-01
1.186717794987003916e-01
1.462309795723536476e-01
1.395664034336409620e-01
1.514508484148192058e-01
1.440602606019870668e-01
9.387801577049709190e-02
1.309704405211652711e-01
1.350239731700701162e-01
7.632745474072502589e-02
1.383451437731333666e-01
9.023596518477346173e-02
1.186048103806397469e-01
1.394908809925923254e-01
1.459795419441022035e-01
1.345113528233681799e-01
2.096768395638120841e-01
1.722602986975423356e-01
2.188265172834904793e-01
2.759060494235520689e-01
3.411364494621437760e-01
4.191884770266048332e-01
4.382434772835006598e-01
4.389026627920543655e-01
4.891891669085240424e-01
5.682109685047480596e-01
6.900403165575194064e-01
7.675811782680863615e-01
7.728135334981121041e-01
8.543621423319411878e-01
8.520479859980567561e-01
9.752184171834483717e-01
9.968581893228103397e-01
1.068899944487826437e+00
1.039954158884324631e+00
1.071708628838579314e+00
1.007684270169434848e+00
1.016835422739252204e+00
9.901122325029337867e-01
9.600390041357113047e-01
8.393333890691977439e-01
8.223228417785949373e-01
6.940107284146583844e-01
6.909850783538594721e-01
5.602479971272862347e-01
5.154380619448030165e-01
4.519245226591966924e-01
4.428435762285243271e-01
3.735156324243419923e-01
2.868818827190842691e-01
2.424845421850133631e-01
1.466124900269816234e-01
1.655341901807362848e-01
2.194003836763666893e-01
1.137115602442384382e-01
1.282132457424539074e-01
1.303142857819182820e-01
1.496583875915379336e-01
7.731791553595715460e-02
9.410344135429286883e-02
8.455647393125649558e-02
1.190834070622509427e-01
7.224712084791150291e-02
1.299207912695005407e-01
4.615263110820910786e-02
7.335315031874542480e-02
8.673351733210210579e-02
1.143323920282696138e-01
1.767508437046336200e-01
1.257592236242489891e-01
1.334439129844715577e-01
1.196117786471364158e-01
1.118518623993169508e-01
1.257791534494662189e-01
1.899013436814188660e-01
1.731490584915350017e-01
1.652350973570634318e-01
1.776521180511218823e-01
1.383477987001564824e-01
2.073037657388852040e-01
1.230089947130127981e-01
2.207974086796259672e-01
2.077752533824568371e-01
2.232125806368527865e-01
1.775858785364292647e-01
1.892496738256099487e-01
2.238659944360820164e-01
3.360179963747237930e-01
2.501407013666903101e-01
2.004995428069241692e-01
2.700725241897469209e-01
2.115320804346259298e-01
2.924746232035915772e-01
2.384806365727415445e-01
2.823602222694402419e-01
2.237414837324700201e-01
2.282762865212047132e-01
1.646781721789119801e-01
2.336371737375237956e-01
2.587390423879130097e-01
2.459648139970317671e-01
2.677182072416208758e-01
2.184583215617698082e-01
2.574033636578724749e-01
2.550720730206979536e-01
2.315535892745522184e-01
2.397216451571778373e-01
2.214921192848186282e-01
2.099159522894603336e-01
2.741158139447553155e-01
1.915145796550422608e-01
2.219082901800220331e-01
2.177188710407553240e-01
2.077256221380833767e-01
1.788121025072487158e-01
2.018840576223740746e-01
1.538145715738750696e-01
1.692956842172516907e-01
1.491030287534377829e-01
1.535356333840183218e-01
1.838615704118400640e-01
1.601086299469186569e-01
1.838448464764300405e-01
1.433072572003493972e-01
1.684062270339543033e-01
1.697858471394391722e-01
7.377436713919531541e-02
1.885121256907367482e-01
1.433340183454987204e-01
1.161892456292097642e-01
9.247022123462482479e-02
1.558247217739227308e-01
1.137071822243952701e-01
1.256690325807917064e-01
1.211698671204769345e-01
3.694620525952679174e-02
1.013471901751113458e-01
7.683485149473097409e-02
8.095263922132753254e-02
8.815755443857660467e-02
7.728051388022995349e-02
1.126469024810744651e-01
9.267358891625607220e-02
6.574359410207619714e-02
4.860997697976128518e-02
7.492371106777018230e-02
5.354350872069892076e-02
3.554821973342430635e-02
4.660700756065151718e-02
3.799895688209169176e-02
1.866540000720041600e-02
2.030926536639465416e-02
6.788279070513889013e-02
3.601853160393940489e-02
9.039907573423745790e-02
7.372413059809231062e-02
7.434909565320008129e-02
2.117774804473000066e-02
2.901967319685075028e-02
1.653981489344947403e-02
-2.822378483663993270e-02
3.595008876551768900e-02
7.663044197138061883e-03
3.535883939888093130e-02
1.359547472299431348e-02
3.676268194384758187e-03
4.599013567059750257e-02
-1.312684448705233112e-02
4.777782996603726490e-02
2.523496188469333962e-02
-3.466826902559745627e-02
4.223526051712689355e-02
-1.265189470579830902e-02
3.756783952814624072e-02
-3.846657230439330666e-04
5.355319975969718982e-02
-2.814060693890148290e-02
6.458936693189368250e-02
2.020086702096134806e-02
5.966567974079307890e-02
5.469773318135856544e-02
1.240547752195252096e-02
2.180931616064775425e-02
4.101406883068797055e-03
-3.321229651967148866e-04
2.843277512836038870e-02
-2.905466067189902898e-02
7.476329573329786038e-02
8.997198957550642251e-02
5.871819884335334472e-02
2.114912252159084627e-02
7.274729481786726404e-02
9.538500373257000065e-02
1.215638513024546036e-01
1.037676799135290318e-01
8.588662933486344853e-02
7.594904409860697703e-02
5.596348657012500949e-02
1.140387403418261503e-01
1.171285910014864678e-01
1.091269537054748995e-01
1.130148215855191207e-01
1.349715316626204920e-01
1.641773056472189130e-01
1.330137764167201031e-01
1.596134977157666612e-01
1.611428603628820566e-01
1.413805217679273141e-01
1.113265628360678716e-01
1.869538738998787752e-01
1.211535481000272779e-01
2.078672749421773547e-01
1.883710164483380911e-01
2.180642277686707098e-01
1.646231215773693024e-01
1.809328399866268755e-01
1.753573912105954313e-01
1.949976135678652689e-01
1.769363909579616534e-01
1.720723183631716058e-01
1.671835282281480817e-01
1.686034753084862947e-01
1.559917377874794897e-01
2.234076948226476345e-01
1.720205996810160731e-01
2.311921693924431365e-01
1.843250180679197603e-01
1.718224509355470164e-01
1.439736640134069989e-01
1.321684026737824924e-01
2.014640004239443005e-01
1.974061030764984459e-01
1.675968340654308553e-01
1.522414195248353308e-01
2.658826247862471903e-01
2.640219837305943229e-01
2.394172085699933505e-01
2.502201446231480664e-01
2.615437051243440503e-01
2.882550389315514106e-01
3.716031091716997525e-01
4.959490766511039372e-01
4.781235556705325518e-01
5.692519528840548348e-01
6.031202668743311790e-01
6.607503539931672831e-01
7.276603226324923623e-01
8.048180252424854686e-01
9.357127549035473280e-01
9.715480697601029947e-01
9.476223965786597647e-01
1.091493633337994540e+00
1.027853764313803264e+00
1.079501083939697903e+00
1.056578919241102144e+00
1.154795504215359703e+00
1.089851028529787103e+00
1.079108573826578654e+00
1.000811102424526311e+00
1.026429072957548927e+00
9.292562601018977686e-01
8.846928547398945630e-01
7.752636193121780206e-01
7.225650707163279174e-01
6.357573840210560823e-01
6.171433606134658634e-01
4.986665028537018984e-01
4.859924920914822088e-01
3.294194666873852539e-01
3.402698102681308012e-01
3.355878702057344398e-01
2.821656205033968301e-01
2.084624368546141304e-01
1.629979213282614081e-01
1.666234872389767419e-01
1.342192944713141989e-01
1.321293572861002019e-01
1.790617708918699480e-01
1.742101933157869376e-01
1.179328808220996005e-01
9.380825361307137955e-02
1.399131374402090011e-01
1.510068644461791676e-01
1.387968597192794085e-01
1.703878540949279319e-01
1.524766447396106173e-01
1.847028668701314602e-01
2.098227800786369168e-01
1.618349372935014019e-01
1.554857645270382449e-01
1.600092900655828987e-01
1.727004927462271744e-01
1.953042225522669817e-01
2.191746901825625815e-01
2.446307036475540153e-01
2.115465095203399315e-01
2.754691384528086262e-01
2.118254605573628990e-01
2.259693281373061635e-01
2.430489861429731835e-01
2.499871121929353179e-01
3.161196020398914786e-01
2.558504773664709298e-01
2.385204955087792400e-01
2.648148684608023218e-01
2.412803674332055781e-01
2.996402213091154954e-01
2.711169709636136460e-01
2.719223825093645686e-01
2.915250472254014569e-01
2.676113227611559564e-01
2.981820245839279515e-01
2.474217365813117242e-01
3.225267538140572654e-01
2.868631406361754621e-01
2.692118569764174740e-01
3.580198385537484707e-01
3.393460475964968914e-01
3.187159038216885731e-01
2.800548643204115451e-01
2.675265662252167553e-01
3.031458611131579994e-01
2.804478625596713570e-01
3.025345406316468089e-01
2.826485638031276948e-01
2.471076891215557292e-01
2.772050427140484996e-01
2.706706266412346462e-01
2.805224295292764736e-01
2.608599150381314402e-01
2.774271023621998622e-01
2.437008195449320014e-01
2.646879422319116104e-01
2.419589502210833243e-01
2.111745946188033074e-01
2.246933915809074256e-01
2.572326659530241866e-01
2.165079321189541939e-01
1.839218101569670416e-01
2.041815203693975178e-01
2.037548570396840175e-01
1.982258205494739911e-01
1.900082520427751054e-01
1.895431404467170788e-01
1.739597488724572705e-01
2.130764090801320343e-01
1.747794628437663034e-01
2.067146061475551022e-01
1.521541916327532606e-01
1.669190358718214418e-01
1.353639932513278632e-01
1.329596542732323639e-01
1.665791413966645762e-01
2.395855886595799900e-01
1.852621515654578332e-01
1.316360967479821009e-01
1.401785673271040700e-01
9.977484529612429265e-02
1.075945209940908781e-01
1.720750882163797901e-01
1.368548574896762959e-01
9.203678671713336201e-02
6.271722521297637409e-02
8.502760451116114782e-02
1.295429535142654243e-01
1.479774741973464147e-01
8.020476645448373909e-02
1.553892713261796343e-01
7.836078657510479883e-02
1.192206076927460889e-01
1.293788392481781124e-01
1.094486696740112758e-01
5.078374180112360525e-02
1.819598563443003067e-02
4.004957358486108121e-02
1.369705485658175848e-01
7.856120392313667433e-02
6.892767559463322535e-02
4.913322548840610982e-02
1.099558417023783763e-01
1.147597229295993226e-01
-1.514596385373624676e-02
4.698085176109124267e-02
5.070981111163704036e-02
2.995190589815725779e-02
1.213146609395525377e-03
1.807273701626081752e-03
5.565611053849534723e-02
3.562291120914012899e-02
1.525060742455177504e-02
8.523800997503072630e-02
6.966974667985079139e-02
6.641365102158580669e-02
1.237099071905551628e-01
5.375677997504452188e-02
8.293484377395836382e-02
1.071845598530600657e-01
6.746187787657838275e-02
5.844161940109474096e-02
7.188473890034624558e-02
9.815390865758916172e-03
8.324228882671586005e-02
8.679493811405485093e-02
6.478295621706590957e-02
8.402945210226413220e-02
7.546309528481442985e-02
1.113789165827758082e-01
6.411197015266943688e-02
1.473875065841230014e-01
9.647315698396591310e-02
1.296880405440118955e-01
4.200982478898049322e-02
7.462723548060855305e-02
6.440961429164905605e-02
7.211863027751949651e-02
1.124991840669442716e-01
9.257041734550225387e-02
1.303975573071556593e-01
1.811184788312468763e-01
1.534631678654236886e-01
1.170126266346434574e-01
1.845025037351575303e-01
1.556183825484568628e-01
1.198896552569041762e-01
1.690348266394171017e-01
1.024625680388578097e-01
1.857161845060489036e-01
1.455179662765493376e-01
2.283152676731129149e-01
1.724289643662259564e-01
2.228391529921954217e-01
1.886777582770704786e-01
2.169957100279761575e-01
1.778832919056125283e-01
2.125860409594985678e-01
1.998757442360694636e-01
1.906054965190318862e-01
2.062075977881425159e-01
1.847054114688218007e-01
2.130334846801147930e-01
2.228294742633776804e-01
2.277425963821484156e-01
1.822292812936729955e-01
2.028522722318739924e-01
1.866287474007362612e-01
2.263092365372390002e-01
1.844207155662074549e-01
1.810897294306360872e-01
1.711613811975726818e-01
1.748847617028485013e-01
1.889874673821825835e-01
2.143709667766620919e-01
2.101295433778332666e-01
1.913216487271897637e-01
2.281422936469063856e-01
2.611947881133155347e-01
2.629484201447203073e-01
2.740411259529303978e-01
3.159308724442590477e-01
3.518084064412577705e-01
4.016040094063294541e-01
4.468259168945170612e-01
5.019615002925224001e-01
5.641449713656080389e-01
6.443600945441210204e-01
6.966000065490894899e-01
7.827139819951716149e-01
8.195906999124432657e-01
8.428222392177466826e-01
9.769984701113780812e-01
1.007714671839313070e+00
1.053393960421757924e+00
1.158659643102551096e+00
1.076124698408419400e+00
1.127908407750149111e+00
1.164941736202093958e+00
1.082210395065614117e+00
1.083535121229828979e+00
1.004766095615756472e+00
9.978152924755328002e-01
9.190022469782477277e-01
8.003573263249825764e-01
8.257830476330774161e-01
7.191687522587409953e-01
6.512426709260884516e-01
5.544657257251154325e-01
4.974471299689009474e-01
4.307429563354753244e-01
3.876042838806890711e-01
3.425987710674913145e-01
3.550351318917853161e-01
2.662094841069609918e-01
2.119383622740557416e-01
1.724904206459573763e-01
1.717827613881168780e-01
1.839269540963528182e-01
1.303012962811083697e-01
2.287399325128408323e-01
1.481235481347393246e-01
1.381879471884718269e-01
1.215099733563499151e-01
1.741292550769174552e-01
1.663762178566232375e-01
2.021786198851758531e-01
2.184065878588442866e-01
2.130184364466413127e-01
1.614146741997100343e-01
1.352866567274290943e-01
1.980235440110384992e-01
2.059946784828493027e-01
1.897048829967032946e-01
2.023731774562312624e-01
1.755033599891465679e-01
2.348951840991381212e-01
1.926474593933649171e-01
2.569221579752133389e-01
2.224092661456313902e-01
2.046377785899610169e-01
2.630285088666777793e-01
2.177690001488885030e-01
2.447581543809310978e-01
2.549176037704195541e-01
2.495770630323802530e-01
2.693100928995389998e-01
2.641292215887697248e-01
2.885871242046613716e-01
2.918325440571816198e-01
2.562555618011952974e-01
3.357294061830447540e-01
2.792385118737015781e-01
2.893467638218074067e-01
1.920108555733842648e-01
2.407098827825444043e-01
2.632154605502940448e-01
2.513874806243086568e-01
2.566175793715231856e-01
3.149656622739928635e-01
2.982742633989434178e-01
2.805495484228760494e-01
3.179806942921813984e-01
2.579223041326736410e-01
3.280683509079197480e-01
3.023332536426924233e-01
2.837584504514387151e-01
3.550893173964741467e-01
3.160598963860528632e-01
2.421279118649026230e-01
2.912290843937727636e-01
2.863757086337791469e-01
3.023069612456975586e-01
2.962560588541557349e-01
2.550113511706137981e-01
1.621012358405534703e-01
3.068917019126488621e-01
2.145727032322681527e-01
2.542698808040116942e-01
2.460334931841448580e-01
2.311541843748675107e-01
2.608975780375809017e-01
2.276471809450205663e-01
2.008868988639633257e-01
2.167666007376203019e-01
2.124900776946947456e-01
1.575141149025780229e-01
2.212162744108931711e-01
1.837022257620120613e-01
1.232823400553235416e-01
1.516521170169400357e-01
1.475901859520568626e-01
2.520799745802342340e-01
1.302760323693891720e-01
1.636812599883721020e-01
1.833594247675483790e-01
1.374791220483652932e-01
1.238933452755019426e-01
9.148585611028715869e-02
1.039006431942108288e-01
8.614010758252449440e-02
9.775300713899148786e-02
1.240736504020802933e-01
9.617752485969388587e-02
9.417232599768629586e-02
8.086125015772417657e-02
7.712432770272853455e-02
8.688442835976235845e-02
2.433287893614047986e-02
8.444805270321424640e-02
1.270666100980945012e-01
1.064662082931176201e-01
7.979844308654121532e-02
3.726952968906895036e-02
8.400199407298830634e-02
4.750345583705514046e-02
2.476476050320396138e-02
5.287778176524042528e-02
4.542667105967437835e-02
6.685547547313233641e-02
5.665011694900612405e-02
2.579037629916739599e-02
1.009904148032286647e-01
7.426897903445822680e-02
3.993671643953797257e-02
7.328716594534029349e-02
1.911821684961106937e-02
7.910688585932429406e-02
5.931123533620909216e-02
6.709469160718559144e-04
3.272162297721380175e-02
8.872125040075520830e-02
6.569273201432454523e-03
1.947848500276307127e-02
4.736372737593071147e-02
-2.251030230203044519e-02
7.751264563501214511e-02
2.439524419431575442e-02
3.474680044512393901e-02
-5.337819444405495634e-02
2.352847462212549756e-02
1.849726141435676860e-02
3.580806642899503345e-03
4.004596187712985977e-02
1.035245894539314343e-01
6.438401219825544419e-02
2.791734728588249337e-02
1.648473710235711168e-02
3.971123768006701305e-02
2.918300404887494773e-02
9.294082829677689783e-02
4.482619229541363881e-02
3.382165495796035648e-02
3.702931838214477273e-02
8.883588546896563354e-02
7.347225204779045393e-02
4.801681104257909255e-02
7.791986428688836563e-02
1.163997870583097644e-01
1.651374726763643330e-01
1.006006128485325002e-01
1.030841206900136864e-01
7.852385589644478303e-02
8.603320839263176034e-02
1.625262166627474136e-01
1.588416725793114770e-01
1.334930017827204163e-01
1.050933835149933798e-01
1.290785654307783914e-01
1.431875317221468769e-01
1.514512375683510770e-01
1.630974952312690962e-01
1.626419585522377309e-01
2.075170028997289084e-01
1.651696935746290174e-01
1.267974712563077477e-01
2.026794321242743613e-01
1.644983497990884780e-01
1.407478262170177019e-01
1.431134268969178613e-01
1.545561695700628235e-01
1.450122492230448423e-01
1.777047621112669284e-01
1.887396480942378219e-01
1.376721680160198358e-01
1.808580205063906599e-01
1.837940091533029063e-01
1.526357524983878167e-01
1.346381668710916746e-01
1.907458653168325469e-01
1.690107976415849145e-01
1.228149752696856972e-01
1.642208608087107891e-01
1.744389325254638856e-01
1.470502785440712390e-01
1.417627244930464159e-01
1.809369710057017189e-01
1.833056629339732402e-01
2.013892250539792983e-01
2.845795172690872010e-01
2.402217245268143397e-01
2.984759012343877194e-01
3.425903142956318037e-01
4.171061104734952174e-01
4.745665371450397130e-01
5.072177171736187429e-01
5.925912155336601206e-01
6.245029785646529774e-01
6.787926417421989989e-01
7.724782973630719418e-01
8.195527623184738486e-01
9.108823313447164116e-01
9.121435527683924294e-01
1.053598508626420571e+00
9.881591237949973738e-01
1.064408913537225887e+00
1.101896874854631392e+00
1.107395905849855700e+00
1.041659078360821278e+00
1.016348282653435797e+00
1.006008098802427364e+00
9.232143473889443674e-01
9.181005863103210984e-01
8.572857773017226179e-01
7.392025446783572207e-01
6.933798879604453624e-01
5.902873125595625714e-01
5.814180114975047164e-01
5.040163814267888398e-01
4.281012269568133521e-01
3.440054573730515486e-01
3.048044750500940592e-01
2.827954214062751714e-01
2.616678860082580771e-01
1.713967311397780469e-01
2.166019317334940408e-01
1.689529725659720538e-01
1.665266291667418241e-01
1.107228748709018357e-01
1.105171976996113942e-01
1.433707519603598934e-01
9.848487835320225703e-02
1.329770307726949319e-01
1.376123858800911148e-01
5.803003976899570593e-02
1.469984126541788727e-01
1.206260720603858361e-01
1.558768845615986776e-01
1.694313040760093425e-01
1.283446094940931537e-01
1.839228935378219021e-01
1.444792692103799292e-01
1.377297219854312083e-01
1.617572626413432413e-01
1.532015977154171649e-01
1.143203263938515207e-01
1.793099473973308877e-01
1.871752093569651887e-01
1.671992364744342430e-01
2.038371499622669281e-01
1.419793730773535601e-01
1.927294911764609042e-01
1.952770554303746020e-01
1.422707778601793316e-01
1.919284918094373849e-01
1.699246157524085810e-01
2.603743119000647699e-01
2.531407919069567636e-01
2.382790834455406903e-01
2.595912516517370761e-01
1.852351907680560572e-01
2.017600473651137982e-01
2.274851646813410011e-01
2.172765641441846418e-01
2.840988106562811755e-01
2.770286047012204822e-01
2.222190501645069372e-01
2.439765879832299367e-01
2.171875592248814213e-01
2.230300310818668363e-01
2.290026477306296993e-01
2.272536422311341731e-01
1.936594120044869971e-01
2.778078886606693554e-01
2.566835747936107026e-01
1.933444461368100942e-01
2.263247073455083858e-01
2.128814719773849673e-01
2.462165060733917665e-01
2.653060040339617065e-01
2.116126635827368929e-01
1.275402400805060732e-01
1.812719825476533653e-01
2.416485912597076680e-01
2.273535533675523634e-01
1.799886880430129621e-01
1.926656027052238984e-01
1.804837914135632992e-01
1.444440322310508451e-01
1.654838810324222309e-01
1.510133984451917377e-01
6.628114553447095325e-02
1.738935182651840661e-01
1.777680051049453092e-01
1.690572548923059693e-01
1.410290035454099811e-01
8.071604930039388837e-02
8.982603158703152124e-02
1.280223544364792188e-01
6.385881393049458454e-02
1.301878423309504595e-01
1.329780850510008383e-01
9.391838344855743537e-02
6.864081793955467692e-02
6.769160829019672809e-02
1.101514714493672942e-01
7.266594993885150400e-02
9.540299471266308617e-02
9.901627148881364526e-02
1.375568510178099280e-01
8.568882117133969079e-02
7.729527517703070616e-02
5.974379810210653230e-02
6.465339502823319595e-02
6.297937901825195750e-02
-2.175251053438161802e-02
5.866511469820455404e-02
5.112480491392289161e-02
-1.851854566889869769e-02
5.466610576426836343e-02
1.918597643305618855e-02
3.573180651870494495e-02
-6.295871094168303123e-03
2.731644116957899701e-02
1.866039876587408802e-02
2.847596925012457411e-02
3.145032570863673382e-02
3.989166308019136131e-02
-1.954189970940306900e-02
-1.444642803002434833e-03
-1.882863814513468376e-02
3.140097237738493502e-02
-2.750073000198812942e-02
-5.611347275340516916e-02
1.469621575457442930e-04
3.072286283869800350e-02
-6.573720645003082452e-02
9.601972950495855919e-03
-1.105866158820051348e-03
5.486733146584207160e-03
4.713687889305283318e-04
-1.644774133615119552e-02
4.478483778242364766e-03
-9.243919736951143953e-03
-2.982097332793504779e-02
-2.161707722724884317e-02
8.269403648482758634e-03
-1.655175764007439654e-02
-4.034780707456614435e-02
-2.327198320005332069e-02
3.306082512915999028e-02
2.291224942315704324e-02
-2.280565767497831631e-02
-2.308203130844024495e-02
-3.906340612132821327e-02
-3.946697044781237451e-02
1.704434854524056880e-03
-5.033531173646797752e-02
-2.942748102933122334e-02
2.804517030798159977e-02
2.790099035633195404e-02
4.792280241493508675e-02
-2.466143516200954705e-02
2.957778523567945739e-02
2.637395008468854107e-02
4.763067382823768514e-02
2.558352112418762342e-02
4.607955633365583975e-02
1.800471848304667499e-03
9.191982646653379385e-02
4.429713408122178120e-02
1.295988762082276313e-01
5.839668507916112583e-02
4.880451308911915032e-02
3.880060894208031685e-02
7.367701074507514158e-02
8.890188510662432042e-02
1.109484271047284504e-01
1.073026469877547406e-01
8.172255982885578973e-02
1.114677714878430093e-01
1.026424986009542017e-01
7.208773788907590907e-02
9.008479201209437792e-02
8.851946438821771401e-02
8.021929591747301025e-02
1.072523472769895125e-01
1.184642015428462314e-01
1.172739233874835196e-01
1.067076326680306136e-01
1.523551948551222224e-01
1.054919317609970264e-01
1.369957574293192981e-01
1.318056627175843987e-01
1.317980063540910018e-01
1.175204035776935274e-01
1.048139157122327109e-01
8.481929606712093617e-02
8.917693388714548197e-02
4.793431340834595350e-02
9.393347481144773137e-02
1.197576304002854891e-01
7.296011334582114261e-02
1.173634638065284563e-01
1.250209205627687281e-01
1.285501667499525935e-01
7.165997672168752941e-02
1.515505711642684550e-01
1.722243975940493388e-01
1.779451214239706203e-01
2.450809672453389820e-01
2.741754636885398444e-01
3.303054452891532877e-01
3.670527723396166397e-01
3.522908695773702137e-01
4.345560713457852220e-01
5.175268663716896533e-01
6.134923047159579479e-01
6.573281104896444571e-01
7.687526118330256786e-01
8.110096280185842277e-01
8.607047942369043803e-01
9.121424459090805570e-01
9.476914276040440122e-01
9.908412383261333556e-01
9.906230526763166733e-01
1.035908457115442882e+00
1.012896508179742527e+00
9.894958514910848768e-01
9.878228369752600768e-01
9.008369470481588648e-01
9.077892644387440813e-01
8.269497256206672642e-01
8.177543375398912406e-01
7.808409173471279052e-01
6.863133538773279474e-01
5.258221247280168154e-01
4.935916742342730257e-01
4.311986886889566106e-01
3.472472990891525280e-01
2.830477448426780840e-01
2.970282680538878783e-01
2.407327523792838486e-01
1.921362104380695546e-01
1.720152436065218171e-01
1.435303138392142186e-01
1.137492589755473016e-01
7.924850357127116718e-02
5.723991241757000331e-02
5.363912423150507536e-02
4.340938200246080569e-02
4.401497659376761573e-02
6.299089928781076431e-02
5.544326974959400134e-02
1.071271568331603197e-01
6.169812902084329670e-02
7.325619250843376506e-02
6.553290007128055594e-02
7.205993103570325353e-02
1.479747451283706106e-01
1.313518974761778424e-01
1.108567958120967034e-01
1.332372667326650051e-01
2.460751063758340185e-02
1.172835731683529448e-01
1.002483879500915276e-01
3.816298042199987167e-02
1.690240225014620623e-01
9.948987370722719992e-02
1.440238943260268578e-01
1.967143010532913239e-01
1.646604815717817583e-01
1.870274974920418942e-01
1.616715035339984508e-01
2.106253833121699282e-01
1.580702462406498865e-01
2.102270860431473820e-01
1.581948702839608978e-01
2.028311560839566319e-01
1.826198349411333743e-01
1.765300118210547109e-01
2.217533075164566103e-01
2.086667697394130050e-01
2.217887734397974153e-01
2.492830517061839224e-01
2.190367853812685839e-01
2.052459242912603177e-01
1.859795435858765389e-01
2.353466390662265484e-01
2.596206273506507789e-01
1.691898445051096822e-01
1.396012304465391041e-01
2.328953674403745899e-01
2.210961591895377887e-01
1.643601610595765705e-01
2.054591015068016058e-01
1.932932262940278423e-01
1.858031688337120624e-01
1.536367154227281651e-01
2.057244843780762222e-01
1.940762485957905903e-01
1.314219517091248235e-01
1.971575992210001238e-01
1.898429699459643905e-01
1.271983945257310067e-01
1.353197861906954014e-01
1.130921155190522387e-01
9.792513658929963283e-02
1.613302786928891563e-01
1.249444603973653145e-01
1.075688990241648324e-01
7.755103985319150572e-02
1.469358548248421714e-01
1.718914990348309468e-01
8.568041849182500558e-02
8.787087615573985211e-02
9.261384843315098592e-02
9.671286895583286469e-02
5.449835709946065226e-02
8.636025516783352174e-02
6.408608871174616139e-02
5.175917127524762296e-02
1.069293887297399770e-01
3.884610613232604426e-02
7.710191216954809246e-02
7.880897041239989798e-02
9.683919084996611693e-02
-4.524508140964690617e-02
5.083693086421729040e-02
1.824280578574852263e-03
3.439756686324398072e-02
1.945026751030264067e-02
4.760715351150562880e-02
3.231601603196238709e-02
-1.207926320877853593e-02
4.149709739251682128e-03
3.246899155209861942e-02
-4.762205556085606639e-03
1.853043153273830485e-02
-8.213155854872893069e-02
-3.239654422049892402e-02
2.191346675089501927e-03
3.637412897378296261e-03
-2.832045170279966911e-02
-1.062429937835297766e-02
-3.454183038122514426e-02
-7.103922304070972582e-02
-7.267728302993269052e-02
-6.468912021551841141e-02
-8.200535785057777582e-02
-5.026689419254115609e-02
-2.670343490542200632e-02
-3.199360347393505333e-02
-5.758696431170532565e-02
-3.439039232758614451e-02
7.695048968372683595e-03
-4.016379412621230022e-02
1.344283480018185900e-02
-3.736945637508751888e-02
-7.033490950765719507e-03
-6.401706912565995056e-02
-8.291394056413832481e-02
-9.431878389224060411e-03
-1.630745218735273755e-02
4.012129580526636874e-03
-2.219759590353602083e-02
-2.637339745190601936e-02
-7.151193141142568599e-02
-2.324497641024370759e-02
-6.782293314884274560e-02
-5.227080546528546645e-02
-2.788240599606570114e-02
-6.114950205293130658e-02
-4.443487677345352160e-02
-3.946939893784870423e-02
-3.594191441521045471e-03
-2.276897228497404280e-02
-4.432157291556351048e-02
-1.176354120606323828e-02
-1.978450528391929170e-02
2.539829262615346528e-02
-9.942194979426222101e-03
4.178144935524272241e-02
-1.368787007544272627e-02
-3.191606774870708874e-03
-1.027467133406876482e-02
1.316790172367142409e-02
1.814488393839505664e-02
4.882074120507076676e-02
9.185467813839713613e-03
-1.697528219417195755e-02
2.059238510455611848e-02
3.427131360731406479e-02
3.934020804615105671e-02
1.144508976454949173e-02
3.843835897875548524e-02
1.016646429161612852e-01
7.028610443095113791e-02
4.835841175199898090e-02
1.112282491723975697e-01
5.048253295509197436e-02
7.411268181785292397e-02
8.083755465651612515e-02
9.837491795857501720e-02
8.110522141765541537e-02
7.134786986547556054e-02
6.458053180324932474e-02
1.160655958601263527e-01
8.663735788789106440e-02
9.091059266697137931e-02
3.071900789611450855e-02
1.245284282568609041e-01
1.076133684163823878e-01
3.997120112768279276e-02
1.001231179278059130e-01
5.851995711868088895e-02
5.564777225995972548e-02
8.225189656949856432e-02
8.370396656127906954e-02
1.424428089824313903e-01
1.084752169667984878e-01
5.942390553192834768e-02
1.075518298032859532e-01
4.137705972927142178e-02
1.170198936143448387e-01
9.470675115482457551e-02
9.743669660535747568e-02
1.529195342980482486e-01
1.759283566573353330e-01
1.591923549418987616e-01
2.546116635977091480e-01
2.603483334838897489e-01
2.895639616723399423e-01
3.653161566860711473e-01
4.281220629984152648e-01
5.105226558013503668e-01
5.547816373025542536e-01
6.123792463301042099e-01
7.009790678809544318e-01
7.113509115519519588e-01
8.442352231644645322e-01
9.177768432763981910e-01
8.695262773505030296e-01
8.934103703200867441e-01
1.004356888689317939e+00
1.040584734494432340e+00
1.011014570236644428e+00
1.031345228839058992e+00
1.007987697431825813e+00
9.810718226171538658e-01
9.362502175519764602e-01
9.026639581144833002e-01
8.569268541865027178e-01
7.648377039628633245e-01
6.448819419309662626e-01
6.023756795636073802e-01
5.653440990805490562e-01
4.959540364970534410e-01
3.926932627294492661e-01
3.737141895888955734e-01
3.265615100246347380e-01
2.261138201396232783e-01
2.264007530931112511e-01
1.765178862627529710e-01
9.840693097079108997e-02
6.762793478400541680e-02
8.423946531477703725e-02
1.421015426544384175e-01
1.155568783977889147e-01
5.639722479697401036e-02
8.751164570768421580e-02
8.700296156977846418e-02
5.630241198504749162e-02
7.952632784203633731e-02
7.660499412903046257e-02
4.362354294908955127e-02
1.116548758279521103e-01
7.700792699329013502e-02
8.080836709465819001e-02
1.436866669979603439e-01
1.603056566818678030e-01
7.288517533112398583e-02
1.231660323158749737e-01
9.937424228585525765e-02
1.269765163622819659e-01
1.237077776029107123e-01
1.099375171425541753e-01
4.710236409234513921e-02
1.666130507988395903e-01
1.100799061452896188e-01
1.608871549815328039e-01
1.711894672289473729e-01
1.745654262978647009e-01
1.443663184022170309e-01
2.022194465569617239e-01
1.934318015137343194e-01
1.365037704177485545e-01
2.177259717406109518e-01
1.622399619088019940e-01
1.995882618386940477e-01
2.195866713760251665e-01
2.214001322802669480e-01
1.735346253279894946e-01
2.068140481170787359e-01
1.902747251831609088e-01
1.665340184161226977e-01
2.048317918200297794e-01
1.639239410165141964e-01
1.991842207349342198e-01
2.010420602291045633e-01
1.904295900136925845e-01
2.230716312401647972e-01
2.501068173334038969e-01
2.091666334536322336e-01
1.823433515690452977e-01
2.365425250568367055e-01
1.885558279580399899e-01
2.173257622779396214e-01
1.800064119350650582e-01
2.294338037615270831e-01
1.846909968890655396e-01
2.022179093032026309e-01
1.830874471385620095e-01
2.098370183597419725e-01
1.817615344845697201e-01
2.154209849296925272e-01
1.825745604134623168e-01
1.378610015866068850e-01
1.378877101397268101e-01
1.228691370797989207e-01
1.279159568790372847e-01
1.517420713566497992e-01
1.523445065004606358e-01
9.344083818718483536e-02
8.784446651567323627e-02
1.295596293133738086e-01
1.335904475095838762e-01
8.323815932457284683e-02
1.115494541577831816e-01
1.239449955302268647e-01
6.142963958048922035e-02
7.997469472363973042e-02
5.220453140238419387e-02
5.032588833402291961e-02
6.442422387183764643e-02
5.416714865537630014e-02
5.847399737184880153e-02
1.021856288657602488e-02
1.028888709694841253e-01
7.416922172259435286e-02
3.169964716205075916e-02
1.640918076215320057e-02
6.220458994213216852e-02
6.766133281054603765e-02
2.327845802797979743e-02
-2.677833171349529306e-03
4.400879395580192116e-02
6.161218940107276998e-02
5.152314322122829304e-02
-1.131365362076672959e-03
-3.379990160311083236e-03
-4.643884157268708679e-02
2.491334403772117387e-02
1.084305942901378148e-02
1.880100894704034992e-02
-3.781746500998672128e-03
2.631597006276707382e-02
3.004135168579756196e-02
-1.320802196506736491e-02
2.680331837813147711e-02
-6.724982704475600259e-03
-1.086569944941175037e-02
2.560942072552356563e-03
-8.874663491540739357e-02
-2.457838219221940290e-02
5.586086375725270864e-03
3.621639382093526371e-04
1.545043447684851801e-02
4.068051817275643300e-02
-2.054885219354624093e-03
-4.438826195112220707e-02
-4.283540701826006603e-02
-5.252523733046080695e-03
-4.828055623063946117e-02
-1.292367448207090881e-02
-4.995371700882686450e-02
-5.570396129288014697e-02
-4.502972539070226182e-02
-5.576073089686911510e-02
1.259944800389682651e-02
-1.690226171103176647e-02
-1.805218976007041953e-02
-7.427047348384918993e-03
8.281168625771287428e-03
1.819262580714983701e-02
-2.831528506440519205e-02
3.543831418672543920e-02
-3.542231042279354869e-02
-1.569620217124983313e-02
-6.183492778219827624e-03
-3.473550926267256200e-03
3.940962777954966356e-02
9.823533991580389590e-02
9.001936221438161523e-02
5.026083412192068611e-02
7.883524268940579616e-02
3.134469536526872380e-02
6.460174002589977316e-02
7.580684420307902405e-02
4.520391842428757301e-02
1.130180623929230715e-01
1.156267566119618395e-01
7.365783181085611142e-02
7.494016852483467717e-02
2.451647429406333609e-02
1.480878374687421006e-01
8.654930775213467986e-02
1.172332643259547114e-01
5.720799351736754329e-02
1.101711348614485553e-01
1.277614588636199477e-01
1.395016447664607084e-01
1.497267980943168264e-01
1.720257855000268399e-01
1.584962176126072375e-01
1.093563618116599606e-01
1.158318728057065594e-01
1.116977111276416801e-01
1.218086611463169155e-01
1.418082334690422552e-01
1.771543378614460762e-01
1.607674695478219784e-01
1.132570567957906643e-01
1.041861064253496033e-01
1.454164522731833387e-01
1.602528668886125662e-01
1.033868242477878896e-01
8.627644360225127096e-02
1.915132177654481627e-01
7.705468521258533598e-02
5.955253505756581689e-02
1.012922985213725313e-01
1.473911415077163167e-01
1.860163090171075284e-01
1.259906907430152767e-01
1.215023889694850784e-01
1.486078259430748949e-01
1.753488288465749612e-01
1.972406265028230632e-01
2.597193789001739916e-01
2.667871141919401223e-01
2.885632765013888545e-01
3.483381718680766959e-01
4.192755330899790578e-01
4.098984595798073061e-01
5.105584880895759348e-01
5.709935318410884753e-01
6.552728699551412239e-01
7.144659533404403851e-01
7.585599160595155599e-01
8.490418572647193685e-01
9.748277607186224269e-01
9.391732405466056699e-01
9.321776287983256637e-01
1.073095606561649040e+00
1.036906317036883962e+00
1.072218229062745776e+00
1.092939793861754660e+00
1.041004896414482905e+00
1.027691890909849359e+00
9.464716767412091336e-01
9.035094237481581247e-01
8.701678025840673403e-01
7.831163718034859222e-01
7.100311931646420271e-01
6.542906857906767293e-01
5.695524455011540255e-01
4.933826600594703460e-01
4.816825308503115965e-01
3.571455516740686953e-01
2.988123844292601694e-01
3.530993054665187425e-01
2.683049652171262678e-01
2.328302021918441100e-01
1.936955543838014271e-01
1.901814032811641464e-01
2.059046870148306674e-01
1.594122207100843736e-01
1.162869714072070348e-01
6.020810941238118053e-02
9.058624271374735026e-02
1.001792320867685021e-01
7.966861734960897778e-02
1.301141466856814144e-01
1.194118022839326665e-01
1.234152332209544900e-01
1.154020488352649199e-01
1.336570915811911009e-01
1.501059092779584991e-01
1.750316532498625288e-01
1.599854519852423884e-01
1.322538885158844879e-01
1.315554273153297649e-01
7.990877629471057619e-02
1.896325919728814591e-01
1.644647208424548923e-01
1.898971577419850676e-01
2.081934710641483999e-01
1.835676250769092410e-01
1.918857864188845130e-01
1.344127634084885670e-01
1.768176498735602176e-01
2.423623807431987687e-01
2.223304147246999707e-01
2.324287747600605469e-01
2.426772519414721885e-01
2.523609203288759151e-01
2.481622333406829639e-01
2.391159123312907031e-01
2.676117641808091197e-01
2.494195348430330861e-01
2.932264544692679276e-01
2.523584901303388417e-01
2.560469865589294347e-01
2.777314371736483434e-01
2.641793684188770142e-01
2.621772923443446701e-01
2.494846337835506245e-01
2.442065881146142647e-01
2.935565288670737849e-01
2.700264647217936465e-01
2.643846933908483021e-01
2.731506399161651166e-01
2.701663739614255100e-01
2.247111178868963777e-01
2.818406193633115064e-01
2.645404734112082878e-01
2.726629132082873941e-01
2.322518147898073315e-01
2.341819371050139764e-01
2.266813485653083604e-01
2.984222834584135953e-01
2.713491065619371700e-01
2.381636389480550065e-01
2.397147539250119308e-01
2.470354455946156547e-01
2.020990765066726924e-01
2.257628052896694659e-01
2.411462718003476724e-01
2.078807543441422157e-01
2.532698687514701730e-01
2.288412191801058038e-01
1.873288042729479019e-01
1.738950180768413512e-01
1.575134651645792028e-01
2.288286022748771686e-01
1.697529149023741246e-01
1.133556380939192976e-01
1.655539715328933625e-01
1.368376783942739650e-01
1.183288236922842573e-01
1.218553975302418269e-01
1.505247034531036476e-01
1.871174643808957982e-01
1.842598024390884603e-01
1.334668015392381224e-01
1.131890290051841552e-01
1.073254229844990970e-01
1.320435257225361647e-01
7.290285807478157076e-02
5.855093350752556269e-02
7.496599981787660516e-02
5.887515262141564121e-02
7.573344389295490198e-02
1.092786498295574005e-01
5.388828405733621374e-02
9.707952432070648952e-02
3.894399360494596452e-02
5.541340346881624968e-02
4.668074134133398667e-02
9.442085141758677080e-02
4.271105238592837888e-02
4.277045798632940488e-02
8.183827849399727405e-02
8.398868774290578487e-02
7.792294082915583731e-02
1.833144427746340871e-02
7.393731184365197329e-02
4.258478581639280058e-02
2.706774707675392577e-03
1.945062562181168117e-02
3.983182518253104709e-02
4.036121073542009441e-02
2.496134074004230374e-03
1.455978770809695719e-02
1.833076246514100255e-03
3.686365232996717534e-02
4.306296558385575013e-02
3.439788427025090856e-02
4.955361014499670008e-02
1.242610822697859385e-03
5.312424107487771774e-02
7.204737632023824889e-02
4.680539549209390693e-02
2.107460377899083789e-02
-6.325688919105919295e-03
6.898615642030266060e-02
1.641452660327637203e-02
1.281691771863981144e-02
3.002188971584298510e-02
9.755735450341501691e-02
3.781222691841806816e-02
6.341011431630365347e-02
4.116331627283706385e-02
-8.366721466049165112e-03
7.962526047832441112e-02
8.202819838864583435e-02
1.045042913704921916e-01
9.827721489834637114e-02
1.048561615920675372e-01
8.494100121739528442e-02
7.636929514040546874e-02
7.589995728206061498e-02
3.138126262354844209e-02
7.145555168408272706e-02
9.586358828842078683e-02
5.589787843337523654e-02
1.369375988857272075e-01
1.002625717476161027e-01
1.233872944975680508e-01
1.169848470224173070e-01
1.164511885259070234e-01
1.196057788745592820e-01
1.305963827178332204e-01
8.838180590211057452e-02
9.001244697437905951e-02
1.654367896994796416e-01
1.488809897793334780e-01
1.666128983938557351e-01
1.760819182739535582e-01
1.591145338497378381e-01
1.439098825586784258e-01
1.643425317132011232e-01
1.801777067186516867e-01
1.931496429928088454e-01
1.946171854347964192e-01
1.960509375136034738e-01
2.194092991037094320e-01
1.353667322857541877e-01
2.020902301510445476e-01
2.140596416956383474e-01
2.388838562610298144e-01
1.560297282849435196e-01
2.275091562795149014e-01
2.546795326405127957e-01
1.658856470582786014e-01
1.686202751272407319e-01
1.513111559386062788e-01
1.983431347730567063e-01
1.787102638531225529e-01
2.127571088634653829e-01
1.377783746208819382e-01
1.719191725239229140e-01
1.612363118157119080e-01
2.067743539259359886e-01
2.372104671389089758e-01
2.565708841403357976e-01
2.142971874074341421e-01
2.468981487012981146e-01
3.070547968086232427e-01
3.344220427654797656e-01
3.427801386240053594e-01
4.162521444702768636e-01
4.269778353977448093e-01
5.170328501589914749e-01
5.939440695376094759e-01
6.387574144213710170e-01
7.280701937099864907e-01
7.961839814673589144e-01
8.046056912103917158e-01
9.231988412290701440e-01
9.896251573216969799e-01
1.073616052629664974e+00
1.043546603228171499e+00
1.107122890941640403e+00
1.134986172930389836e+00
1.124752392754726049e+00
1.119841459247357562e+00
1.080220551517280025e+00
1.066831260148638494e+00
1.082747006876847218e+00
9.425112660764016770e-01
8.770419675472942433e-01
8.055284290853853557e-01
7.169516029173521598e-01
7.328788951097998661e-01
6.184708729085920398e-01
5.189217048865496507e-01
4.823793267374985039e-01
4.230870874095790102e-01
3.718942658627367726e-01
3.223664437272553140e-01
2.726807650689320184e-01
2.708235038446833443e-01
2.055111849163431814e-01
2.008621417588299651e-01
1.505175600347153364e-01
1.862186813724508450e-01
1.574565717805767595e-01
1.625328642939276036e-01
1.944530522237816195e-01
1.602509544656550711e-01
1.156094119589660130e-01
1.398369432579470717e-01
1.351403656868128411e-01
2.088448986974394683e-01
1.092285850566066807e-01
2.046949485152908810e-01
1.782693980234937026e-01
1.840480331188168728e-01
2.001353015021669346e-01
2.435535782411402950e-01
1.074952490545061368e-01
2.022793627258661076e-01
2.150775645380492707e-01
2.119641368905878509e-01
2.085384428931358336e-01
2.108858039718940480e-01
2.342804573610292040e-01
2.003729669543088399e-01
1.905798834359007932e-01
2.116752038097302335e-01
2.725312220527177365e-01
2.818321573622350473e-01
2.980677418194470629e-01
2.700445409626939797e-01
2.471102128072583670e-01
2.930175100722083315e-01
3.055536230590453206e-01
2.602264899557656941e-01
2.682288695054547700e-01
2.968591719184079381e-01
2.266832018377228641e-01
2.546525028942109303e-01
3.088680099346405861e-01
2.862046201953265534e-01
2.760054574505480529e-01
2.542561641634131231e-01
2.980996409302491545e-01
2.922832516085207555e-01
2.862664012243253397e-01
3.055652172662983723e-01
3.124896301472818716e-01
3.596809326728792056e-01
3.273470430330116532e-01
3.340075186820298803e-01
2.543275352915665977e-01
3.308196404778914190e-01
3.270543646689898498e-01
2.883545072481921157e-01
3.135689039909227982e-01
2.545142725830029096e-01
2.525146674524383350e-01
2.408055565285792676e-01
2.290452577146963598e-01
2.811901511734010706e-01
2.819683876852653315e-01
2.495223186187697229e-01
2.235799730988168033e-01
2.625524481929003562e-01
1.908768337696191142e-01
2.263540301107276054e-01
2.262517273127550854e-01
2.163523704147376492e-01
1.974460713575554305e-01
2.163774000474411041e-01
1.638418963136952233e-01
1.932727912253680014e-01
1.414280188364764879e-01
1.591569870404970777e-01
1.756336642272389448e-01
1.864730396777043442e-01
1.876425213380839563e-01
1.600240222281641700e-01
1.808483165273516158e-01
9.379755265964748179e-02
1.200829470392183740e-01
1.594728706602162593e-01
1.606833932270801679e-01
1.062266086271892729e-01
1.212632788275546936e-01
1.057061915215216086e-01
9.048924267097818719e-02
1.327787430935905844e-01
1.223357616554514721e-01
7.623275134281494447e-02
8.634569719396312237e-02
6.782724905657708248e-02
1.453679692618351504e-01
1.028252105132727579e-01
7.723051903355745984e-02
8.596993835271103668e-02
7.255564705713499207e-02
9.942708660000054710e-02
6.069233803638310332e-02
9.051644763249538927e-02
7.351419197603364930e-02
8.942743492732119215e-02
5.185314585403867638e-02
8.918759716867338816e-02
6.233792398245845134e-02
7.886724665059176298e-02
7.900093871394033018e-02
4.545191593373205940e-02
8.052163708630852290e-02
-8.122609352204102073e-03
-2.595079723339351746e-02
4.555618656880709716e-02
7.747140005891178793e-02
6.162019395602765653e-02
2.873889737378946402e-02
8.204822806665854062e-02
3.488442296369086149e-02
4.017338723006280699e-02
1.204131166216002580e-01
7.389158199882500666e-02
8.045978285071732350e-02
6.578929425550052168e-02
9.468553474026225603e-02
7.202635335815044115e-02
3.737427835325961983e-02
9.820914395422650212e-02
4.797707039132653034e-02
3.581730504805781534e-02
5.720230124404224875e-02
8.541966848225657216e-02
7.016782115201379566e-02
1.039535324216715184e-01
8.672189306002527076e-02
1.022866288026688109e-01
7.442315014169170739e-02
5.786745509528913589e-02
1.132886491598047302e-01
1.875141947730958880e-01
1.391083895902913425e-01
9.638757617661888877e-02
9.639876584847403840e-02
1.037710115419678558e-01
1.563549319082467304e-01
1.060141500836816048e-01
1.610365294101969713e-01
1.445891642808515010e-01
1.551957711197665124e-01
1.690346239956291019e-01
1.590743350424412839e-01
1.928281861457883106e-01
1.105574382639434999e-01
1.338330431693500466e-01
1.569573585848907937e-01
1.729244597509248249e-01
1.508015446917244096e-01
1.727611174698074348e-01
1.953250120733285300e-01
1.796663652308966297e-01
1.856231850083157608e-01
2.065028017433012952e-01
1.835044074299052586e-01
1.728390953624908688e-01
2.102728286911740851e-01
1.766075590528754791e-01
1.817734763423154432e-01
2.027029768002087118e-01
1.829702894888891873e-01
2.277719090594723106e-01
1.923262665486747958e-01
1.463258239758581936e-01
1.331533569101822079e-01
2.114346216241305698e-01
1.880927445296014799e-01
1.314756688136880514e-01
1.853909834337864604e-01
2.057850513740184517e-01
1.877650724347732780e-01
1.979372599693213775e-01
1.974381944255330368e-01
1.864323714145087740e-01
1.800220662861967691e-01
2.369231364097023895e-01
2.418798240025104573e-01
2.825821289200699526e-01
3.586718095670798911e-01
3.346643772875602663e-01
4.069173265959974417e-01
5.205485840831192146e-01
4.888078932784160058e-01
5.663798193709822515e-01
7.161076172661814399e-01
7.159056226691176139e-01
7.827710463894962389e-01
9.132345545123536912e-01
9.325330699371844334e-01
1.040674917047104131e+00
1.060493518706874472e+00
1.109928895829442652e+00
1.109171825437658354e+00
1.142619977565340283e+00
1.114561270883337896e+00
1.148480138470320266e+00
1.057510897037819086e+00
1.015903641450580208e+00
9.609019333799824203e-01
9.642972340437032663e-01
8.490436805155897604e-01
8.047881002305631304e-01
6.881285519875435241e-01
6.456684643255315992e-01
5.783543646880193734e-01
5.391247468662855313e-01
4.464966739311410637e-01
4.117273744034312122e-01
3.682509220100158021e-01
3.314564966669164559e-01
2.059899425062343137e-01
1.987895014693497886e-01
1.875136519843645100e-01
2.251165219086622704e-01
1.662952609076676080e-01
2.357953404326720570e-01
1.315669356696176351e-01
1.871085229924411009e-01
1.859752587803532031e-01
1.013794290657648312e-01
1.792781654045562112e-01
6.077877935562456257e-02
1.632349142981481538e-01
1.716979615626115785e-01
1.667200075445402219e-01
1.959700717347324095e-01
1.694974487026554288e-01
1.486235450136827174e-01
2.041504411793522988e-01
1.819304298908084316e-01
2.324142758774960515e-01
1.255395603111004732e-01
2.263768100478316669e-01
2.052001858505893006e-01
1.843923089646499758e-01
1.703062262873175359e-01
1.850387380213769362e-01
2.521606260574775216e-01
1.761479178467742490e-01
2.426381888324136982e-01
2.798889310216901016e-01
2.028591571011376382e-01
1.666498290993430609e-01
2.115300732026688113e-01
2.975423419655058854e-01
2.338904576596571305e-01
2.264373075278112712e-01
2.894085985417113038e-01
2.556208886475850317e-01
2.851774106320434932e-01
2.587120694034829027e-01
2.917232593445436284e-01
2.695512817117197701e-01
2.617085302676892544e-01
2.513323359488566222e-01
3.014093833192114102e-01
3.380985237111354680e-01
3.196056320685439767e-01
2.841789290744096141e-01
2.537411746089306974e-01
3.558373690570986736e-01
2.925773263324690232e-01
2.473214434746842383e-01
2.640185103079110696e-01
2.771808076609592053e-01
2.760242078975712055e-01
2.730972571538561877e-01
2.988846388662211306e-01
2.308273790982968976e-01
2.901509492899485565e-01
1.709471569211699071e-01
2.430041520529916399e-01
2.713607799531083664e-01
1.982522547423381243e-01
2.531674328260243301e-01
2.183801482369524538e-01
2.229641014315790759e-01
2.456873451092518590e-01
1.224141458629934009e-01
1.606309734343873141e-01
2.570751452647030977e-01
1.311398933539956735e-01
1.686418042445988197e-01
1.504030789989709016e-01
1.844437438325560730e-01
1.540576058389564462e-01
9.936253552472644468e-02
1.910679812772050901e-01
1.753099105731692753e-01
1.708954802162553910e-01
1.281336269788421467e-01
1.022348572835918845e-01
7.795878952106044535e-02
1.318617634474772704e-01
9.092267243957136147e-02
8.949864075464837587e-02
1.077969091016663661e-01
9.008454879421309847e-02
8.087217006049569890e-02
6.442274889587348841e-02
1.064370328577282365e-01
4.593431222508197187e-02
8.576772354723156966e-02
6.176115894980112320e-02
8.407668145582339325e-02
3.017558153571998567e-02
5.609544548928776381e-02
6.409007282242068504e-02
7.800683806466087583e-03
3.261993548858443948e-02
5.585627503208532435e-02
3.487799475201125432e-02
1.527443097425253138e-02
7.793847037876511230e-02
1.015146113786562568e-02
-1.353057226724050516e-03
1.134502853606801989e-02
-2.049023222302071359e-02
4.656969181360062771e-02
1.040867237217797669e-01
2.639198195685880932e-02
7.950489431356072209e-03
1.820930558669485791e-03
-1.884288561306189311e-02
8.940372024655250660e-02
4.475045115022040221e-02
4.823259987501489487e-02
2.017801424828758600e-02
9.502691101855514910e-02
3.481609033105406703e-02
9.294475459059590994e-02
-5.096041771760742925e-03
-1.258957212618033034e-02
5.956767450741860120e-02
7.704773587823329772e-02
9.108373979464759462e-02
1.546397089989469224e-02
2.136097122184988512e-02
-1.247958758789115621e-02
3.965116421411538083e-02
3.603123386909944798e-02
2.581899667347404073e-02
4.839271173135300391e-02
6.813391905517875158e-02
6.195202757885627520e-02
6.899249945931089367e-02
2.488571960974463038e-02
3.830306617103514805e-02
5.615679958089477009e-02
5.138713866455989904e-02
9.737808225387126204e-02
1.670307877191799795e-02
1.092983926006575734e-01
4.933210336013166275e-02
6.388142399706238372e-02
8.498752407842583012e-02
1.018362486000801842e-01
1.520681905179698257e-01
1.203928865744462173e-01
1.363915028081418568e-01
1.241620914868376557e-01
1.930300083860077287e-01
1.356157168054519524e-01
1.334167232191028618e-01
1.323051398671312717e-01
9.978452773006322996e-02
1.463694217043363111e-01
1.472821244068286128e-01
1.571436775281466747e-01
1.129811421567816637e-01
1.320522446035182207e-01
1.305134983981163233e-01
1.641259935259182512e-01
1.162480149714434086e-01
1.488999782502213876e-01
1.588774832399211245e-01
1.513915180841477193e-01
1.357100099048467456e-01
1.201001672418326727e-01
1.499530567149290339e-01
1.249514760861776957e-01
1.849437549092150523e-01
1.410891789377762828e-01
1.133409178739996914e-01
1.350021428367207121e-01
1.471337102134326058e-01
1.012976478006306497e-01
1.182517047248620584e-01
9.920701078606347645e-02
1.182150831179686334e-01
1.368931341704351934e-01
1.223045521188769330e-01
1.821874129176628831e-01
1.534048481324003510e-01
1.630470041861153130e-01
2.521629039241871650e-01
1.850140479240900970e-01
2.481585495792859586e-01
2.711267442149235540e-01
3.339229649702782354e-01
3.905215513274483685e-01
4.568738698105471729e-01
5.607492328451240127e-01
5.363982645827849449e-01
6.880827893311104448e-01
7.023189530043770779e-01
7.951000664600852419e-01
8.705223106078815443e-01
8.891409456666448108e-01
9.399101767212113545e-01
1.049098116688900406e+00
1.081410715825907864e+00
1.008798196954741710e+00
1.088960226101445272e+00
1.039053313150747559e+00
1.086697934218193273e+00
1.019742829712276366e+00
9.650876957785017307e-01
9.272368729368162255e-01
8.493477172993357804e-01
7.959633987962555501e-01
6.902621123264933711e-01
6.372075104712322524e-01
6.396249259588818736e-01
4.894066533579297662e-01
4.539294092228721711e-01
4.344154390641200569e-01
3.569916623647186871e-01
3.072594451517410841e-01
2.587578591499979930e-01
1.412093730689533699e-01
1.933846417286926300e-01
1.709442766989339169e-01
1.277766269041343827e-01
1.453066104004824832e-01
9.548900260213812052e-02
8.370921198533161356e-02
1.324375189998429070e-01
1.095153310837817806e-01
8.032344129109642017e-02
3.557406080707524454e-02
1.020249387619316661e-01
9.672486399358762310e-02
7.713954879273275667e-02
1.071023612502690903e-01
6.672410323414869338e-02
1.251848456056923742e-01
1.313456505763122284e-01
1.189662392686867548e-01
7.857525460842459952e-02
1.559548117194859418e-01
1.355643939368712525e-01
1.104111190682572630e-01
1.118480545859409786e-01
1.121566403707105752e-01
2.292712549663976085e-01
1.898995811848005200e-01
2.504990978886150743e-01
1.468068309283346584e-01
2.173128685069696253e-01
2.230600075786942083e-01
1.775938607575968109e-01
1.899100624156875861e-01
2.345609850889129600e-01
2.183534210132087594e-01
1.742605043044238300e-01
2.090674672673599188e-01
2.254307627130506253e-01
2.289594990484045134e-01
1.474735600220468679e-01
2.090448594665767490e-01
2.895528863616024795e-01
1.886410451106265984e-01
2.473065591504524097e-01
2.488750722729556608e-01
2.124309763575485399e-01
2.279836747690775767e-01
2.018960607277034691e-01
2.278123812864374931e-01
2.408303992455021469e-01
2.560474183758290612e-01
1.901555234215434875e-01
2.224675095456458973e-01
2.329203191493946223e-01
2.075216757226693853e-01
2.422204601940690927e-01
2.474883751994071956e-01
2.301842616292804622e-01
1.319677389114607136e-01
2.023620924190427661e-01
2.283746826538330943e-01
2.123215511457128002e-01
1.812167743246042018e-01
2.410882906533993453e-01
1.843652105696569898e-01
1.324803245717495748e-01
