9.547824491983712969e-01
1.005427023926817931e+00
9.177613464321888737e-01
8.784823972781165002e-01
8.894648049127039657e-01
8.549067254138029703e-01
7.893279402672583878e-01
7.171141599285006940e-01
6.488586789645239827e-01
5.869384523447529478e-01
5.250421761141258470e-01
4.521175460156876547e-01
3.923630232811074481e-01
3.415473260138692790e-01
2.490203699947300953e-01
2.645537669156284299e-01
1.859199845016485109e-01
1.013139758847100974e-01
1.596563798851498295e-01
1.471598666603719519e-01
1.437848281284010987e-01
6.998604222174498179e-02
-2.339569031158168083e-02
8.091969795630871154e-02
6.839467370573709681e-02
8.592815118734928315e-02
1.018537535740056954e-01
8.286127389600750348e-02
9.573205050810623673e-02
8.587657656095354364e-02
9.176821479817096061e-02
9.159941109423876127e-02
1.548899083197244342e-01
1.364079330739852158e-01
1.141030379435979264e-01
1.000122498789275255e-01
1.043303909209973568e-01
1.711114795422896129e-01
1.325441473549790194e-01
1.563523508657555239e-01
1.226928643463852941e-01
1.597372201844010076e-01
1.117075232514457700e-01
1.486879973974723768e-01
1.437317139106098762e-01
1.124454994136110664e-01
1.681460754118917766e-01
1.585377663002115189e-01
2.110594445523911733e-01
2.241142986246685287e-01
2.237866137817020595e-01
2.242251805791534713e-01
1.395141074255923652e-01
1.745413691464646200e-01
2.146632915870863578e-01
1.745397212410722543e-01
2.074786136185245156e-01
2.674558321799013205e-01
1.890686855265941158e-01
2.002596723783657273e-01
2.062479068216892808e-01
1.784643106675542490e-01
1.778752856299957719e-01
2.042037057457484206e-01
2.312567398960376219e-01
2.475375221951001126e-01
2.299825144718030401e-01
1.772016901037665182e-01
2.277849306928845241e-01
1.889329880703110587e-01
2.250894340013263051e-01
2.265732530258367516e-01
1.829165670092895435e-01
2.858602935479171991e-01
1.712122674376758691e-01
1.751673521400236022e-01
1.995852387610898004e-01
1.965799680165636609e-01
1.331260967902760939e-01
1.428395992804035175e-01
8.129081091968987094e-02
1.265520123045211776e-01
1.765125047362859911e-01
1.777432307233280939e-01
1.597548858559421914e-01
1.313686273285742390e-01
1.146091316927896619e-01
1.117308932659714649e-01
1.332517201551453589e-01
6.638753125666840837e-02
8.006294033153142642e-02
1.410407504247408739e-01
7.577378605121720678e-02
9.119199469926816959e-02
7.456599886721358705e-02
5.079931169984199663e-02
6.242928804246770935e-02
1.124664653354629229e-01
1.248460070275077827e-01
5.372693892139140948e-02
9.526157189346104448e-02
3.001760510708364332e-02
-8.128880764989541985e-03
6.951927207858968338e-02
4.423731740407047669e-02
3.735598244718781047e-02
5.479567879434261990e-02
-6.816905918357457628e-04
3.653403659302453116e-02
1.000292170909188039e-02
-2.685535394010611643e-03
2.268666787882810121e-02
-1.508914547278557283e-02
-1.618277892501776560e-02
-3.604256679226688909e-02
-2.852996060490847405e-02
-3.601734580123860940e-03
6.184607786436875643e-03
-5.988627148026490210e-02
-1.468601738605847945e-02
-1.822388456784303570e-02
-6.118923868899066310e-02
3.423819807666644843e-02
3.437901601281182634e-02
1.298964676397428020e-02
-2.626439236226234958e-02
-4.987743291549394387e-02
1.198456048357442183e-02
2.134772445843299837e-03
-4.409346488639362405e-02
-4.632038523016603765e-02
-1.064782477317868792e-02
-3.140721603173323578e-02
-2.024547388889703925e-02
-2.891556639547629426e-02
-4.224943972679708060e-02
-6.353657766055356704e-03
-4.375672635294012430e-02
4.365057903933429462e-02
-2.432493220472591033e-02
3.039358691395169232e-02
9.466225983536466493e-02
1.484567654021160671e-02
3.374385754095064749e-03
-1.315583137981653911e-02
4.521479972274201203e-02
2.487788081750323677e-02
1.199514344560052015e-01
1.009985165780808714e-01
-1.015635567790808963e-02
1.258498279060739355e-01
2.502813405784197476e-03
2.278801599951477824e-02
7.180971899965832295e-02
9.670651443671161862e-02
6.375004484827426210e-02
6.433881749253742011e-02
6.169888893056753310e-02
6.152519388354025370e-02
5.209130518743257388e-02
1.032441553865530437e-01
7.417698394337621237e-02
1.206688890016745508e-01
8.455501722180272517e-02
8.813968355242919606e-02
5.252096192431351951e-02
1.429775755769043255e-01
7.179826943049111287e-03
1.146857177206272310e-01
1.083582168738091434e-01
9.316918002321372683e-02
1.076391292979340664e-01
8.507472883607672398e-02
4.842602018785785445e-02
1.004488179857783436e-01
7.014751030271867971e-02
9.162191801208408037e-02
3.413542272590759652e-02
3.753725437371362855e-02
2.662337762957032311e-02
8.424453296701964189e-02
9.723844560813726945e-02
1.090472572087587133e-01
1.219808081366370173e-01
1.696744616381397619e-01
1.622992095437354454e-01
1.395735656317736162e-01
1.804698012225786907e-01
2.699473256317442837e-01
2.249856562674190930e-01
2.954687874393732705e-01
3.537722297819385631e-01
4.488009991739626559e-01
4.466320013890769935e-01
5.423187657296987263e-01
6.381529446053018084e-01
6.801808899732778579e-01
7.197591720999411136e-01
8.073074167116867095e-01
8.778974829121415357e-01
8.135553123254480878e-01
9.266358593993648807e-01
9.495511462856779383e-01
9.722084691974989257e-01
9.668256371650550962e-01
9.196967493910058744e-01
9.775680305424168104e-01
8.322549132115685255e-01
8.852456021113023210e-01
8.586818129169392355e-01
7.127413073212232053e-01
7.379063878899043694e-01
6.416840245763386630e-01
5.385969698026222829e-01
4.886529084346175611e-01
4.000116746393293510e-01
3.908902142976938276e-01
3.352593842473222674e-01
3.054350274250325903e-01
2.516319547764714892e-01
1.983693084015369090e-01
1.423421854572484158e-01
9.671056820565911150e-02
8.914015809998471207e-02
8.815996697132169602e-02
9.578124892580978933e-02
6.250548401708591606e-02
1.384754763453987236e-01
7.250997450567141234e-02
1.178510047879953171e-01
4.135091182364295653e-02
9.970304004389654584e-02
8.375273230497246035e-02
5.554905575269038914e-02
8.803734867462580105e-02
9.370780775922572803e-02
3.543736988534983839e-02
8.424778547646012694e-02
6.112985609590133179e-02
1.228847675892517921e-01
1.026293663665104883e-01
8.840130541118172702e-02
1.598494173711224597e-01
1.333678899152059838e-01
1.226925913865889450e-01
1.326630268428214410e-01
1.336079361693932877e-01
1.149735193053206261e-01
1.585040925615335272e-01
1.812018308829743685e-01
2.485166188239171514e-01
1.252008710743635622e-01
2.038100864519474531e-01
1.562913086273292895e-01
1.751435410679021143e-01
2.075885289133175271e-01
2.093241078898811502e-01
2.050944481232748196e-01
2.098576053980790168e-01
1.946615608855205570e-01
2.357973661467991922e-01
2.353645555842315551e-01
2.181515945269458523e-01
1.684023607067890727e-01
2.130881768567298162e-01
2.220506239117120140e-01
1.713778443367743876e-01
1.727254809433710347e-01
2.091412009670020333e-01
1.922081290824412536e-01
1.911106527479918826e-01
1.730780642091567234e-01
1.495427785980537050e-01
2.166657188253938993e-01
1.887593393807286690e-01
1.875484376701218037e-01
1.986839618847870137e-01
1.499357645208771184e-01
1.839607141996547901e-01
1.737869887007184588e-01
2.097392512060576031e-01
1.918880653056337648e-01
1.030159369302833389e-01
2.225419928152019278e-01
1.418412863407590152e-01
1.667380259352899685e-01
1.139434709404835711e-01
1.089244357922305173e-01
1.453309317134779399e-01
1.205192208738464360e-01
1.381066493426807706e-01
8.210378675542009952e-02
4.181530039912097901e-02
1.181744767641080274e-01
1.770986022618744882e-01
8.791692627131508786e-02
9.812033889683860477e-02
5.364887960027365371e-02
1.501606952919102289e-01
3.200702433963970028e-02
5.918898776068633183e-02
8.623297078065998711e-02
6.940365942788778719e-02
2.969506930315257698e-02
7.491565398742634774e-02
4.819823796736413812e-02
5.571368174623989034e-03
-7.042174960854108434e-02
-3.556556489574317498e-02
-3.437214611174095602e-02
-1.886361087709470530e-02
2.277555838072125444e-02
-2.210683606136291945e-03
6.323222084903601381e-03
-3.473764795033640329e-02
-1.328960663488897020e-02
-4.083117931343104023e-03
-2.394477750114800199e-02
1.044763027756910601e-02
-1.103442459080858015e-02
9.131533609246386685e-03
-1.539594847691837243e-02
-1.416433321515348648e-02
-1.618764095403011846e-02
-3.113582383856846117e-02
1.789107774373423221e-02
3.279628742299951771e-02
-3.590996991167818425e-02
1.823688298226543852e-02
-2.615290002552807594e-02
-4.825985688989110900e-02
-4.061869688833186914e-02
-6.637061110942926723e-02
-1.746303770233779626e-02
-2.289773836656311054e-02
-8.741880238405108638e-03
-7.274639198601677570e-02
-1.179451554611258765e-02
1.669767784540897998e-02
-3.261816888559793820e-02
-4.739797233205451932e-03
-2.042891928660682532e-02
-8.473390431478926288e-03
3.824020643208866227e-02
4.090622531409929957e-02
-2.717518573436088908e-02
2.631593932376338069e-02
-2.887429403549411633e-02
-5.179796620237750449e-03
1.408668646582742628e-02
2.115190471248044185e-02
2.868621822201503774e-02
6.625846378354305344e-02
9.506875527046826369e-02
8.798388331217454894e-02
7.612531780600542697e-02
6.114464896670458727e-02
3.707195798355288063e-02
1.140426293018329124e-01
6.904659554915906772e-02
1.021825044320777420e-01
8.870395837013109186e-02
8.185621322926012189e-02
1.076785833917501545e-01
1.468687217927540090e-01
1.396138903448398971e-01
1.667854380710146189e-01
9.996720516103779763e-02
1.269569156574907320e-01
5.943112316546202145e-02
1.331798737645388808e-01
1.408317543925182436e-01
1.200158605021390268e-01
1.255952865856647116e-01
9.431823135419828419e-02
7.763365709635214329e-02
1.076159902403405200e-01
7.943604751827273991e-02
1.558593759190326500e-01
1.041112012252502078e-01
8.374134784248864205e-02
1.015994921984955390e-01
7.376214011694470774e-02
8.582535096151365506e-02
7.597149182047539806e-02
1.297460381646645122e-01
1.331714808656746241e-01
1.148454220974215734e-01
1.157993753008959847e-01
1.857826715865331380e-01
2.436007289541312626e-01
2.290236448452339924e-01
2.406912190653597017e-01
2.623204514025405110e-01
3.143659172444241423e-01
3.377483500037473663e-01
4.278716793647796557e-01
4.981145759510562931e-01
6.278679503339020807e-01
6.164411788067840625e-01
7.082324866002278618e-01
8.016620622642824934e-01
8.427169282983463239e-01
8.590480842895508173e-01
9.345249280778862300e-01
9.854881307210878738e-01
9.898369843366546794e-01
1.011027843906214585e+00
9.515047121910091832e-01
9.642244462952663797e-01
9.440408952054327729e-01
9.211012645497081985e-01
7.644801691293796608e-01
8.149424082716687501e-01
7.189647970220062190e-01
6.742766818032319698e-01
6.184908312368907479e-01
5.467468482577493294e-01
5.484829785863579721e-01
4.045807044911886030e-01
3.734243315168754851e-01
3.651086501734543965e-01
2.108930887907062846e-01
2.762314345945238725e-01
1.473136160714432208e-01
1.347479874817369971e-01
1.598415950922192352e-01
1.062806725561211002e-01
1.155067954112866252e-01
8.762102574082981932e-02
1.309246371521785857e-01
1.271707478034045102e-01
8.343424813752879643e-02
1.038645591200218210e-01
9.548502969805572338e-02
8.754105981539335446e-02
1.497625683688156573e-01
7.281865458908649835e-02
1.163584657973176784e-01
1.040283316814694520e-01
1.405370431225297645e-01
1.318694874452726595e-01
1.263756420355589827e-01
1.355306140766551481e-01
1.406681470189771466e-01
1.111944959069682409e-01
1.461695197298672477e-01
1.147262716732266319e-01
2.016346508638541812e-01
1.184738514955711169e-01
1.657249957218716874e-01
2.082908749300692031e-01
1.887430619773663720e-01
1.646974540930935538e-01
2.313002189448606916e-01
1.941275584325340420e-01
2.052000662196424019e-01
2.401462301567074964e-01
2.141520254309410287e-01
2.391987155911214358e-01
2.061645564789514606e-01
2.652160087478933059e-01
2.944380986267300382e-01
2.110019636119296882e-01
3.009377867799252759e-01
2.243250003880654653e-01
2.142998194387969180e-01
2.381582258118709050e-01
2.206160499447439860e-01
2.902952604495223632e-01
2.482529401772501920e-01
2.384852031628967306e-01
2.442049200344842408e-01
2.254582387750244943e-01
2.370228863957649368e-01
2.546871073174619138e-01
1.894828390928742501e-01
2.202467567277968108e-01
2.062401693128951274e-01
1.558270495933146982e-01
2.645530447505533012e-01
2.038176840168755555e-01
1.863878727999886131e-01
2.794005681899215943e-01
1.813783617562308159e-01
1.985430413927725957e-01
2.201698450142819952e-01
2.137936407192488619e-01
2.479550428738414858e-01
1.912497980825616783e-01
1.966833108867110103e-01
1.695467701333304433e-01
1.639481262547140272e-01
2.130514639164646506e-01
2.447737129522530031e-01
1.514964959969103409e-01
1.565580083663498934e-01
1.169256060558728355e-01
1.168180310817050899e-01
1.443557510398692512e-01
8.757202530626531645e-02
1.265309038219309679e-01
9.507819012872979758e-02
1.022103967862830198e-01
1.237947543190768968e-01
8.226106138243953481e-02
5.469483283328432227e-02
1.294857197649297020e-01
5.782262497062710255e-02
9.902243766060846164e-02
4.373486235941741185e-02
1.097188554211657591e-01
6.707124209300474593e-02
1.003451133419702296e-01
9.108439952165785745e-04
5.069316295260520300e-02
8.164490580704375500e-02
3.681701731740465167e-02
5.421575038978727196e-02
3.405911016873062330e-02
4.238478482084002269e-02
2.233935162124043791e-02
4.280025539115151628e-02
1.187237165586931403e-01
4.745290673270181891e-02
-1.861712213177404724e-03
6.822040310155402798e-03
2.889031845200247875e-02
3.664151866751806652e-02
2.715266987534966509e-02
5.754184093181963222e-02
3.248142995662679083e-02
7.669952015588729632e-02
-1.798617500026171087e-02
1.339799362878968739e-02
4.596736715553619013e-02
9.271803110686850646e-02
4.593497615385033067e-02
3.031374576703316226e-02
6.085826582667643037e-02
4.937256941118507714e-02
3.344296463339097025e-02
6.805707566035626432e-02
4.571577889239598902e-02
1.018805052756311252e-01
1.810633524221456903e-02
4.964885756718801640e-02
4.113602340287157710e-02
1.299299049440734988e-01
4.806840553322197507e-02
-2.169350415432969720e-03
1.764802663100613345e-02
6.528388289737134531e-02
8.740450107197779428e-02
1.237214860660254545e-01
1.101832778969862175e-01
9.420609304799829054e-02
4.197007621400554445e-02
1.266398726954134635e-01
1.167456547395990391e-01
1.269269329218069842e-01
1.164983384375475189e-01
5.406018591478287116e-02
1.247358728110509463e-01
1.783004596015401733e-01
1.217144675288601013e-01
1.851548145761592323e-01
1.563066564516377155e-01
1.865609538851165927e-01
1.751169101117888427e-01
8.738756999667661451e-02
2.247690891242466182e-01
1.399711760698822416e-01
1.721642602309232106e-01
1.420271895448399213e-01
1.330294458877548380e-01
1.935237044833912345e-01
1.537129633944485374e-01
1.810955451472890942e-01
1.466442955875552900e-01
1.556432530477861731e-01
1.512252959448152079e-01
2.027696377156322227e-01
1.978129185414438940e-01
1.363496606012292445e-01
1.525305631767415737e-01
1.587554321876845642e-01
1.489332602431004682e-01
1.380102272244420059e-01
2.064989670489701667e-01
1.128521321164426966e-01
2.239903991193634702e-01
2.062536884995485598e-01
2.265484623094835004e-01
2.691316271906153412e-01
3.053750293236594526e-01
2.802735265055792957e-01
3.122306801039362867e-01
4.007831852476881340e-01
4.694753636377250183e-01
5.028258239467738866e-01
5.932711691793339792e-01
6.569970562527821523e-01
6.847258217615289633e-01
7.847753436543811745e-01
7.406534916011702219e-01
8.842979232945341606e-01
9.303659042864707018e-01
9.646585345126131861e-01
9.941832236831967817e-01
1.079668390828134372e+00
9.850731841806837918e-01
1.016982216069217460e+00
9.955517184169582201e-01
1.013402760721484386e+00
9.522447864096218462e-01
8.802815093270850433e-01
7.924495722852019641e-01
7.581925148393067193e-01
7.250389803970076485e-01
6.703345536420095563e-01
6.312571848329101565e-01
5.036435797618888932e-01
4.307255358297038539e-01
3.896941681382760092e-01
4.161185884462159090e-01
2.699061600321340237e-01
2.732359137246855862e-01
2.666404283375671813e-01
2.281286345680038352e-01
1.958740251606685412e-01
1.534492992604350459e-01
1.771938703025163209e-01
1.414576040462592055e-01
1.532902302551045204e-01
1.235621204215378161e-01
1.496521822013489045e-01
1.574090382273639344e-01
1.702570606834561406e-01
1.020647779865924559e-01
1.989776159521047805e-01
1.428326520704842895e-01
1.518007067276537503e-01
1.612969457655124839e-01
1.789003310255702639e-01
1.915613167861531241e-01
2.163326099401033376e-01
2.092664566936218717e-01
2.290465422284809760e-01
1.508153242613431422e-01
1.826159740297971790e-01
2.018996042151209314e-01
2.826896569707127993e-01
2.090829399646405018e-01
2.262705072570358744e-01
2.418666348147719414e-01
2.228418696671763399e-01
1.790570326910041477e-01
2.613345140130512445e-01
2.804908169593785527e-01
2.396681621058157630e-01
2.103765529009332114e-01
2.296994793834626347e-01
2.753340423234165169e-01
2.843982866230836404e-01
2.277227840938585435e-01
3.044589087571266117e-01
2.474713805300812475e-01
3.069234507503452170e-01
2.682597608224775443e-01
2.332902728465539588e-01
3.046200217952034217e-01
2.830534528328114696e-01
2.635674948039165022e-01
3.367158282628512356e-01
2.909472319238798343e-01
2.812245759452249860e-01
2.931682803219424760e-01
3.257322670421878286e-01
2.387510970968643453e-01
2.165211831622654570e-01
2.807435635605156632e-01
2.608652591629447848e-01
2.977407477328593011e-01
2.312242017686837736e-01
2.492314549891733177e-01
3.183839358353853788e-01
3.077212706080006965e-01
2.848328942814619125e-01
2.914209689693726402e-01
1.979461875300243534e-01
2.241579050202157364e-01
2.039951916510601426e-01
2.116181873666359570e-01
2.279862508276767619e-01
2.437355191740619154e-01
2.227817578717805058e-01
2.135308055093986801e-01
1.944758535980681269e-01
1.454397457797002302e-01
2.749748571081942483e-01
1.797893744631464119e-01
1.831740468800193977e-01
1.797535291874421681e-01
1.647150450172664982e-01
1.956033361026970618e-01
1.112170037355865310e-01
1.480841622771642829e-01
1.924293998333234668e-01
1.240574469367373978e-01
1.727956160225409266e-01
1.302274447732086893e-01
1.431279093993222118e-01
1.038760275440153702e-01
7.579174750488180956e-02
1.076595918517254946e-01
9.828508844815855849e-02
7.315074875977092828e-02
7.520898633944833600e-02
1.309721091803111581e-01
1.176943146603948998e-01
1.302914557587712963e-01
7.136195621770016762e-02
6.305224196576612872e-02
4.834368108404517306e-02
1.309502329130872444e-01
8.402606207231234914e-02
7.742993207546533529e-02
9.644207456070985618e-02
8.480584804597252058e-02
5.984494665623261989e-02
9.911795923932342767e-02
8.188315385363777177e-02
6.676460360923404391e-02
8.596170693525298501e-02
3.478541854619981999e-02
2.856473772048054305e-02
2.030851202012829912e-02
5.050443995757422644e-02
2.758325378900306282e-02
8.329026274725376267e-02
8.097684841224009333e-02
-8.947724132796569529e-03
6.747845146440398234e-02
6.633027141232090973e-02
9.292301551292855843e-02
7.096435029933331751e-02
1.080549882814530460e-01
8.225262107496039699e-02
7.126022920590396881e-02
7.948005701727428596e-02
7.114021196420133863e-02
7.390256071568156171e-02
7.458998003995973014e-02
1.099580217943333521e-01
9.355405552803974789e-02
1.117837822356676503e-01
1.371376514926324341e-01
1.502740988518924403e-01
1.439222146177692174e-01
1.712694139703926921e-01
1.773429973202649279e-01
1.701045974291656715e-01
1.778484712950339219e-01
1.810062602135863452e-01
1.641119223802742499e-01
1.670892687880355387e-01
1.359043920244228376e-01
1.931244378330697342e-01
2.039948110899541533e-01
1.763721865978721826e-01
2.017278301753111514e-01
1.782493416428225508e-01
1.844349843583185933e-01
2.112648512412877710e-01
2.689086654645971852e-01
1.845612998403829419e-01
2.350350576550810644e-01
2.085413731739502730e-01
1.827088601767339893e-01
2.303835587392475126e-01
1.808355283531770108e-01
2.246270884225701203e-01
2.075252043352374953e-01
2.455714807194074867e-01
2.241188142875858713e-01
1.714375650982475907e-01
1.741366049044811293e-01
1.683459142562029331e-01
1.419444986947463461e-01
1.723304023094062443e-01
2.110261441222174572e-01
2.017041690667267517e-01
2.136081784122582095e-01
1.731831125197722809e-01
2.162293418829931424e-01
2.255196865940086171e-01
2.260750793978659468e-01
2.383529811278933264e-01
3.156784329751374241e-01
3.495099902497235123e-01
4.083469165238158283e-01
4.815944421106439499e-01
5.073699563997496886e-01
5.411079757074124252e-01
6.697888478436093695e-01
6.963645676767541426e-01
7.662974007245365593e-01
7.859613148959643247e-01
8.392805240149400214e-01
9.326564978901346059e-01
9.815168756109928783e-01
9.900650028477722131e-01
1.086129444152462931e+00
1.082884242188259405e+00
1.046966734854132053e+00
1.058847787108036620e+00
1.007508354633426473e+00
1.019660587937845309e+00
9.650644637455937369e-01
8.383244211798903667e-01
8.154450147090093193e-01
8.288001715964893323e-01
7.320853780376419540e-01
6.328296969319628928e-01
5.513494182724333337e-01
5.197029708861615749e-01
4.467461859524108903e-01
4.084829386340822488e-01
3.093333985656447349e-01
3.614895028087796724e-01
2.885316937179406294e-01
2.601277471838332467e-01
2.206630050420841371e-01
2.113131171863640856e-01
1.947652000171846143e-01
1.191664557851627726e-01
1.296831481618845039e-01
1.585925795551419160e-01
1.562856264221324787e-01
1.795878827378088460e-01
1.565127637711136166e-01
1.622504316396237711e-01
1.260142276991828569e-01
1.376248428402210566e-01
1.582445791077363162e-01
2.573768141369068840e-01
2.106987232222997664e-01
2.376904032369596409e-01
1.852174846799570784e-01
2.264031866958431394e-01
2.163584669920453618e-01
2.135067815714683792e-01
2.745625481483918717e-01
2.159673898718912355e-01
2.107923583537311407e-01
2.424751300637475182e-01
1.873894031480241584e-01
2.245286102115046922e-01
2.259790379870595389e-01
2.656421245683748267e-01
2.457343019955876562e-01
2.779523158524795368e-01
3.082618117305306882e-01
2.596401858349554614e-01
2.421655398306515050e-01
3.494384969392945739e-01
2.646458093870203143e-01
2.586208046171428188e-01
2.740429558177606140e-01
2.678947957280840564e-01
2.731116545337541890e-01
3.172490245028054545e-01
2.575256081414973863e-01
3.098282596881441475e-01
2.680723789080553532e-01
2.366405008331468884e-01
2.910104271300382184e-01
2.554770589018406368e-01
3.173011615011162578e-01
2.522684684923815479e-01
2.805988285642092017e-01
3.147854538003257430e-01
2.913135491249083109e-01
2.875638552111287605e-01
2.774424911902005908e-01
3.025257385216440498e-01
2.792313798547587655e-01
2.563422461207037761e-01
2.897636234167749736e-01
2.865460574176465491e-01
3.046352344252421518e-01
2.873629848108206764e-01
2.435382613478279668e-01
2.864316162822875822e-01
2.717373576719098183e-01
2.603482929041964211e-01
2.462945102300906353e-01
3.049455039332076289e-01
2.608342669732756081e-01
2.066899663811470889e-01
2.126332065229617208e-01
2.439091477723281942e-01
2.003710952800270562e-01
1.820931393737022508e-01
2.073701045021349998e-01
1.885654523897658807e-01
1.757371866879767486e-01
1.371736735118970762e-01
2.114857622251592184e-01
1.594000786970174999e-01
1.141210814178725969e-01
2.015917726013390365e-01
1.330276954452086491e-01
1.341022583392098566e-01
1.662645458648100982e-01
1.148198656744717772e-01
1.438220389093637641e-01
1.139381059956081910e-01
1.513881756376466714e-01
1.109286018902062437e-01
1.579062566648535837e-01
9.151728290899609208e-02
1.389614535472349643e-01
8.345240220882779725e-02
1.224987243502865392e-01
9.720744998149209726e-02
7.684512205070564983e-02
8.903546859226119103e-02
9.684808062182408139e-02
1.279218043692010587e-01
9.833005611885035913e-02
4.456239075209200706e-03
5.934941218474108077e-02
6.721355558618385961e-02
5.911442165413424710e-02
7.290904759796110191e-02
1.193898866827455135e-01
7.830907298622019619e-02
5.315058823328912968e-02
1.338783513788098789e-01
8.889756494202041837e-02
7.956702801072507159e-02
5.008299413206698802e-02
6.305833648835657002e-02
9.622303942709094227e-02
2.267721283462599893e-02
7.815141322975210914e-02
7.923358441395618457e-02
1.273272780261598403e-01
9.281845588862158714e-02
9.028084247390638639e-02
5.719513673142788412e-02
6.867823479028135891e-02
1.159035888146750098e-01
8.347824050510091465e-02
1.102188732861859727e-01
1.290991067285427452e-01
1.142336849972853674e-01
7.564994287263242245e-02
1.403194641528014430e-01
1.224566466801268461e-01
1.433338479717144454e-01
1.971154748854965499e-01
9.763184733468080467e-02
1.421076096474590822e-01
1.014985783238398775e-01
1.410868401850687848e-01
1.956150477354018369e-01
1.754012308928671049e-01
1.740620165332539826e-01
1.944408147937525255e-01
1.517303093555202598e-01
1.757580302677119732e-01
1.819191807418643059e-01
2.059570342436742585e-01
1.391989693857108579e-01
2.371559270411731368e-01
1.181833099270437615e-01
1.510210551588821448e-01
1.363504420589776722e-01
2.077339661921950575e-01
1.942749999815892581e-01
1.733895416554398217e-01
1.596361041925645485e-01
2.193489084528336963e-01
1.523366145009442674e-01
1.912064315246767843e-01
1.909891703973271015e-01
1.628151804606818298e-01
1.603166980828762411e-01
1.821525098334716708e-01
1.919604931746465293e-01
2.221131409104584453e-01
1.767446038806812225e-01
2.171317298470422097e-01
1.827590544233838599e-01
1.430627942215913773e-01
2.053616476086231046e-01
2.192301204097132361e-01
2.333928540555099684e-01
2.292011823038335172e-01
3.462238474644093178e-01
3.256711871323947904e-01
3.632064739365690187e-01
3.916183715724320669e-01
3.856928676800411293e-01
4.636809638062356353e-01
5.751832422828314639e-01
6.051910236854879388e-01
6.971006011771455624e-01
7.891696325636895493e-01
7.863911646052921256e-01
8.379620862060226383e-01
9.296905617470719863e-01
9.686468482275345515e-01
9.927259214908901175e-01
1.057823033662007584e+00
1.038569173587138517e+00
1.074578614888833661e+00
1.047950369064426290e+00
1.012112437268498644e+00
9.552909987202899966e-01
9.218424534364142442e-01
8.836070614264670553e-01
7.989647137597550852e-01
7.693374930749100615e-01
7.032887939205185734e-01
5.593919901844441878e-01
6.039887650342304903e-01
4.620947571197918102e-01
4.301331712239076510e-01
3.554637311766005725e-01
2.954479659310026984e-01
3.178130498832879569e-01
2.735495819331718037e-01
2.072208296552537909e-01
2.530075573429674263e-01
1.889325465926526282e-01
1.924019683157597582e-01
1.522562581367203072e-01
1.599917066304751279e-01
9.331257916348845161e-02
1.716346991922139131e-01
1.276755063885481323e-01
1.273177118808631880e-01
1.128805056808460244e-01
1.328284002862967772e-01
1.166828275482722499e-01
8.701953496232599228e-02
1.144513155917831759e-01
1.645155534188605384e-01
1.631786296723600482e-01
1.364174658246401217e-01
1.070681722471158032e-01
1.587184512266439085e-01
2.022543250063194020e-01
1.602476744245125428e-01
1.919106323652810253e-01
1.404299454382979262e-01
2.271652417146062530e-01
2.068092392235454380e-01
2.675605463065365286e-01
2.629966252316037756e-01
2.074553732964763975e-01
2.499232066070665725e-01
2.664381820217999741e-01
2.553233549124536150e-01
2.121218200132461151e-01
1.499900105660556815e-01
3.327762846987339374e-01
2.480668636233726576e-01
2.925015294933404619e-01
2.872937767303985201e-01
2.534958934068289871e-01
2.810875097722122518e-01
2.871484957741939903e-01
2.811473381417985973e-01
2.257452050723670611e-01
2.643632904008111906e-01
2.243477434446318197e-01
2.555548519599950552e-01
2.786502419928155727e-01
2.404868334642809857e-01
2.535029244796220271e-01
2.495514849808033453e-01
2.835319209402780150e-01
2.106763311495422897e-01
2.302025324355364277e-01
2.303250975101073794e-01
1.913513286161831195e-01
2.294950038112320012e-01
2.126400915249154200e-01
1.865700279339352341e-01
2.818724097606192247e-01
2.304599934554595886e-01
2.811646530624910545e-01
2.385175295302068288e-01
1.929096341552352656e-01
1.908824946876135353e-01
2.129113377902004389e-01
1.526936813851708930e-01
2.202033917331659152e-01
2.037655530365835299e-01
1.893441222770889942e-01
1.398200737591553389e-01
1.465355736334307268e-01
1.229623322658260770e-01
1.573311611415487421e-01
1.623177074103651640e-01
1.544871431946584217e-01
1.659581762723880138e-01
7.925199762211866672e-02
1.316821924004326905e-01
1.309248568801735790e-01
1.394031856362993593e-01
1.497242728762856190e-01
1.247605142575069215e-01
1.394799105050404942e-01
9.121160019466223456e-02
5.772850877480077691e-02
1.211741377176202700e-01
8.788328985240945190e-02
9.086382460073592904e-02
2.571748270782659232e-02
2.558959337613323989e-02
1.014971805174466057e-01
4.040479837891780557e-02
8.300581579332647064e-02
3.596765423589537176e-04
1.781584041224532414e-02
5.768044249444732874e-02
1.314300036531982491e-02
4.018504061132169292e-02
2.832910746964194260e-02
5.533035087497141513e-02
2.009536274686704593e-02
1.500872226426382995e-02
9.852462427849499604e-02
2.170257584247988966e-02
5.954164435007541084e-02
9.001853559115687020e-02
2.739390222747694476e-02
-1.914383984717909354e-02
2.125653155194251118e-02
-9.295963760849818014e-03
-1.220569018032940500e-03
6.281504577198804284e-02
4.377292852261612660e-02
6.295606041392910746e-02
4.316066146399064746e-02
3.129001759113567843e-02
9.740690901241479127e-02
-5.836691711889050067e-03
5.811121977702560226e-02
5.341826211866303881e-02
1.405260134813648455e-02
2.928007332441941862e-02
1.005767371546092553e-01
3.412456089801431391e-02
5.490493998145276611e-02
1.178361071811847988e-01
6.170493488184572439e-02
6.151044550911147907e-02
6.406665548754160444e-02
6.835657426604060949e-02
7.240553820276031394e-02
9.889940376368620834e-02
1.155796655855719779e-01
6.081016373919502505e-02
8.536407677735689814e-02
1.405557651402984942e-01
7.711810182489824139e-02
1.242468267439246071e-01
9.421835497026652406e-02
1.424897490616103546e-01
1.512752360129372420e-01
1.313870450717722627e-01
1.298540984388924513e-01
1.585825745536501574e-01
1.712130522690902545e-01
8.882021779470772316e-02
1.054555731557387799e-01
1.615038344120073022e-01
6.565830745269897462e-02
1.024529477401786154e-01
1.411502688541931005e-01
1.814134847661921512e-01
1.108357165945824813e-01
1.488192780997010245e-01
1.570667270347388123e-01
1.249941335170979273e-01
1.607163594926961092e-01
7.261601200964623581e-02
1.170111026238895569e-01
1.470555826746997308e-01
1.487687020541489102e-01
7.422866746561129769e-02
1.444687526481366890e-01
1.309180135239552956e-01
1.335129065205102605e-01
1.305717852290324832e-01
1.557747187984398207e-01
1.298371311430147890e-01
1.516838370142019055e-01
2.193934045852698189e-01
2.111761079682990261e-01
2.952931154698647531e-01
3.351799064923794425e-01
4.029346756439756150e-01
3.684445240281811196e-01
4.366043872785048130e-01
5.952695139019745785e-01
6.169446328786740708e-01
6.732954657720351399e-01
7.160170913804099202e-01
7.796308358116045278e-01
8.555725845586735767e-01
9.194584398803984371e-01
9.671813793506028878e-01
9.453966240352147388e-01
1.003181512433831690e+00
9.672575381904913172e-01
1.014090646135859863e+00
1.008656002777923222e+00
9.980697418030665125e-01
9.204788472812592826e-01
8.300890793672913714e-01
7.937248129988121459e-01
7.352934180692022315e-01
6.957995415790998450e-01
5.790479809092042851e-01
5.680022143279899183e-01
4.720975053642524899e-01
3.707886994146565862e-01
3.386478578798608474e-01
3.264508455072774873e-01
2.737274410411305037e-01
2.353565689289428831e-01
1.336511920388414876e-01
1.619295057136340144e-01
1.003904422301817312e-01
8.267402070862729657e-02
1.662983036339017728e-01
1.246247383516501106e-01
1.279526126007690667e-01
8.959253957978789706e-02
9.826703346230902802e-02
7.906599081394290185e-02
8.006271125353442430e-02
5.723840519439481883e-02
5.649512528177442344e-02
6.688435435166355247e-02
1.107455439145905857e-01
8.927248298689177686e-02
1.211518512734204855e-01
1.378547068994520064e-01
1.809649811148389964e-01
9.554249824284613557e-02
9.773582321529553085e-02
1.213472282758526061e-01
1.639507373978719706e-01
9.419757167182025992e-02
1.425952562312337857e-01
9.877886765950665005e-02
1.182373814608951162e-01
1.292548889423321135e-01
1.874901863746147590e-01
2.353459282471287439e-01
1.498260085334743863e-01
1.739886293334007294e-01
2.380076081860999504e-01
2.033048297730170317e-01
2.119935029293149031e-01
2.091050692304086134e-01
2.306992798657546695e-01
1.508247067215401360e-01
2.490853796952242349e-01
2.285236821109430938e-01
2.508317882133553889e-01
2.243383150477261390e-01
2.409306246588545086e-01
2.367033096900593436e-01
2.566808527967038289e-01
2.347971173359700292e-01
1.753648296414078434e-01
2.237161827908399903e-01
2.358352437170430915e-01
2.009850304751527039e-01
1.889027315070956614e-01
1.824956859561346068e-01
2.128860414345421781e-01
2.302121922213899718e-01
1.847308917058941291e-01
1.631574934667824051e-01
2.044321266262440762e-01
1.570381728527668608e-01
2.195471465136336897e-01
1.876065466647744151e-01
1.740121848375903724e-01
1.917694008878274570e-01
1.706840481326625802e-01
1.840224443748877670e-01
1.669638751094181806e-01
1.168712854999027773e-01
1.643201777366865013e-01
1.315956324728833893e-01
1.222235599899652858e-01
1.163730738810155874e-01
1.038486306357444128e-01
1.249266827473876351e-01
1.160819371768518349e-01
1.074031564202895805e-01
6.278198949429346365e-02
4.549812207142023973e-02
6.820773414933782586e-02
9.484481580201609141e-02
7.325997823612317994e-02
5.081663911328442029e-02
2.038314269852863764e-02
9.891598764666281740e-02
3.209908323644729972e-02
4.056864714607585909e-02
5.395691378042150738e-02
1.472371157310385648e-02
5.933017446802357764e-02
5.162834986534183684e-02
5.087225640066500576e-03
8.625717037192187631e-02
4.393791435283206370e-03
-3.075970790859722248e-03
8.171115874536852286e-04
-7.709266478504515907e-02
-1.157051944288864029e-02
-4.815179123130342020e-03
-3.837929388630018784e-02
-1.323215452286197191e-03
-1.909514896878011098e-02
9.731943567927253680e-03
3.576560092824977721e-02
-1.235152136874294662e-02
-2.268145770632433444e-02
-2.697325088371515384e-02
-4.468032956014705154e-02
-3.050383485459067651e-02
8.548797841875746539e-03
5.000448384585826078e-03
-2.551067358391103518e-02
-1.632605392335131911e-03
-1.409156786545532822e-02
-1.683441173261866763e-02
1.087210750801576031e-02
-1.105428312378906736e-02
-2.495252164870368633e-02
2.659078944312871784e-02
1.009906110306432736e-02
-4.316316690188670702e-02
-3.250662689552184792e-02
-3.785796280968145577e-04
1.290555848692795382e-02
3.025721535810421692e-02
-2.900909212895130124e-02
-6.807758619291774671e-03
2.075105221491040791e-02
3.954456900763906463e-02
3.417638352546550906e-02
4.536520949947589476e-02
4.210263448541450709e-02
5.693743498991719887e-02
1.176523822020534432e-02
5.163024883178458230e-02
2.593770318842467115e-02
2.121876511786097846e-02
8.839099511282674793e-02
7.976354990927866928e-02
5.030764671977158708e-02
6.007477647124383202e-02
6.832207777141985350e-02
5.488328833582806904e-02
4.975147449747590461e-02
9.292498690020901952e-02
1.044417726138654468e-01
6.510886240830883465e-02
9.239383189965694188e-02
1.102304184142686161e-01
1.193625155765298540e-01
1.001336352802088825e-01
9.468218979120202050e-02
9.210937762984910959e-02
1.402370854439475845e-01
9.064830458110931244e-02
1.147048352300992641e-01
7.441266468156786107e-02
1.010506037078772179e-01
1.201175564079542124e-01
5.633259873728350270e-02
9.292391064868389672e-02
1.160126991346493996e-01
1.164164964588412510e-01
4.328440965835900905e-02
1.080817205421073790e-01
5.827078578171351886e-02
7.239552081335551281e-02
7.563779447450752480e-02
7.863936183613370878e-02
9.683965755300821820e-02
9.373176214756398505e-02
9.364421630614269687e-02
1.565000665983774242e-01
1.490206124169027313e-01
1.910924179824349811e-01
2.628497584039176660e-01
3.405651118047935411e-01
3.471347663470139011e-01
3.757827007158285881e-01
4.716161846607246910e-01
4.770253661531412281e-01
5.853796928098156105e-01
6.129706972719861646e-01
7.128918159967981838e-01
7.262534995401068727e-01
9.044319234115154593e-01
9.012620459987529253e-01
8.767113088401629062e-01
9.538266236456167668e-01
9.551653487371194462e-01
9.899298865723201724e-01
9.689144215205615085e-01
9.194222863018661762e-01
9.108628437429524549e-01
8.799495359123618021e-01
8.308490669237610371e-01
7.908445719234477034e-01
7.274325732221406104e-01
6.673448644852080225e-01
5.699035099072131683e-01
5.502860536727102181e-01
4.086389597725877398e-01
3.748685982910505698e-01
2.755955530477242621e-01
2.763501786247635761e-01
2.209481139841145969e-01
1.837968120693709573e-01
1.380807828205123933e-01
1.680696299087307000e-01
1.534219480357430498e-01
8.723213082127180551e-02
1.162789318353875112e-01
1.949840655265899780e-02
8.025559200740525756e-02
7.212409152060214601e-02
8.721321236096107876e-02
8.097446262351212787e-02
7.733246762746973091e-02
5.080283314941792111e-02
1.159753831828976567e-01
9.706853941430573784e-02
4.849430417424568235e-02
9.156112743263675191e-02
1.043300657042961488e-01
5.932641316511163415e-02
8.415345865770076927e-02
6.572369453586968113e-02
1.049008667277195328e-01
1.215833419000255933e-01
1.131754802461762827e-01
9.386935011259277262e-02
1.533339811285163445e-01
1.433041799660068616e-01
1.329912061192882744e-01
1.659254695824924353e-01
1.514155615223267692e-01
2.197746842767569486e-01
1.595622945004226967e-01
1.313513516661001523e-01
1.613578200520897066e-01
1.519103966929488680e-01
1.910112381504972257e-01
1.871701095792380198e-01
1.421428753379727072e-01
2.008263990154678380e-01
2.584378299123475942e-01
1.472631327985982064e-01
2.072721727550121407e-01
2.181711893700242211e-01
2.162718496288918713e-01
2.153975463544468283e-01
1.892426884298983869e-01
1.486176243112925788e-01
2.013035369915457118e-01
1.891849527222337068e-01
1.984187500902568069e-01
2.569107611594519947e-01
2.200257027230045903e-01
2.086086757195405872e-01
2.104036330259056453e-01
2.136152457971295660e-01
2.444620273573331060e-01
1.416017227395210687e-01
1.879825186297136297e-01
2.090737880244519509e-01
1.869800625126479543e-01
1.650253961889183718e-01
1.537521715502003228e-01
1.800619020808549298e-01
1.485691839714177731e-01
1.236312745935238960e-01
1.678825267620700779e-01
1.300321325055154575e-01
1.429665192321977751e-01
1.599466423506135104e-01
1.065084719544831665e-01
1.264155306676555679e-01
1.147896839267740776e-01
1.314680033142725524e-01
8.197418509376283580e-02
1.234116277067008050e-01
7.383378752754198027e-02
9.242655420598816507e-02
1.371975994505219565e-01
5.662345755327716224e-02
7.704578957807425854e-02
9.064895050574844904e-02
4.631267292653469536e-02
4.201695736640620460e-02
9.906356644854395765e-02
5.628406383796619172e-02
1.364129095801971947e-02
1.318657438848903907e-02
2.341013914957495307e-02
2.882240081176942054e-02
2.515074319344096782e-02
8.594986636770762800e-02
1.762213579429565413e-02
4.124725088670318229e-02
-4.472748371076065710e-02
2.125842080266691914e-03
1.112737459221613961e-02
-1.926681740222032160e-02
1.742091282613395659e-02
-3.669060990388924026e-02
-3.211609398729700637e-02
-2.982200080363378233e-02
-2.719109417678212265e-02
-3.912802483662895792e-02
1.396262765206366524e-02
-5.431883133306673883e-02
-1.621628411357994501e-02
-3.404063829094104709e-02
-1.855925889044124019e-02
-2.990544834497494212e-02
3.073786598613285209e-02
-3.246020831816309044e-02
-2.027762865259140693e-02
-4.812186943193044741e-02
1.048837170718553563e-02
3.887196698464269462e-02
-3.081396051887050347e-03
-9.481600728620982743e-03
-1.122655335694711098e-02
9.323007009722314442e-03
-8.531015246518627859e-03
-2.977836854261440083e-02
8.871669944636416394e-03
-1.595460136389124581e-02
-5.390701209532174076e-03
-3.672717471001437500e-02
4.835711534888561397e-02
1.208396217179581733e-02
3.484036658863563785e-03
3.438548259475724539e-02
6.500113102064782045e-02
6.533115549342392858e-02
7.643050724349474689e-02
5.955635576808725185e-02
3.674695983668799237e-02
2.168531218492335266e-02
4.066797712529443554e-02
9.165661721433410181e-02
1.448640611765397990e-01
3.275681740349994930e-02
1.097933041671228238e-01
1.725175794035467280e-01
3.153012138631963723e-02
3.826338593419890965e-02
7.652041748819549127e-02
1.134019013062801118e-01
1.063978299511519898e-01
1.003211479532942207e-01
1.326801525299341478e-01
7.793619205744428680e-02
1.440286355281698571e-01
1.288188345920894540e-01
1.175185318785237354e-01
2.049246026072544802e-01
1.158724105115363778e-01
6.754245272461385785e-02
1.420915555466772950e-01
1.080872985716472556e-01
1.072736460909997913e-01
1.062399607287471959e-01
9.357559660553735337e-02
1.111323645409790922e-01
6.427818638885554603e-02
1.156259920518420137e-01
9.011303377607382536e-02
1.187124005529987397e-01
1.200603933397055290e-01
1.274698833699169087e-01
1.302734779030198242e-01
1.447884334591590105e-01
1.115634024156147153e-01
1.317472991147907724e-01
2.243029091888501247e-01
2.534132763917748554e-01
2.546955644264277119e-01
3.431362595658747350e-01
4.280873361407522282e-01
4.436820666902066557e-01
4.676153615435251765e-01
5.870478048751199829e-01
6.075663507729293089e-01
6.124644778050342131e-01
7.204463733666172098e-01
8.186280570992739980e-01
8.717937408673319677e-01
8.787705594644121820e-01
9.452003469858119011e-01
9.864660530859754584e-01
9.997108630397664175e-01
9.647598121021224715e-01
9.874517044439146130e-01
9.246123416556361052e-01
8.913746866189034002e-01
9.212432172658466811e-01
8.497983425850010875e-01
7.357195926098861749e-01
7.214764662339020473e-01
5.970521624682694206e-01
5.347425930839809771e-01
4.656147751323060913e-01
4.502344848424231771e-01
3.994593277838265899e-01
2.724959408572378838e-01
2.419366222828430446e-01
1.838994259124437924e-01
2.137734544802781800e-01
1.866540483755182722e-01
1.504819992710421384e-01
9.735060921392868494e-02
6.039537737695130359e-02
1.137085197457318175e-01
8.820425692060894496e-02
6.952286489573746009e-02
9.310863899660684617e-02
1.120692861835931309e-01
1.260589803877312232e-01
2.926688789137413607e-02
1.247712116221295631e-01
1.399853325294201922e-01
1.191725892874665460e-01
9.066268470194550899e-02
1.143490641427741816e-01
1.250900831799655055e-01
1.548798496140452730e-01
9.704712138824379830e-02
7.172644157432157830e-02
1.595424308811746461e-01
1.093597891771397324e-01
1.658325576969440773e-01
1.588556750101950410e-01
2.038890584410150142e-01
1.728226566369487627e-01
1.890225266183324093e-01
1.659364660742366493e-01
1.669397931909306076e-01
1.863720315466665112e-01
2.131130163440699554e-01
1.989189456309580495e-01
1.859222304984211593e-01
2.261467613701113322e-01
2.566295317098730711e-01
2.132459309696160543e-01
2.084129444085919824e-01
1.942527659181729482e-01
2.452357790147171868e-01
2.345615464943035522e-01
2.123239763226592580e-01
2.261514464122552082e-01
1.662571862601395223e-01
1.578046832921248255e-01
2.349833222825091772e-01
1.909514538897139901e-01
2.519372197038300398e-01
2.229152984515517799e-01
2.455017735526535405e-01
2.452071788129503438e-01
1.862197315275744836e-01
2.370512010787468871e-01
2.046473960312240881e-01
2.564489558681760095e-01
2.579623970899058705e-01
2.495108681797236494e-01
2.310231242789787809e-01
1.916141597550635733e-01
1.894506176542929965e-01
1.801895832337401804e-01
1.992347207715957635e-01
2.062056350424799345e-01
1.898890246208599919e-01
1.532949395800402848e-01
1.906749351420700678e-01
1.249748883708622083e-01
1.927479999682220058e-01
1.442178696829116424e-01
1.270371056662626397e-01
1.794770611614974198e-01
1.507479202664386564e-01
1.631493128559861616e-01
7.014427341644578762e-02
1.598132238600621924e-01
1.169404711781463491e-01
1.149748923781599846e-01
1.119137848455084572e-01
1.611459623705108479e-01
1.314286261741541839e-01
6.322525287836533447e-02
5.473676383948705704e-02
3.039945111135190781e-02
1.126559897109019742e-01
7.912260435517903812e-02
7.602185836958155751e-02
6.738352050900861534e-02
1.155588311824882058e-01
8.341534004440367966e-02
5.432706711101868702e-02
5.246500957010619831e-02
5.915515867104084724e-02
5.880937542325167383e-02
2.729770757777679260e-02
4.761138119147913239e-02
2.053089394325830971e-02
-9.151779847943099927e-03
5.812120298619491421e-02
-2.322166296259113583e-02
3.989346343726891085e-03
2.028614465132878159e-02
2.419867837865302684e-02
-1.934957666688584196e-02
2.184633795098063144e-02
1.368090537439177641e-02
-6.971533181762714498e-03
5.126908433558084038e-02
5.271447911504006240e-02
-3.116415817240501818e-03
2.232333160522360221e-02
1.670920762036505816e-02
1.763210458988206594e-02
-1.198680114886545821e-02
4.440760143860606607e-02
7.398613456206669381e-02
2.592621368323259901e-02
5.645036921422232762e-02
3.188594268611631699e-02
5.956303717323036678e-02
4.618715530657439665e-03
8.105685087732326932e-02
1.487476183413963260e-02
1.096069978593796346e-01
4.676336569856833630e-02
1.469146164778903640e-01
4.385641714756798037e-02
5.960409094416597997e-02
8.860184639544148311e-02
8.131915084815327655e-02
2.109051480191310654e-02
2.468133809187073729e-02
1.810911846983104603e-02
8.889633990505835248e-02
1.010242582386689514e-01
9.022052701801844266e-02
1.952811916693304173e-01
1.672282936864382952e-01
1.333474401863574132e-01
1.659387081050930357e-01
1.601000364824572697e-01
1.600631301276589646e-01
1.328311069179261839e-01
1.242737123364079793e-01
1.843306822119924748e-01
1.922356652808994704e-01
1.757707445064108920e-01
1.549540480128526465e-01
1.472686762252799209e-01
2.633226295413932383e-01
1.405247926510801160e-01
1.876761952151874413e-01
1.709208253821987156e-01
1.919852061656667774e-01
1.418836599707589408e-01
1.656504968305312075e-01
1.758055674238394595e-01
2.170806357291680810e-01
9.881103734921085902e-02
1.428159192002741440e-01
1.528313965356005444e-01
1.552516142111288189e-01
9.668542207505008423e-02
1.963183033861347349e-01
1.263251387724186603e-01
1.416588763013137964e-01
1.403696001786834957e-01
1.710345345372189796e-01
1.422057778965058195e-01
2.250337787361468556e-01
2.541414567977258732e-01
2.053038396401213328e-01
2.133008916079918160e-01
2.584917495330062431e-01
3.788084452819664993e-01
3.236890736072030039e-01
4.114163019339316940e-01
5.149165537378713742e-01
5.647111998356136864e-01
6.061480495108407807e-01
6.419736170210222914e-01
7.190365192573283659e-01
8.409909705768029431e-01
9.250192652338400379e-01
9.177024528071657805e-01
9.914079725432117796e-01
9.932159181228186196e-01
1.037023136072415364e+00
1.042329900675594390e+00
1.026511896241439237e+00
9.765601966977869308e-01
1.015828525339306010e+00
9.339869235036892814e-01
9.030150061146881013e-01
8.162432854989478681e-01
8.135565746859341196e-01
7.198791695577154703e-01
6.809099418771167311e-01
5.951788440061469565e-01
5.724899734592200362e-01
4.498470784655311250e-01
3.738150656834748342e-01
3.387925350562537852e-01
3.275606168549954345e-01
3.014710930199627215e-01
2.391636619209197567e-01
1.955784767605650287e-01
1.947891267267699567e-01
1.594809924887158337e-01
1.763314150844840222e-01
1.442505243613575183e-01
1.159216785824913609e-01
1.635791499673860672e-01
1.127668962602264568e-01
8.941472628106950093e-02
1.150971896438554298e-01
2.214445022972704458e-01
1.472089344604173844e-01
8.830881670387480398e-02
1.302213215531648760e-01
2.098647097893011348e-01
1.467274598680996800e-01
1.441957871802211910e-01
1.306624057437509590e-01
2.138161090941579356e-01
1.922888240537140581e-01
1.800122227954655540e-01
2.156494184499964661e-01
2.338414987305950099e-01
2.248934719409818317e-01
2.324520626092370090e-01
1.992879750409925488e-01
2.435901409728258860e-01
2.519802700174514354e-01
2.388666047141905224e-01
2.322837410079228171e-01
2.131671496258263909e-01
2.684394683604129361e-01
3.070955997997252274e-01
2.369140824995169814e-01
2.675597620400237964e-01
3.300743955901975779e-01
2.640938522560826729e-01
2.420173531643435849e-01
2.541799011193681679e-01
3.085634891137162272e-01
2.578125541346991678e-01
2.541419745830557630e-01
2.654943952623540770e-01
2.324416852002944844e-01
2.889768765906632897e-01
2.857727059572082173e-01
3.287547929444827877e-01
2.470887593471941535e-01
2.611908447394614141e-01
2.675892365759541258e-01
2.936922153439625593e-01
3.218547600311868484e-01
3.159538388565490408e-01
3.272402765797295943e-01
2.712923014105359520e-01
2.440968320530679525e-01
2.707565355766872184e-01
2.719978727379133709e-01
2.474168095928871158e-01
2.897644335051768882e-01
2.312163938356687209e-01
2.218120578138752241e-01
2.186296948121861372e-01
2.305145060811231439e-01
2.411636195968754892e-01
2.030035291737997127e-01
1.863605294280208102e-01
2.416439159575971829e-01
1.714430699955952764e-01
1.889926464034004938e-01
1.799154286107680356e-01
1.423626938189769819e-01
1.695030346607878935e-01
1.661661246894608479e-01
1.406571031495313651e-01
1.584321700721686987e-01
1.744099038108938848e-01
1.879942003706021325e-01
1.647121881047937109e-01
1.743220338148642468e-01
1.301989699731287975e-01
1.247506882945670081e-01
1.004737097675687252e-01
1.404749198107352048e-01
1.060272283175668351e-01
9.292334028933860179e-02
1.199082591766782724e-01
8.427748616713565122e-02
9.358149619955996590e-02
8.928698578860752577e-02
1.321647100527717222e-01
1.207963314468726845e-01
1.201929169678821741e-01
7.575397534997037330e-02
9.683347944751255487e-02
1.122466564227480867e-01
8.129192650044542168e-02
9.352360527071645890e-02
8.232648717532572991e-02
8.104696088512722274e-02
1.258183597312946267e-01
4.365161792225009246e-02
2.925113975531951072e-02
4.347529701049744622e-02
6.436449060905628794e-02
1.423955178130664745e-01
7.163989082258925833e-02
7.702835669019721110e-02
4.366069428715627088e-02
2.794184954749026270e-02
7.343032664799595266e-02
7.079012991149354062e-02
1.024115043433195121e-01
8.960830323423683852e-02
5.181561802140693951e-02
7.978991034420085393e-02
1.009775066398298782e-01
4.891952127239622417e-02
1.361593846910062189e-01
7.340063897039914020e-02
1.116517394847638261e-01
5.510797401825857228e-02
1.164451280140867129e-01
1.199738699456283364e-01
4.808919118975556184e-02
6.437725722782985938e-02
9.553751696100885871e-02
1.103924594608848148e-01
7.184173611330404996e-02
1.226682979087919401e-01
1.774729918144169749e-01
1.164290653139599674e-01
1.160294273444801294e-01
2.125072743408764619e-01
1.472535431676254281e-01
1.778803471471882836e-01
1.589467866500900439e-01
1.779308229736278890e-01
2.094948479534571861e-01
1.366284826228921501e-01
1.404883632417617267e-01
2.025320635899202082e-01
1.898193397086813949e-01
1.618742395398083400e-01
2.184609063572024445e-01
1.285950271505887366e-01
1.860539200152920292e-01
1.319710871147585785e-01
2.068500888843649577e-01
1.839191561517677376e-01
2.094782265604733795e-01
1.908089196376012986e-01
2.246489170097890342e-01
1.571973710100197097e-01
1.908910360584007981e-01
1.624201084570830733e-01
2.104967984169220929e-01
2.050392388233528151e-01
1.333518309237058941e-01
1.994145814103282233e-01
2.258034072392315073e-01
1.748543415440423909e-01
2.356027481600324602e-01
1.450620780778651975e-01
2.022615151673413103e-01
2.385230833000427375e-01
1.531995434888304419e-01
2.051702774481257430e-01
2.564782680899770351e-01
2.844772987653222951e-01
3.141966253357755257e-01
3.091333823664490499e-01
3.549947663202416281e-01
4.787887033709848916e-01
5.216128264182031682e-01
5.413082999400727902e-01
6.373509862967303707e-01
5.945735789965390650e-01
7.417600305687694906e-01
8.218173938153574554e-01
8.961273595635992351e-01
9.104580920821527812e-01
1.027442655359739332e+00
9.905655454927692061e-01
9.926905982319615962e-01
1.015209468811490323e+00
1.030416566238935516e+00
1.071594515347656262e+00
1.053733376986280890e+00
1.011122691466476597e+00
9.414407719644543038e-01
8.793198427378865478e-01
9.004852381170036502e-01
8.192664869615366996e-01
7.369062002182283910e-01
6.867731729545950570e-01
6.337636973214765268e-01
5.439231766552014014e-01
5.009842833733295642e-01
3.676215143431885712e-01
3.614305687466509154e-01
3.158268021356552824e-01
3.332631661452046257e-01
2.306790693672007841e-01
2.385318632419645701e-01
1.838528272768248928e-01
1.455294354331309326e-01
1.264878357664251940e-01
1.673759915642488438e-01
1.613620668903764654e-01
1.514167267358402236e-01
1.490950214150002229e-01
1.598572870881530827e-01
1.416087437206540456e-01
1.288477866741705447e-01
1.695691688869151448e-01
1.636286747805032471e-01
1.807132596302840621e-01
1.734656772348049658e-01
1.650572506932283523e-01
1.932117444659307015e-01
1.803891188662850031e-01
2.107564003350581583e-01
1.874586790393213687e-01
1.567866891938489160e-01
1.817124005343132009e-01
1.900960758688781949e-01
2.305442512494642049e-01
2.739308560507730528e-01
2.833020451756881330e-01
3.055959934015976542e-01
2.723667545822078262e-01
2.646847866962830365e-01
2.196238449204753751e-01
2.597994828488103813e-01
2.523263586109912859e-01
2.835511509417644183e-01
3.049249018968916980e-01
2.516175256409709515e-01
3.195382159349555717e-01
3.025834888568291747e-01
3.045251662853043495e-01
3.005453387300047741e-01
3.075372949805713629e-01
3.394447069205548950e-01
3.086673814405969107e-01
2.660398664882304698e-01
3.557146273202924647e-01
2.906405510540594483e-01
3.753339997465358624e-01
2.927593143463065317e-01
2.603780329676576577e-01
3.196531006959678067e-01
3.290986867293876905e-01
3.004611622788968539e-01
2.544180571309301309e-01
2.707707576869438082e-01
2.627698628291484928e-01
3.141876468303427261e-01
2.548226592138108648e-01
2.532934653978228812e-01
2.665227525972833633e-01
2.837154677223608368e-01
2.281908413088281073e-01
2.618287503997780985e-01
2.507373636776422110e-01
2.454430809934862179e-01
2.722967121743202767e-01
2.334460529868777057e-01
2.240829085624823636e-01
2.279642636234187614e-01
2.037921474594208138e-01
2.176472742917096859e-01
2.120970820052550665e-01
1.975573780066711416e-01
1.622002134474482826e-01
1.919785190678307552e-01
1.988344867711511199e-01
1.814848398605142521e-01
1.808952319888127991e-01
1.902183432164891996e-01
1.687134316624935848e-01
1.510321481560755463e-01
1.610799005089968983e-01
1.792078171907481865e-01
1.545797949666954385e-01
1.578981914161465272e-01
1.524236623875395991e-01
1.382343881908692507e-01
1.076624718425829991e-01
1.803709673813074232e-01
1.144632812444170283e-01
1.299546817115617148e-01
1.037072630012420005e-01
1.434930838771997785e-01
8.401902401318125935e-02
6.117380391106649884e-02
1.413028098681011757e-01
1.192967788117279271e-01
9.141485166589310984e-02
1.016618533580803674e-01
8.077086804525587804e-02
4.380391481718946822e-02
2.688004286897682782e-02
2.021157616487221503e-02
1.173272776838452103e-02
4.423578094387400211e-02
1.589542215173019024e-02
5.710494941567695326e-02
8.062658652738635690e-02
9.348020392114059218e-02
8.887743968093471392e-02
5.460394536065160676e-02
6.066690891384625417e-02
5.505109734545626105e-02
9.463594161703112184e-02
5.823306838338217217e-02
6.902522442532654789e-02
1.073257110187530727e-01
9.415696471852560978e-02
1.434795340566656918e-01
5.563420768382652815e-02
4.833465805338504201e-02
1.099577252571591890e-01
9.286892248330103072e-02
1.370032614805698212e-01
1.119831206867025336e-01
7.048946072490012982e-02
8.461346591861715338e-02
9.915164800140416346e-02
9.385120953304812441e-02
9.993629203177234466e-02
1.357772883341167303e-01
1.255087898837320692e-01
1.106895954362771134e-01
1.109996942892517019e-01
1.511681736760301931e-01
1.262088336432591329e-01
1.206149089634674654e-01
1.410925650223731065e-01
1.594188890821893745e-01
1.598732916467181242e-01
1.458501642876618154e-01
2.153244685491544907e-01
1.908701316687484439e-01
2.015946641434587516e-01
1.889336549742680060e-01
1.640888740045610694e-01
9.521765572847050441e-02
2.079987193422615510e-01
1.984656155226438567e-01
1.692926146175152691e-01
1.954752096468698186e-01
1.815043859120791248e-01
1.929919842292871779e-01
2.404548982891812348e-01
1.591040533326127382e-01
1.488971904792388556e-01
2.341371410091118155e-01
1.802393104863954931e-01
1.817577288729290974e-01
2.183769813073400679e-01
2.060003397792530277e-01
2.079163906732816036e-01
1.956850019441384869e-01
2.029003523376779194e-01
1.638513292445740177e-01
1.715781962895965018e-01
1.832536209251136861e-01
1.695852613647972351e-01
1.931244971681524147e-01
2.140052376509113674e-01
2.431860736822405444e-01
2.158394030634114280e-01
2.803838952848074495e-01
3.589563760382568081e-01
3.652700915373183199e-01
4.130218835144520151e-01
4.966854844000295199e-01
5.256751796722894943e-01
6.250676938923623860e-01
6.907873793121215300e-01
6.863093913447390060e-01
8.149871252154977652e-01
8.444085791021860299e-01
8.763842258436514987e-01
1.016081373601836146e+00
9.965831330486243367e-01
1.033866249537517490e+00
1.082329860822861090e+00
1.045358953584847317e+00
9.876312977549571714e-01
9.897804362716190463e-01
9.956871208801341133e-01
9.309419156018344799e-01
8.792079611378192938e-01
8.477424106585113028e-01
7.480738753371909411e-01
7.028962614047893354e-01
5.930391792663213257e-01
6.028462380206970339e-01
4.802461794101635095e-01
4.364884840190100812e-01
3.026178781435698295e-01
3.429606554087120118e-01
3.007575497784262253e-01
2.463199143301490757e-01
2.510870965738334348e-01
2.146166738206334301e-01
1.482169468998238426e-01
1.796001787056202281e-01
1.507054915354260893e-01
1.478420493322552265e-01
1.372709487534395367e-01
1.418517437705947848e-01
1.213923806486188195e-01
1.249311207838732229e-01
1.558680657732266772e-01
7.935166408740582100e-02
1.742488270969528297e-01
8.512356674321586159e-02
1.460041120720417529e-01
1.255366701305075106e-01
2.151961151464042155e-01
1.349623498977403913e-01
2.151326461418617830e-01
1.963134537198359397e-01
1.634538812492202231e-01
1.806388434102299823e-01
1.697046108450946666e-01
2.117174290802536496e-01
2.313836544750178803e-01
2.383866205681294814e-01
2.530891032096763693e-01
2.285791121389599556e-01
1.994803164646645754e-01
2.179363428334218922e-01
2.188613491173829473e-01
2.035331496114960170e-01
2.851149609073621027e-01
2.858170478379413737e-01
2.461703652056504710e-01
2.782580728382533786e-01
2.729759709287874481e-01
2.498746361191503673e-01
2.490897782248541192e-01
2.743414960822135318e-01
2.693592643243103435e-01
2.505751559185393496e-01
2.767008512593904235e-01
2.528852897568046321e-01
2.800789210728458212e-01
2.104367676232056783e-01
2.691584322827019760e-01
1.987567861135744740e-01
3.118035981446711236e-01
2.853712833552177752e-01
2.452759724296904309e-01
2.900909832704647862e-01
2.802984551168214433e-01
2.384653636429132084e-01
2.064013269567943620e-01
2.661667252469278599e-01
2.760660383139277307e-01
2.337265661573432740e-01
2.636871380162375544e-01
2.309154120810859301e-01
2.260198485319843686e-01
2.180660028597401212e-01
2.166291081005401464e-01
2.327176604796386550e-01
2.483009037060955881e-01
2.019319320895301972e-01
1.749342648193340510e-01
2.133767401207099790e-01
2.013005020048288241e-01
2.083688441098574540e-01
2.063018355374330870e-01
1.526657663713005264e-01
1.702414705954024554e-01
1.549207318589792548e-01
1.856818893940563597e-01
9.153383312671371785e-02
1.940188998034305390e-01
8.486027823356355471e-02
1.404070434874272744e-01
1.540100960640301553e-01
1.424293631162551477e-01
3.059891441117176814e-02
1.023561381585813279e-01
1.087553047180201682e-01
7.814170547088539198e-02
4.090824344649392208e-02
1.515857808439746435e-01
1.030245096140365441e-01
8.378363583975752260e-02
8.989709412308145853e-02
5.773346500025700045e-02
4.022290785038994815e-02
5.281407177076395676e-02
3.857499995619478872e-02
8.546971910227607605e-02
5.936963558022729376e-02
8.173813250145300913e-02
1.032405320084959777e-01
-6.113440134932895953e-04
5.137155346388024013e-02
2.811366002741964853e-02
5.627325446250300289e-02
3.317369623836614184e-02
5.237901371824384839e-02
1.197121682017214181e-02
3.018759418246624859e-02
9.192179049484058839e-02
5.728054230079454578e-02
2.434494395897114638e-02
3.023310870120186553e-02
3.871006322017989804e-02
2.322033762157457021e-02
1.007751189741654674e-01
-3.071155665068195286e-03
5.501430878351464687e-02
9.434642518783193516e-03
1.388953747666186456e-01
1.981821742834734192e-03
6.623628502261119655e-02
4.684318669417970871e-02
6.942487390200721697e-02
2.914153136232274996e-02
8.580293489240303773e-02
2.396208002647600907e-02
7.749809203159072069e-02
4.771998059598771963e-02
8.995067560713557175e-02
5.567546672432224092e-02
8.434600610246234531e-02
1.014812442812940835e-01
7.735637455101544713e-02
1.050158472322692549e-01
6.477873264050240665e-02
6.457227679020348388e-02
1.060277646540734309e-01
1.088977981066519690e-01
9.208664515851268384e-02
1.446464896977182335e-01
1.425774965060105648e-01
1.401174146813285726e-01
1.123272936806679473e-01
7.851241335706959923e-02
1.551734865475349889e-01
1.096093841796322993e-01
1.613750241542206698e-01
1.482517879833287200e-01
1.190861426943468221e-01
1.132645523891153694e-01
1.293539948351414004e-01
1.482558745808025824e-01
1.751614841940775380e-01
1.736691671609713605e-01
1.958742377913317567e-01
1.491311044330551894e-01
1.363976525595580191e-01
1.082596897489025989e-01
1.598084900782889006e-01
1.196523679284874353e-01
1.154597104692068193e-01
1.008926003090882817e-01
1.550562605867687183e-01
1.443736719321146444e-01
8.861072271751448126e-02
1.213574738060318459e-01
1.902479725382045794e-01
1.546590885448101138e-01
1.327851896759563166e-01
1.687173029249281753e-01
1.631593384093298071e-01
1.796357442479598610e-01
2.497326708436192755e-01
2.369465828439460131e-01
3.140951123600210226e-01
3.558212185494339375e-01
3.804609659028048707e-01
4.250630969469233467e-01
5.668016809562036462e-01
6.003369759568111252e-01
6.132392974250933104e-01
7.115714686925118659e-01
7.965095206178095522e-01
8.424350534163583815e-01
9.092380419854497742e-01
9.615609657082626605e-01
1.014856673599074055e+00
1.021059105985392845e+00
1.021447195145772202e+00
9.806340123501982031e-01
9.931393279470605018e-01
8.708279497311345319e-01
9.333937020506367643e-01
9.375600754692323680e-01
7.859135795503450206e-01
8.054614145141466564e-01
6.952190479426625380e-01
6.289335325919067632e-01
5.132942309807202452e-01
5.067235682083247594e-01
4.393636483670233517e-01
3.971178017002587879e-01
3.038558145988172199e-01
3.012060339752802851e-01
2.565868498122888530e-01
2.170321517485143958e-01
1.314440945736903843e-01
1.345652594670891933e-01
1.386494009310467734e-01
1.042204271946643307e-01
8.540884424573153000e-02
7.886235665658525296e-02
6.703232846772283482e-02
1.004899943097892628e-01
1.097370328318783839e-01
6.835631954139086142e-02
5.489164879810520814e-02
9.304712010375991438e-02
9.280270244990859729e-02
6.509628418711310704e-02
1.045669493617396861e-01
5.744703653410912492e-02
1.067701071221647813e-01
4.289356457892269658e-02
1.220538560146560148e-01
1.329873884700572551e-01
1.392486884442807327e-01
1.870691964865432155e-01
1.810188938733562347e-01
1.577788660155702016e-01
1.490537383734245325e-01
1.917605137214150046e-01
1.349787626650345573e-01
1.660473679076658327e-01
1.808402184758371445e-01
1.974056012494527779e-01
1.790357849172236893e-01
1.832185555026456525e-01
2.072295950255101660e-01
1.448874390931752798e-01
2.386929375481388615e-01
2.456613211034918420e-01
2.182479279961064278e-01
2.636837076803100199e-01
