1.006566407498815430e+00
1.011719759035919930e+00
9.352946788426256264e-01
9.232290863037667661e-01
9.333677222422409603e-01
8.263198748231814772e-01
8.089945236758988578e-01
7.351184301507052155e-01
6.402312451523128889e-01
5.692493473501334389e-01
5.061759117641327910e-01
5.132539460073785031e-01
4.349915708895216726e-01
3.652731259373965811e-01
3.381720963302480287e-01
2.486634701766755051e-01
2.202765459297920947e-01
1.623569780948077579e-01
1.836115419246954483e-01
1.478428130296258192e-01
1.098542324534091674e-01
7.379808316470085061e-02
9.233700387433693701e-02
4.958178801673288061e-02
6.275516657787946762e-02
6.157204399103593379e-02
3.897794510335513690e-02
1.043684191725869348e-01
1.100197310969212305e-01
1.107206296124614575e-01
7.995212036020252211e-02
1.072963041271291496e-01
3.887436267024331482e-02
1.040195531555336839e-01
1.248538194641852367e-01
1.243816488947048632e-01
9.058570517037836667e-02
1.161352358448761168e-01
1.283118405534597883e-01
1.479704658910643289e-01
1.265012349060872510e-01
1.677699217827207379e-01
1.381257345576769602e-01
1.050466465137831207e-01
1.998694569469754989e-01
1.282347731217557407e-01
2.087332378059486848e-01
2.128405523836185143e-01
2.030421326262624171e-01
1.809943572823890512e-01
1.589047805804954527e-01
2.100990182020022190e-01
2.151168832136908793e-01
1.990000593960734587e-01
1.786226331343633011e-01
1.553582619939330445e-01
2.040025521900646344e-01
1.873511696936544235e-01
2.277840805929489953e-01
2.176040794468147854e-01
2.443276986559965447e-01
2.657472923698679379e-01
2.431935502046616571e-01
2.031354471395752370e-01
2.408030455672535708e-01
2.366751703243596960e-01
2.172939855609427873e-01
1.906792383909959310e-01
1.817435348309589527e-01
2.289085116928164798e-01
2.332583104931520990e-01
2.368211941802427223e-01
1.808385477292419607e-01
2.341309937902557592e-01
1.442406572928453534e-01
2.374822972603992666e-01
1.204938155736909045e-01
1.965971239202675691e-01
1.350460524510174176e-01
1.273238373185832106e-01
1.311483939575430469e-01
1.339141213711418366e-01
1.534081872968325599e-01
1.122561779358716288e-01
1.321877190249386436e-01
1.331037798488903801e-01
8.970314770866175125e-02
1.126217531194439181e-01
1.260684680675929203e-01
6.921566540399803902e-02
1.243155849422071385e-01
8.478693713678381316e-02
6.773879178887015629e-02
9.837402180568965981e-02
7.218584656432147639e-02
1.312640634927398076e-01
4.088635520066750961e-02
8.938764865942414040e-02
7.030785392794777766e-02
4.637862837697002971e-02
3.076834045771947163e-02
7.323404600838040457e-02
1.604083153572714859e-02
-1.222770422208520336e-02
3.371130225980645961e-02
1.980262789644414434e-02
5.843169463456199253e-03
3.592120674035031991e-02
-2.793064511895266416e-02
-3.812305776996760542e-04
4.157630917747040522e-03
-5.383330119185396334e-03
2.628071919553844060e-02
-3.039436689347248949e-02
-6.551694468804436511e-03
8.137833583410428173e-04
-1.915108057991514803e-02
-6.743392270861060800e-02
-2.908156414445288440e-02
-2.602751904117040632e-02
-5.881277732426400118e-02
2.128475840204514108e-02
-2.878631123539295705e-02
-5.534510858272753686e-02
-3.707585897028325972e-03
-7.393751046221158640e-02
-3.698214593373198855e-02
-6.124350457662568192e-02
-4.248669994540549277e-02
-6.937033284752969209e-02
-4.260906649795351275e-02
-3.259154003936241134e-02
-5.271611021039641215e-02
-2.641510313904264426e-02
-3.249090148435231085e-02
-1.081107227725585512e-02
-4.209213299260138735e-02
-3.626921929102007447e-02
-3.184920838209863436e-02
-4.841736081817632487e-02
-5.697655982506080047e-02
-6.348254243834632049e-02
2.358218765456237404e-02
-1.137429590745400731e-02
-3.132684280701198559e-02
-5.178356983851288564e-02
-6.393438887549451888e-04
1.552168461674399008e-02
-2.666277939250934897e-02
1.204694364193294176e-02
-2.493615565354339800e-02
-2.651488541336608287e-02
-1.960359461784320911e-03
-4.109126739710924903e-02
-3.699239027888712866e-02
2.934039943141863310e-02
7.018101913460542129e-02
3.904581474515787798e-02
6.549090885956992958e-02
7.922076648105347285e-02
-1.623240771713770070e-02
1.812933569034935744e-02
1.008276440868675350e-01
-1.390635574061536983e-02
1.276337605237794215e-02
5.204094293501737578e-02
4.341613168296969832e-02
5.430184977649808731e-02
7.949823092522294299e-02
5.157311218754254134e-02
5.199878418641163541e-02
9.528893897410323222e-02
1.051494514099005906e-01
9.767061303571916708e-02
1.199894600196973748e-01
8.422893548364662752e-02
1.161102435158131718e-01
1.142783412299639978e-01
9.196125662607954054e-02
7.987015833391578057e-02
9.284081405435434808e-02
1.231574278697618596e-01
3.853464832312459426e-02
1.052286922211000258e-01
8.103054320573957470e-02
1.234326093399491231e-01
9.502915048740018245e-02
6.757663673509028968e-02
3.069898969185727577e-02
3.353058968981021543e-02
7.133034225877019074e-02
1.665137655180805865e-01
8.928876227378473862e-02
1.152232090782167734e-01
1.196858325415416369e-01
1.280410305396309789e-01
1.016644061225133594e-01
1.631340893317525242e-01
1.581134925909938316e-01
2.286861347109331311e-01
2.503308637010233650e-01
2.923796548074025781e-01
3.458035525735501103e-01
4.202043348412227708e-01
4.914279248964563696e-01
5.011382326805569054e-01
5.719743061968108888e-01
6.997374772747121385e-01
7.250364942319528216e-01
7.843706447952967231e-01
8.769056756690494225e-01
9.091782156830930939e-01
9.108109165187371348e-01
8.972597711757679395e-01
9.574511086366258583e-01
9.358509607763365601e-01
9.978879822390793741e-01
9.181240477295140590e-01
9.285301232750762246e-01
8.139034349691700587e-01
7.946286820395637163e-01
7.372806781858678438e-01
6.887130870967324014e-01
6.228649089950255568e-01
5.766979492263983875e-01
5.003177593585640404e-01
4.446811596959384105e-01
3.752511693121273195e-01
3.020842029227715497e-01
2.737030476470052598e-01
2.152631703801606844e-01
1.177091636160230437e-01
1.338842870488356485e-01
6.021915824338369000e-02
1.556577771060402293e-01
6.144292184578038774e-02
2.474355520607924436e-02
1.151596357230891127e-01
4.055025909323408534e-02
7.096590811058570147e-02
1.363990717772506356e-02
8.894804744490837634e-02
9.972861118225390120e-02
9.396764313899162724e-02
5.298391926034574928e-02
9.121408689286825133e-02
1.067811664302412422e-01
6.484544282717552566e-02
1.082730935375932901e-01
9.937798639077181917e-02
9.891395979174472108e-02
1.233976800170123872e-01
1.026343392449159952e-01
6.644437073804784766e-02
1.347647130790381176e-01
1.373023691941168134e-01
1.254780821779341582e-01
1.298325534446500562e-01
1.246822817171484299e-01
1.742865818622787444e-01
1.542695690394499108e-01
1.560293024029235642e-01
2.296463031243566599e-01
1.582990418098365881e-01
1.653415549090763714e-01
1.496728462832842832e-01
1.464211851898255534e-01
2.067064418351091670e-01
2.262808739607987396e-01
1.789635245991947343e-01
1.780287104070637227e-01
1.584566861906641644e-01
1.657299030602475409e-01
1.931121353106101945e-01
1.785973628789207512e-01
2.401454089076238141e-01
1.950357255751749841e-01
1.829867521706504407e-01
1.754200947850985959e-01
1.942424643809587126e-01
2.338729444391517143e-01
2.394138445497670520e-01
1.940535054500843737e-01
2.115910794599120681e-01
1.709971599256465968e-01
1.929902428403692527e-01
2.222619831720285266e-01
1.975078156104830840e-01
1.621477483035674294e-01
2.015048750289011870e-01
1.854442617681464900e-01
1.695703696073879441e-01
2.070516553690116002e-01
1.312328026723365293e-01
1.922954860287122147e-01
1.512429833229243514e-01
7.590899709599581435e-02
1.511868877612354833e-01
1.616265605250873372e-01
1.227390329232867783e-01
6.960061126670141762e-02
1.157772057067426169e-01
8.528730217157962090e-02
1.169158665690083337e-01
8.644343791777475694e-02
8.103079694354244078e-02
1.506101939906586695e-01
6.940226825683348810e-02
7.930271297002175479e-02
7.176057292638343688e-02
8.963739677465816513e-02
4.837798615143207998e-02
9.473179891442137790e-02
5.782825579958215945e-02
6.810349187478202670e-02
6.725923698453706301e-02
3.549472813460734233e-02
5.805547186806855886e-02
8.234390183263008700e-02
1.550696861208428895e-02
2.475522248225683897e-02
-3.012473061959094339e-02
-3.930928587157669907e-03
1.195158336061098725e-02
-1.606058164463015220e-02
3.685288728703746408e-02
-4.139079803494882803e-02
1.472447127828932500e-02
3.705160485167793838e-03
4.733474735687005774e-03
-4.128569516873873552e-02
-5.595935907742675963e-02
-5.034511168581652651e-02
-4.267711204173994799e-02
1.000622896598400008e-02
-3.466219947350669683e-02
-1.374699096650812413e-03
-9.846579925993172167e-03
4.435457250522405193e-02
-8.684112212310322876e-03
4.467374273010443764e-04
-3.258292060175667360e-02
-2.036964865495737020e-02
-5.885066520518059813e-02
-2.743202645561300390e-02
3.243657993300491649e-02
-3.001198911676556877e-02
-6.679523737857154253e-02
-1.916325929839248279e-02
4.832696175008310835e-03
-1.574438158608255922e-03
-4.497868283850049720e-02
-4.682167977067483444e-03
-1.468769839579163114e-02
-2.013276496056370934e-03
-3.592520380524083512e-02
7.021440132774874054e-02
5.674900137458006866e-02
2.163186745452197468e-02
-4.457115556936272482e-02
1.271095201627314014e-02
-4.251419192620922022e-03
4.903120476427726832e-02
1.225869249142489542e-02
-1.694294714937721186e-02
3.589700783573879922e-02
4.594835380402186725e-02
3.753009838955136124e-03
1.845672323975248302e-02
5.370586877777827617e-02
3.976090653009175385e-02
3.781770039675280692e-04
5.271449380275081836e-02
1.324873844465317835e-02
1.026984544842190483e-01
6.648420114203845710e-02
8.131896182295866859e-02
5.157755902359338618e-02
8.142259069994002563e-02
9.836195585900965599e-02
1.177185817451691652e-01
1.162259789008009969e-01
1.295555868486407136e-01
7.543743419657283900e-02
1.023046255578013430e-01
1.398608863692345217e-01
1.248649397692153939e-01
1.060449102070029070e-01
1.230721115211377559e-01
1.116795994739170350e-01
1.314895487962762510e-01
8.815228116339744735e-02
1.741000124759820300e-01
1.051251542652396620e-01
1.029183611018025801e-01
1.761753999868942711e-01
1.323809380022386850e-01
1.340076648396216485e-01
8.597207160570696782e-02
9.708339440875252135e-02
1.192279559710362480e-01
1.537924421487418813e-01
9.684834125945773753e-02
9.459950173667111550e-02
9.741263172306949270e-02
1.104832248439007736e-01
1.144031368543120264e-01
1.449621879742431507e-01
1.379285300036893758e-01
1.566658523501718858e-01
1.968354288685308651e-01
1.531590176098056588e-01
2.355046400153852637e-01
1.877154533009171289e-01
2.487816497271322647e-01
2.772532087632516573e-01
3.350540379752127151e-01
4.313339733574162449e-01
4.359208503451516559e-01
5.202373619533013915e-01
5.309204430731622182e-01
6.546325701380893980e-01
6.992289444537287402e-01
7.848093016367257979e-01
8.549442997913161424e-01
8.701078302502577300e-01
9.893651408309861450e-01
9.892984826777168061e-01
1.013251352851699760e+00
9.844123483274138664e-01
1.024113443435644477e+00
1.002308873565642466e+00
9.286005245937911656e-01
8.966936149838038439e-01
8.772710847391658184e-01
8.178156947917399888e-01
7.939891143270525475e-01
6.925393116068068178e-01
6.504470348560476012e-01
6.289618855043466183e-01
5.020843301575647066e-01
4.884326101250594521e-01
3.541366676293565829e-01
2.783069353258272316e-01
2.600731686090160255e-01
2.618451043713991289e-01
2.021040186325438748e-01
1.894151032324232209e-01
1.229621075177603357e-01
8.169325626827701747e-02
1.020732658305538443e-01
1.237681531368749754e-01
1.450156139718443982e-01
8.714044400781466304e-02
1.206707768891430166e-01
1.428710109541463380e-01
9.339600807074946442e-02
1.181564199498533752e-01
1.235126623369946774e-01
1.033361487214621982e-01
1.538964384881897351e-01
1.153216794801932565e-01
1.582124762241338134e-01
9.293070135794626041e-02
1.022908609195497948e-01
1.501908925312785137e-01
1.422127544883655115e-01
1.937013562614560147e-01
1.614820886112658949e-01
1.649938019757029029e-01
1.366603183086602391e-01
1.695737252772741843e-01
1.786303180174037275e-01
1.644264243002465098e-01
1.932999577322747908e-01
2.572627398455347159e-01
1.527238789048697143e-01
2.034363973928990654e-01
2.138397989651723285e-01
2.535868177043926752e-01
2.502059391487002626e-01
2.445025197329854239e-01
2.330446871188155966e-01
2.401852953200927232e-01
2.541395911784588013e-01
2.260187452833162525e-01
1.884776176447149620e-01
2.230000071590301780e-01
2.439474420414261546e-01
2.460508700522915648e-01
2.386911973072805837e-01
3.238876266213434607e-01
2.277811279445489945e-01
1.958839857966626907e-01
2.469339674890158043e-01
2.333780088541644038e-01
1.990255847033564340e-01
1.987050912446723938e-01
1.925077214095977096e-01
2.451840679040897530e-01
2.697032397367575829e-01
2.804072422933882591e-01
2.741818136350869795e-01
1.682217803240445564e-01
2.042252020834515180e-01
2.053891926582675775e-01
2.299389313055015260e-01
1.947769807418913979e-01
2.138116725501141568e-01
2.359432916923489276e-01
1.785626709203072537e-01
1.897087760655043476e-01
1.799143232619274113e-01
1.670941015739905444e-01
1.708452859959084524e-01
1.503767263785446284e-01
1.630206791392468935e-01
1.477689667395679640e-01
1.502493182283342055e-01
1.586100176057228528e-01
1.635628652189469734e-01
1.104797012601672207e-01
1.338097949280909471e-01
5.589135006018981777e-02
1.472397838669831927e-01
1.259521278986915072e-01
1.255676666319046342e-01
9.045121375215449400e-02
1.118777664899057306e-01
1.511094923090975373e-01
6.807996921293026082e-02
7.214119459759595065e-02
4.264865353623521760e-02
6.491326990518783702e-02
2.170845484898107150e-02
5.401100643815864161e-02
1.319814003128113866e-01
8.492832544517293913e-02
2.516440896757109885e-02
7.946868615382225720e-02
2.099139725527581629e-02
6.405939265576589270e-02
5.417123855224620366e-02
5.182216029946402902e-02
6.900852043673752489e-02
2.459594689770035897e-02
-8.785578796178932295e-03
-4.836229464857830923e-02
4.788611224007265077e-02
-4.253123252562596851e-03
8.320519930963732325e-02
3.850943205159815252e-02
3.012430241630149885e-02
-1.052350359230868303e-02
2.443976400872038823e-02
3.096932574010762690e-02
5.554819245020247917e-03
-1.345240229438748533e-03
3.717811737524139709e-02
4.290346819660365019e-02
4.831336668691378622e-02
5.368310727597306459e-02
1.873540994464012455e-02
4.664571737584338046e-02
1.238237698990121705e-02
1.174383631635960157e-01
-4.530636654037618546e-03
1.308466687995686606e-02
3.941973624086909239e-02
2.888965330419120126e-02
3.864917032422019588e-02
2.946614924641419164e-02
2.592497057031231678e-02
4.599066639404726653e-02
2.911854779133740689e-02
4.389886055790748892e-02
3.597633242466117404e-02
2.085591167419522871e-02
5.705156586340209834e-02
3.616535859920337603e-02
1.017359925590791414e-01
6.523822720066682623e-02
8.438779211473949882e-02
3.908251295600471270e-02
4.912126234752768605e-02
1.060962600197979389e-01
8.793941382585768185e-02
1.071528201217669674e-01
1.086653268791804572e-01
9.458018929518191564e-02
9.073857762560015583e-02
8.297303505320166583e-02
1.917468079511639445e-01
1.427102638342753471e-01
1.165970346178848427e-01
1.630242894066991077e-01
1.751051022467516871e-01
1.213428247847929409e-01
1.432374464282789306e-01
1.286275299432409758e-01
1.425067141227323586e-01
1.558409614306697777e-01
1.365604736541635444e-01
1.517849912634374743e-01
1.853409327536600371e-01
1.349717866685318235e-01
2.017458345631309435e-01
1.212608358173201950e-01
1.991931565980069041e-01
2.539556517422537629e-01
1.946141554883189517e-01
1.754835652361734499e-01
1.545977540407884598e-01
1.766079365652167832e-01
1.608385149821607851e-01
1.766180081418636250e-01
1.677482420563628784e-01
1.400845119659316906e-01
1.304484081024278319e-01
1.623625157001085673e-01
2.116961855378480806e-01
1.316696290702766281e-01
1.454579362313792590e-01
1.575915198170524945e-01
2.359846442066492744e-01
1.825011938959769653e-01
2.365536594699917394e-01
2.776406146108854611e-01
2.404050130451637346e-01
3.103148628266995113e-01
3.460013964793116070e-01
4.576518777417197814e-01
4.830139227508562505e-01
5.694342600239041818e-01
6.122924150684992961e-01
6.822492820673365932e-01
7.019694759373977799e-01
7.874995755694443877e-01
8.741658729982952902e-01
8.955915844378883328e-01
1.006312911590897752e+00
9.729039546595731336e-01
1.022649236948233842e+00
1.068438729892414507e+00
1.042163377211706488e+00
1.023823736785310912e+00
1.013389231693788917e+00
9.582343758027568326e-01
9.329270302798332581e-01
8.865197730666760645e-01
8.784795126036618607e-01
8.471947545913354194e-01
6.916522180582375112e-01
6.129016997598569771e-01
5.668414121747139545e-01
5.063615783810609949e-01
4.516073720973008965e-01
3.740412774455699196e-01
3.248213498493639495e-01
3.380636996969895725e-01
2.603129509734478098e-01
2.436796152420147299e-01
2.112051984277884820e-01
1.831168773538379146e-01
1.641308848319282809e-01
2.067717173396563246e-01
1.381995902912037943e-01
1.557461650615209747e-01
1.529543457025661635e-01
1.067670497163350496e-01
1.314032503009630592e-01
1.323027265798450425e-01
1.686465221275606496e-01
1.113895373781305237e-01
1.317377412364175715e-01
1.582849927519779654e-01
1.601896204553588388e-01
1.680638288748949050e-01
1.931026489879810182e-01
1.178817606504100335e-01
1.931211506974426506e-01
2.310286393260468363e-01
2.536211310332111557e-01
2.370893714822505383e-01
1.428854611600230695e-01
1.846236230052557270e-01
3.094332091847242228e-01
2.147401526397279825e-01
2.559610209344120313e-01
2.575425477764712312e-01
2.181456128703194164e-01
2.214344496443836352e-01
2.897896887524715748e-01
2.286022340864471147e-01
2.421636509233364709e-01
2.970970818255362911e-01
3.082271342763566735e-01
3.102841704973826054e-01
2.964870383071663285e-01
2.730941985256873927e-01
3.119396522067672817e-01
2.748935317615446849e-01
2.967497792746093821e-01
3.062359582255198553e-01
2.993128922087206489e-01
3.175985164395552784e-01
3.298042830331063824e-01
3.419990524107436869e-01
2.602035057291581799e-01
3.178646036858960855e-01
2.342282248891115470e-01
3.420969088613682318e-01
2.443016082873253336e-01
3.086239578811711959e-01
2.419060958283162366e-01
2.726739880850893583e-01
2.884804021826252174e-01
3.314558169095681017e-01
2.915251209218041595e-01
2.643689130408907739e-01
2.571025589448789894e-01
2.203038624447190286e-01
2.788067183246763503e-01
2.736114015388533272e-01
2.593700144713767530e-01
2.465437464598489725e-01
2.740545004437470178e-01
2.418462260807155983e-01
2.108262963935363665e-01
2.189866074983793653e-01
2.260934141609088621e-01
1.756802211189005813e-01
1.964562816554081826e-01
1.989042042121120790e-01
2.080221507955027915e-01
2.406061262251494581e-01
1.869265451559658786e-01
1.907805530370126068e-01
1.862185492005467846e-01
1.811650573485750204e-01
1.117473274266929384e-01
1.761974049983603408e-01
1.883889810515490260e-01
1.776139289672798438e-01
9.849564476959828119e-02
1.427639295303628486e-01
1.678273596633297060e-01
1.495582967882000958e-01
9.933330490201991436e-02
1.001466829264382741e-01
1.347272621685307314e-01
1.285330427342833981e-01
1.348939390606938016e-01
1.083651852043822639e-01
7.386959533595985339e-02
6.660741540816611517e-02
7.913734328377476646e-02
9.974547715294163064e-02
8.638053352430233311e-02
7.979569767294342197e-02
7.873534957287045555e-02
1.123080145769244365e-01
6.943519411155595067e-02
7.262082545453805993e-02
1.112681073785576347e-01
3.654878453948813555e-02
7.960721769880503562e-02
9.621008526975730057e-02
7.230042808642973828e-02
8.579368404462897613e-02
3.154320566740817511e-02
1.293615752892171011e-01
9.277754475061605888e-02
9.786425587121012903e-03
6.518473980707446824e-02
8.344235905226200789e-02
3.542589548890064111e-02
2.995882516678133323e-02
5.810755253652645502e-02
4.905679153834183182e-02
6.544900673993793438e-02
7.229525500833755558e-02
6.729009009483842563e-02
4.188124228184010589e-02
1.455393413819172643e-02
5.294789269478325511e-02
6.191449248262672483e-02
9.457030548837615236e-02
1.013476166773793208e-01
-3.625321261636338388e-03
8.488861070728329072e-02
3.764356066273807921e-02
1.096694664172952749e-01
4.311188450003885370e-02
1.079904606728673139e-01
1.307320507878161897e-01
8.419900719222239704e-02
1.032921752923486591e-01
1.151396635961764864e-01
9.399664715456479414e-02
1.331956833863565948e-01
9.086849791277767929e-02
1.167328343233314247e-01
1.262339104255391642e-01
1.685316805240499038e-01
1.804119375862031083e-01
1.878794190101873707e-01
1.673650381949356170e-01
1.523731140975479181e-01
2.493227021666170606e-01
1.835021653290400678e-01
2.103596734965560988e-01
1.862859701500616805e-01
1.865163418310012977e-01
1.944434056348629258e-01
1.925409490000138113e-01
1.655275169495453724e-01
2.560293641692427125e-01
1.836603424906734783e-01
1.605381167213880134e-01
1.968111281794777956e-01
1.677314315579794268e-01
2.265383584247630255e-01
1.893929156353010568e-01
1.551855404800817351e-01
2.568148377031049812e-01
2.184889604041737321e-01
1.870333156130961627e-01
1.639088723827443195e-01
1.604707277537800458e-01
1.766657162432967998e-01
1.873466806086454273e-01
1.932988249308786877e-01
2.223802537342080554e-01
1.883085792358179245e-01
1.827187225719876240e-01
1.923792711496843111e-01
2.179916272195842886e-01
2.247583217643606968e-01
2.048143978180574643e-01
2.055843128381880658e-01
2.827994536112607427e-01
2.486182818511626369e-01
3.201362809528487952e-01
3.773723352921097285e-01
4.323218725252844230e-01
4.517881920170720988e-01
5.298522062434283253e-01
5.707095919191311761e-01
6.746610901701837193e-01
6.872360930646648214e-01
7.604003421408599417e-01
8.518565371349144932e-01
8.146954369311063537e-01
9.675266773082452643e-01
1.006032875229840862e+00
1.000429274924668155e+00
1.053192914504790023e+00
1.041599114194350584e+00
1.072603856656484833e+00
1.103260125772163480e+00
1.034975261462480978e+00
9.961008340925102678e-01
9.178477004714263865e-01
9.150734076880545631e-01
8.217249512533740807e-01
7.956086018230967838e-01
6.855958600929856761e-01
6.520302628194569738e-01
6.157844975797734932e-01
5.787328679495317152e-01
4.714520541461566516e-01
4.258635422248574498e-01
3.340942375685379551e-01
3.325948329273815673e-01
2.853705398195843790e-01
2.361560106886386179e-01
2.143392245142394792e-01
2.197132369787549444e-01
1.855951390779306542e-01
1.643360381228858025e-01
2.438380583780501709e-01
1.687934414691873442e-01
1.125522146761987474e-01
1.256821348881093370e-01
1.314268771715068063e-01
1.484458233928337423e-01
1.457134714932734054e-01
1.883821410598193469e-01
1.857817448871691979e-01
1.948850362982929296e-01
1.834761973344380681e-01
1.956091975864505672e-01
1.996165627111690100e-01
2.018416891040643590e-01
1.827972513617968087e-01
2.057322812809533885e-01
2.179982697538298819e-01
1.940233847963480085e-01
1.976797546920316395e-01
2.687993861040476329e-01
2.224556996461268532e-01
2.401599443781734511e-01
2.613054256507033601e-01
2.601460407471880010e-01
2.345503614447200513e-01
2.982375686939406356e-01
3.136474575565644796e-01
2.897416380601703922e-01
2.611948961248065637e-01
2.679186066881418249e-01
2.774399614901348343e-01
2.712165992015118099e-01
2.864613794538435898e-01
2.803576711620626161e-01
2.840224544740685420e-01
2.669886702274428258e-01
2.813070370912099105e-01
3.251047562276743186e-01
2.820152690283126429e-01
2.587310211542317440e-01
2.923399330531050722e-01
2.874238074331396664e-01
2.895080182400082136e-01
2.822902779795870010e-01
2.740399977492287142e-01
2.640077314808765285e-01
3.042511406263752605e-01
2.871881610940710816e-01
2.716034762343217945e-01
2.617099858585805738e-01
2.809353865071273493e-01
2.230537356340061006e-01
3.254805161704822924e-01
2.716320000601656348e-01
2.665187266362094021e-01
2.611464512126736026e-01
2.223370033903313558e-01
2.578483849153824226e-01
2.311011228887068780e-01
2.348530357418122938e-01
2.355913190438946869e-01
1.991844460325899735e-01
1.987527361183316910e-01
1.989244910213534001e-01
1.589272385643200891e-01
2.539451445669843599e-01
1.657221053166685887e-01
2.002418837614049207e-01
1.700403054412416015e-01
1.675300725263395296e-01
1.372622289533593221e-01
1.670691066412683667e-01
1.770709470769169513e-01
1.662814786380899246e-01
9.818671168499280844e-02
1.796617646682827085e-01
8.843221775991759459e-02
1.122941354327848529e-01
9.651220619194234018e-02
1.282840194268577982e-01
1.032060242257501481e-01
1.118676271485624929e-01
1.111148479792256338e-01
1.375231561487953169e-01
1.273976233458236351e-01
8.558292089433329475e-02
8.204879515965299297e-02
1.120882148142484658e-01
6.161214342078533829e-02
1.446598758758735892e-01
6.547592685915828992e-02
3.377291882825357583e-02
6.605673678422359363e-02
5.642496308413480488e-02
7.689239298839445347e-02
6.315284217478089879e-02
1.167916290270981372e-01
5.616190466894367683e-02
5.659290529761611122e-02
2.568070942524346145e-02
7.845100793420661800e-02
-3.086273690160130923e-03
3.576106767135261988e-02
1.169124184576595116e-01
1.664784974847461491e-02
8.673519153930246695e-02
4.794940581090001430e-02
8.353105324093615391e-02
5.755105484282473094e-02
5.796349633457624495e-02
5.802469759068709654e-02
4.418517062780848159e-02
2.691282120998746141e-02
1.821921953234614810e-02
1.225463341964659614e-01
6.402581311588870228e-02
2.955005497063556766e-02
5.771815844817781288e-02
3.769771749332012645e-02
6.214117288805900974e-04
6.113179921452265714e-02
7.560471269304200326e-02
9.106031857895958981e-02
3.760470074068954921e-02
3.321472753755229379e-02
4.315038761656304900e-02
7.741589677191453023e-02
8.726636982697903722e-02
3.383177093806385288e-02
1.193974418922102709e-01
7.144083108506479873e-02
6.911079944008588494e-02
1.216887542963350222e-01
9.600848070320203154e-02
8.017515818488632484e-02
5.461508039377832580e-02
1.003824734136089802e-01
9.195974972182768825e-02
1.007140335730317693e-01
1.077665201018527391e-01
9.391855170625987292e-02
1.206560994495032013e-01
1.362041483960614030e-01
1.264650392081836938e-01
1.595587689417325705e-01
1.607920596684876413e-01
1.449497405042965981e-01
1.721662593010034326e-01
2.025957239828646284e-01
1.782743739264049665e-01
1.197142354206285342e-01
1.777960904007573062e-01
2.079745692534107904e-01
1.697092391124746524e-01
1.449684708708330882e-01
1.737655726763241704e-01
1.674846413803004752e-01
1.700263021658195983e-01
1.863955864828543973e-01
1.993792939062268010e-01
2.068599984724720509e-01
1.707616221237005238e-01
1.113996320271940649e-01
1.038941721748888464e-01
1.358357476582928713e-01
1.157615710193280051e-01
1.426031842557423102e-01
1.858045345637446277e-01
1.477229029657435300e-01
1.882622588010221254e-01
2.069979624660361062e-01
1.400998964246916445e-01
2.298586815608280043e-01
2.074532520833251570e-01
2.204203726488274395e-01
2.634844783200995799e-01
3.082662730200959045e-01
3.140142859680208343e-01
3.222065377818528753e-01
3.930147781155444164e-01
4.458210507202012285e-01
5.309280182092944722e-01
5.511254981202325931e-01
6.386544216671861118e-01
7.252274579923870812e-01
7.701282488575434959e-01
8.313963073905001888e-01
9.082591254974947681e-01
9.740409629710573558e-01
1.001247628943644941e+00
1.008116926007734726e+00
1.032134612227187720e+00
1.023994062483884804e+00
1.113865984625723282e+00
9.833084223165984294e-01
1.001078535700563155e+00
9.777126426196743880e-01
9.086003103083400978e-01
8.036852126603460933e-01
7.904202798318485934e-01
7.375630855480568293e-01
6.379434355188907668e-01
5.734467225430543991e-01
5.168384951812847738e-01
5.142483553969807719e-01
4.252960719925244493e-01
3.437422007968574666e-01
2.739915775209095239e-01
2.817395235283221555e-01
1.992030505655610628e-01
2.202929941691735838e-01
1.462694369610395839e-01
1.275051056978335762e-01
1.232767955631357271e-01
1.409196150536539405e-01
1.130178679147795240e-01
1.295615421622316743e-01
1.157444630860684082e-01
1.328274826305841927e-01
1.004957062255535660e-01
1.013329963958774227e-01
9.548679592337870614e-02
1.179908093084802156e-01
1.071086595437397843e-01
1.169098404911767392e-01
1.966757541049459490e-01
8.038417165160378908e-02
1.809979776226927073e-01
1.531188954354506526e-01
1.108040466679491853e-01
1.538673739154821640e-01
1.941886917079792552e-01
1.920680074257335168e-01
1.058246480003673662e-01
2.138215936120455296e-01
2.023585120749358535e-01
1.888325057105728066e-01
2.030147806201706151e-01
2.222233595281599694e-01
2.037395802197598527e-01
2.513310614851015368e-01
2.525456504499462018e-01
1.819309972704260536e-01
1.922412604874358111e-01
2.272372963325528239e-01
1.617805015645253364e-01
2.772602728732879163e-01
2.295019280830647157e-01
2.240068245926354895e-01
2.449371176040582576e-01
2.866976489916343573e-01
2.088543671053666451e-01
2.817748222123168667e-01
2.151495377194179437e-01
2.091831916978151296e-01
2.308864744088754417e-01
2.095762511224002478e-01
2.554544553269991192e-01
3.031065264479825827e-01
2.445062546939695547e-01
1.975627002590122638e-01
2.283929949749205768e-01
2.379076889144683959e-01
2.107503600020210754e-01
2.666504864684741127e-01
2.532776943141413772e-01
2.122471637043446269e-01
2.058784459073507989e-01
3.216988957338505761e-01
1.813170600904605578e-01
1.841915794109605931e-01
2.606000814556766465e-01
2.465281093367222010e-01
1.726217672606366882e-01
1.950889312269696863e-01
1.663844293050777412e-01
1.337758242627432315e-01
1.969688888339486132e-01
1.897740902668955121e-01
1.402211659030563884e-01
1.892210594967974058e-01
1.597126105312919042e-01
1.213205323832957372e-01
1.233675273700314268e-01
8.682670642246351211e-02
1.267447971105320481e-01
1.083336270619322389e-01
1.290449519121006638e-01
1.188008043934890290e-01
1.091646076709571755e-01
1.257678525311616002e-01
1.004284845835137496e-01
8.885533072688892031e-02
8.188655838463829162e-02
7.254429396205779035e-02
6.367666312572184406e-02
1.127903178574237858e-01
5.806735149492927434e-02
4.750404307142225280e-02
1.207913977134288108e-01
6.202798796779968732e-02
3.446605351814982510e-02
9.294205532949554108e-03
4.356190747112743955e-02
1.708386399508149411e-02
-1.363214257557798272e-02
5.001535733634800834e-02
6.959054153678698174e-02
1.418033379426278905e-02
-3.468161286164223728e-02
2.199112265085791801e-02
4.813552390763703448e-02
-3.501342827905354685e-03
-1.637084184173363127e-02
-6.149518098490678805e-03
-3.073134701204439934e-03
1.107925380808588711e-03
4.863225647834118481e-04
-2.434997965130661704e-02
1.853072143716680623e-02
3.130612737950806690e-02
-3.607437143620557257e-02
1.812467749158203426e-02
-1.627029962318421452e-02
-1.396096607553048985e-03
4.573353574388153847e-03
-1.506931973790478878e-02
3.851717762122817273e-03
-4.980595884534438911e-02
3.775628203107524866e-02
-2.193649421316236012e-02
3.404108968763235044e-02
3.955236544352407069e-02
2.381453938543400331e-02
3.632552075085549587e-03
2.328602232911407277e-02
5.124721721386472917e-02
3.093859677826736945e-02
8.335359349913931681e-03
-8.890991058258353869e-03
2.846743954386936337e-02
-3.278988688223701681e-02
5.977520579629958669e-02
3.919076492464158151e-02
4.020143703126367873e-02
3.357551816527883093e-02
-4.057473143505776342e-02
4.594491271733125437e-02
2.572434925715071791e-02
1.614171860646899243e-02
5.430532076145103137e-02
9.960134891599341928e-03
6.749195783140431171e-02
6.279211637204827612e-02
5.984299365589348940e-02
7.267602399934094959e-02
6.883525327125558646e-02
9.503608543170349865e-02
8.226762668512750676e-02
1.571488413239531534e-01
1.230887384350034530e-01
1.022136794026469175e-01
9.499631664664474895e-02
9.321849971258189260e-02
1.006479654215879649e-01
1.092043752320245864e-01
1.467448277081270791e-01
1.520833106586781946e-01
1.356553388024754336e-01
1.603931610436705457e-01
1.472645557078247347e-01
1.263575122725021094e-01
1.205729789169693172e-01
7.453311987528525584e-02
1.608015477997554732e-01
1.375633909412711242e-01
1.334492184296589834e-01
6.031424130548922180e-02
1.146332745757399629e-01
7.991209625037028197e-02
1.199293759681007154e-01
1.482013676950232339e-01
7.829030981381192300e-02
1.309602497020334044e-01
1.229802131041695806e-01
1.598453867576946075e-01
1.519902902602648931e-01
7.316317341984135414e-02
1.325767560961648162e-01
1.492352240214852854e-01
1.688527693329258672e-01
2.264631024431593420e-01
2.356254684218098694e-01
3.015602228283413844e-01
3.743204976092488478e-01
4.372332886692713583e-01
5.121623365203790135e-01
5.648389691749310382e-01
6.177686365685196579e-01
6.201952976354010438e-01
6.995419244364932121e-01
8.644555543352866467e-01
8.698573148019831391e-01
8.860394274969934925e-01
9.470317746179792717e-01
9.587021034182146018e-01
1.041036923179468499e+00
9.620628100937728133e-01
1.034508535944401286e+00
9.722035384519065460e-01
8.952484252991121938e-01
8.946181301819592369e-01
8.980484414488638656e-01
7.665747429457063777e-01
7.421638141665315436e-01
6.345540254178196893e-01
6.354977308749603093e-01
5.653198734297871786e-01
4.376429700489372632e-01
3.375395624999893984e-01
3.030063515651102990e-01
2.847423417206729757e-01
2.475006892793427948e-01
1.768764669909644038e-01
2.282421969262745931e-01
1.495522924188132652e-01
1.026666030359554005e-01
4.391359044680352708e-02
6.573515596026638375e-02
7.215289404596028633e-02
8.375027218654186589e-02
6.561932016953092583e-02
8.976157903729187204e-02
4.998308204702783114e-02
7.782265949356548251e-02
1.139836277853394642e-01
6.115840493566796626e-02
3.792246279527176911e-02
5.489171199046095906e-02
1.392619730469203121e-01
1.108484551521002059e-01
7.229906599451776938e-02
1.288469384335786116e-01
1.591102831971950571e-01
9.350389723404156639e-02
1.267453598766275225e-01
1.068443695575642949e-01
1.353749637469772726e-01
5.746525756650529282e-02
1.915581083781326133e-01
1.238481733584617384e-01
1.473002754226553634e-01
1.465948080736866055e-01
1.869564989184135384e-01
1.603128463490433586e-01
1.924088510157439535e-01
1.823856359757309586e-01
1.865171768671060049e-01
1.946130645328166819e-01
1.981703963251725542e-01
1.880588759093108076e-01
1.898673184592049035e-01
1.483983143338594712e-01
1.844176825653928986e-01
2.231645477885062512e-01
1.866605895240174839e-01
1.778183294816652049e-01
2.570658294662871435e-01
2.104021506768140315e-01
2.043901949124711792e-01
2.305031567064857456e-01
2.118040777659334906e-01
1.792072526925041487e-01
2.070310314359334880e-01
2.199430837590173049e-01
2.294515622613236827e-01
1.893411748438640074e-01
2.429475918295147252e-01
1.834004590677070778e-01
2.088577047736594750e-01
1.696530791433778218e-01
1.758657722184323313e-01
1.900122283082314734e-01
1.675040770005503943e-01
1.606119349014532016e-01
2.081905372471824223e-01
1.141758091945067333e-01
1.005786870079738438e-01
1.804784981951081946e-01
1.441507854042099745e-01
1.336322495225728824e-01
1.932310972203012123e-01
1.404544177165364394e-01
3.270347544790010164e-02
1.334389789678673832e-01
7.002882067116583675e-02
6.952207923161313197e-02
1.069952093003461169e-01
7.946403288913503338e-02
1.116517550752992999e-01
1.376002127315342216e-01
7.464403246221805455e-02
7.191786682268377917e-02
3.394228878576039526e-02
3.264295702830395662e-02
1.882933561928395311e-02
4.771788237474143546e-02
1.372425553845558338e-02
3.192161984831604765e-02
3.195135307825837379e-02
4.388301125826073179e-02
3.114665812919024945e-02
5.865776009045837319e-02
-3.763245342882796940e-02
-3.847947135836173038e-03
-5.085103363332979520e-02
-1.439165279549271814e-02
-1.660170174363590628e-02
9.213782088729263742e-02
-2.765581168628258174e-02
1.748893147646715662e-03
1.679483638906902054e-03
1.610689879327337898e-02
-7.970098124397090311e-02
-6.329230317904949166e-02
1.026376143968233540e-02
-2.864258704388183627e-02
-1.379917250659963568e-02
-4.608583726181687823e-02
-2.020578996372635744e-02
-1.055393418974591435e-02
3.721075985986282975e-03
-6.658772258033297808e-02
1.235859402553526887e-02
3.148299501097283348e-02
-2.449196682486651233e-03
1.037474998266577769e-02
-1.067196489902105111e-02
-4.954726954242320153e-02
-4.932895387724519493e-02
-1.335952106691037228e-02
-4.394080993013517455e-02
-2.883990197278584605e-02
-9.702546834814021470e-02
-1.916429299720950885e-02
-4.691937217285664652e-02
-4.595310275200946426e-02
-4.201247724642221543e-02
-6.230588317993469849e-02
-3.161269642375407612e-02
6.106704917582805869e-05
-4.607313464212639542e-02
-3.317721290174582838e-02
3.638846729700564997e-03
-3.772109112576881029e-02
-7.770985419834584851e-03
-1.292294621912046942e-02
2.931635249959983064e-02
9.762723002240139558e-03
-7.789020563706286482e-02
8.828994588412789057e-02
3.889889742177105036e-02
-1.085286255886089291e-02
-1.046589818331534333e-02
4.406015920789779772e-02
2.124572744631275656e-02
1.146264778154239272e-02
6.634534232753876160e-03
5.999976580620968586e-02
5.912097037230851920e-02
6.337066307138082555e-02
1.164739954000524325e-01
2.052811792631000637e-02
5.619625088602243218e-02
9.510230897931168381e-02
8.588112908179401650e-02
4.101161737773006272e-02
7.271014272564757519e-02
8.143207184069142790e-02
7.878969857037423918e-02
9.584332230995987190e-02
1.418946585237653157e-01
9.617341606475421356e-02
1.069913264336140035e-01
9.247538065667233742e-02
9.990235884069338657e-02
1.003580457235152823e-01
6.219978713648895152e-02
6.984144526319854829e-02
7.410226117806206769e-02
1.281580787093024587e-01
1.053042043981910619e-01
6.978218638253294581e-02
9.980819540133814560e-02
7.443958453752828885e-02
4.453095077927919643e-02
9.189983362935089106e-02
1.357904186898725440e-01
9.057532986146414611e-02
7.012768713511674523e-02
5.467161036320115214e-02
1.188944273873181329e-01
1.300588269603305813e-01
1.432029510566326935e-01
1.273886388317878038e-01
1.990703312083025589e-01
2.157407595032857506e-01
2.740135999347511619e-01
3.341859787070550203e-01
3.588411600339440621e-01
4.395293481757320819e-01
5.018732345256780025e-01
5.374306821702794501e-01
6.255575339478793850e-01
6.741526649264851789e-01
7.604808646472814848e-01
8.369912275314173034e-01
8.740661641065938792e-01
9.210312170462044978e-01
9.462887533404594764e-01
9.461077883264487065e-01
9.641295550806829873e-01
1.009710769116328066e+00
9.910998815762703806e-01
9.750649105144959528e-01
9.028279860132449874e-01
9.143933717904608738e-01
7.534409298013811096e-01
7.788296045411663426e-01
7.056393702917327371e-01
5.991999809409748190e-01
5.805220474446668444e-01
4.976730425095788890e-01
4.271956672557665202e-01
3.058325346312086301e-01
3.023283123591789523e-01
2.699997667468214679e-01
2.752504184674715026e-01
1.416631458794046228e-01
1.730267579819978196e-01
9.949137785863616801e-02
9.601511174928964443e-02
1.062736281238941954e-01
5.650000429339588348e-02
5.748225026025111095e-02
1.679641098821815781e-02
8.943303829003393379e-02
5.876862006033985175e-02
8.965035731061829494e-02
1.026762089351541396e-01
8.556781649004582824e-02
4.089505727280458303e-03
8.998017377529060612e-02
9.994010995899324512e-02
6.876235354542092892e-02
1.399526211737324999e-01
6.221342891747653342e-02
6.379020749206498753e-02
9.907275963586920087e-02
1.251439138248190974e-01
1.347250350662944351e-01
9.325233805996567538e-02
1.379003528506457521e-01
1.320543002644534447e-01
9.852458741807437748e-02
1.247665173937141103e-01
1.452345764316747556e-01
1.634743265327598949e-01
1.581284886270762635e-01
1.339481708867164833e-01
1.544355397176049860e-01
2.310627032785446400e-01
1.771870653614424918e-01
1.938387361435240375e-01
1.680727456443954493e-01
2.197788918153334159e-01
2.061423671985260497e-01
2.154524319333032678e-01
2.102013541930600471e-01
1.920994615851895349e-01
2.149669495047571433e-01
1.539849004021589529e-01
1.658103871887919023e-01
2.285743470806112509e-01
2.093162041082773095e-01
2.064849245454754567e-01
1.951648039878369212e-01
2.159304699412755435e-01
2.740115502979593720e-01
1.711275554899126528e-01
2.484189652324229614e-01
2.234189704231464568e-01
1.863644968079226361e-01
1.770166982616670770e-01
1.763319976134383460e-01
1.862796474921044887e-01
2.027883305453380691e-01
1.941969762831973478e-01
1.964224123635262276e-01
1.841874682307102218e-01
1.850018480590547021e-01
2.044628144946123993e-01
1.784438332134929139e-01
1.766457442071930894e-01
1.981561408009477054e-01
1.950530680301983677e-01
1.416970736352350935e-01
1.427957558356740542e-01
1.267155458025288894e-01
9.745248202166173490e-02
1.309982970450847550e-01
1.525652090398554317e-01
9.368936662587556974e-02
1.294738891725856489e-01
9.257834210513490869e-02
5.905207169127610345e-02
5.327382039067969643e-02
8.404104761606873142e-02
1.083906191054452017e-01
9.632933317363756576e-02
7.860155931023565801e-02
1.142809229829787471e-01
4.534414233318325577e-02
3.929227505720254282e-02
1.048922972379803115e-02
1.565217072891583044e-02
6.666275120234188556e-02
5.474346651399204094e-02
-8.219807620157539019e-03
-1.307943156895600284e-02
5.350940464290406678e-02
2.762736810501957574e-02
-1.481387804148810369e-02
2.923748170642255506e-02
-3.752873128494746413e-02
6.860120156091352450e-03
5.018516372536330900e-02
-1.926243190577960410e-02
1.979660951889796600e-02
-1.460175683145817707e-02
-1.441708863550111852e-02
1.731325028750940048e-02
-4.024232463631555179e-02
-2.964986796059530111e-03
-3.601110211506024228e-02
1.022732313458352832e-02
3.214442544173207184e-02
-2.358768043779085888e-02
-1.352737453157295405e-02
-5.619431343161881975e-02
3.248781451745472865e-02
1.211453941859195332e-02
-1.528417554788308319e-02
-6.065466842410348336e-03
-2.078459380706208781e-02
-4.727972680770266972e-02
-2.703155353413429218e-03
-1.562840450887378885e-04
1.036192857333175996e-02
-2.363352441858158209e-02
-8.522371008728334835e-03
-4.291035930858173170e-02
9.743790527231978998e-03
-2.621638726896270699e-02
-4.234053108475140104e-03
4.797485543779556744e-03
-5.923489191575091739e-02
8.770322111611844607e-02
-6.504698111603313126e-03
-2.581123201366819150e-02
2.771291885863767443e-02
1.719355756919752065e-02
2.966121643478014311e-02
4.686105884934997634e-02
4.522957206309174971e-02
4.810775351706353398e-02
6.224091309132814831e-02
2.248866630803824165e-02
8.774966468495253025e-02
3.947196312534911877e-02
3.247049852081265731e-02
4.493281926652702152e-02
7.243006824661542276e-02
5.957766402116446147e-02
1.067938532914664701e-01
7.217733924506629373e-02
6.824886685782120821e-02
1.078762344297655162e-01
1.235956036583263917e-01
1.506662531944626404e-01
6.473344323542631895e-02
1.081702907254076390e-01
1.289426495117528826e-01
1.673490516482101231e-01
1.673190952898467032e-01
8.262651035181797776e-02
1.109240131035552912e-01
1.386835987067360221e-01
1.229291229606985503e-01
1.539687281822922915e-01
1.550208876406569958e-01
1.732544863424758663e-01
1.960502884807637791e-01
8.526978173171617659e-02
7.437538693513010002e-02
1.313691793364947236e-01
1.190817952480098668e-01
7.202862563147678643e-02
1.188228375912866314e-01
1.407291872442189007e-01
1.271736901013975907e-01
1.298266026048164601e-01
1.172405321121410132e-01
1.571716528875452545e-01
1.735631422687633207e-01
1.502859751155847801e-01
1.875783790745821356e-01
9.612763592988464445e-02
2.478892833520063566e-01
1.285968525230500037e-01
2.636210674809907895e-01
2.645627153904498430e-01
2.821198728490958985e-01
3.868153043714313566e-01
4.821643701306777552e-01
4.896972757218018280e-01
6.024662313952235948e-01
6.131003169962977450e-01
6.526493108694088052e-01
7.621537091654271290e-01
8.445984260622440010e-01
9.125368786050123138e-01
9.170367593039020493e-01
9.738330665135561670e-01
9.981958498449268191e-01
1.059058520878153997e+00
1.014265222281608425e+00
1.009737066913166226e+00
1.019797648599778395e+00
9.722375333733093150e-01
9.794445978324605173e-01
8.512214328339174907e-01
7.468887143862926736e-01
7.044793217856051282e-01
6.603839446641552868e-01
6.489093177375945265e-01
5.707416063925840888e-01
4.911950156907355369e-01
4.420933271587001445e-01
3.532601575400583505e-01
3.640617676679696046e-01
2.641234283618554279e-01
2.680980628242772834e-01
1.716264123032556210e-01
1.532367456150629526e-01
1.319132946037099297e-01
1.521220199400374340e-01
1.188266870133034003e-01
1.470821981793443423e-01
8.757648395454510626e-02
1.069943920896379297e-01
9.138014097352596676e-02
1.194621034598687126e-01
1.115903273357915920e-01
1.437984418683300181e-01
8.157475411892792239e-02
1.475735470597024368e-01
1.390282761736318096e-01
1.192012877959362088e-01
1.441467430093184843e-01
1.358354212966378094e-01
1.257720567164037073e-01
1.657338117998174709e-01
1.787274850461598175e-01
1.466669527163606823e-01
1.995909326041171439e-01
1.664806348933925428e-01
1.336588772732030250e-01
1.836940937090690562e-01
1.685595198115634741e-01
1.633351292078324690e-01
1.346087058165325590e-01
1.772649829030275292e-01
1.847270879007934519e-01
2.273546373061623160e-01
2.341889351594573510e-01
2.049898948977201540e-01
2.409097085523347614e-01
2.354479520304242623e-01
2.896157470486672714e-01
3.044911672116226153e-01
2.488304666346127236e-01
2.444822762370817137e-01
2.522103313477390141e-01
2.167793762802846524e-01
2.618492566497979124e-01
2.964133755702512696e-01
2.547229048323741418e-01
2.516911294385260622e-01
2.416326359699325632e-01
1.973868866528291077e-01
2.314691184229777099e-01
2.667006785034014005e-01
2.025930728399114034e-01
2.659860390961157339e-01
2.666271840490339051e-01
2.397874937207363222e-01
2.683781610947930663e-01
2.117691544142854265e-01
2.521228732350952462e-01
2.032998992776673675e-01
2.189403666554424199e-01
2.273561109658672474e-01
2.326114487304397627e-01
2.344523179170404925e-01
2.053249399827473676e-01
1.993745204014217287e-01
2.366708003374359826e-01
2.039893065960314278e-01
2.208497133902344589e-01
2.428323068554469610e-01
1.343575175878727324e-01
2.158188746948761783e-01
1.473474561876044198e-01
1.333125726708236647e-01
1.369847314060076426e-01
1.852906627379105609e-01
1.414982478504266394e-01
1.130464418964997331e-01
1.943640874348062930e-01
1.529620359062857093e-01
1.359540467582315837e-01
9.384965933882769007e-02
1.206324088404199385e-01
9.723464291392089343e-02
8.653741902285491672e-02
8.304617026033488114e-02
9.115680405162762678e-02
5.221029190909102363e-02
1.030587802841466394e-01
1.014822244369540105e-01
5.120196086966933430e-02
4.496239713500115032e-02
9.106219899173652321e-02
3.088920480610661198e-02
1.530475576547023903e-02
2.361327992734650605e-02
7.894456261694217380e-02
6.584118143239837961e-02
3.447713080527459867e-02
1.769868694674300164e-02
4.397592125569431409e-02
6.383964698004013227e-02
9.079676783979799548e-02
4.145186923765355191e-02
6.666305462057886544e-02
-2.083211881429663029e-02
1.874611583017885691e-02
8.413304363739619596e-02
4.022971106748290948e-02
6.158942332090459881e-02
5.699980221644468381e-02
5.114458400969951191e-02
1.781424702935680005e-02
6.479243722831971863e-02
4.354236477143530459e-02
4.211968029326847163e-02
5.602228997309641190e-02
7.744081213473242437e-03
2.329111209899548118e-02
6.457444478330960635e-02
1.289640084611075321e-02
4.385780051481392994e-02
2.597822215626614806e-02
8.421810931259260391e-02
9.509172554033906710e-02
5.640683835493338211e-02
8.944567122331152642e-02
3.943928512230022998e-02
8.543582869079366371e-02
8.251386160833672212e-02
9.946230494017731238e-02
4.525515533800165968e-02
1.142927405767974885e-01
5.074073198529981815e-02
8.657716769234244381e-02
6.389095607335196214e-02
8.534022397783144753e-02
6.222547308282748435e-02
1.305179334821738590e-01
1.365004518254973043e-01
8.841109936393892754e-02
1.136096017257013507e-01
1.025811519032116120e-01
1.072858650209524978e-01
1.012301767450776296e-01
1.504772898040526163e-01
9.144575180859781938e-02
1.076465642837378112e-01
1.027657524165677960e-01
1.508543916694841114e-01
1.626826974528961522e-01
1.973384179074959832e-01
1.182465673396735917e-01
1.422374411735663757e-01
2.117869762144994339e-01
1.377214333240979749e-01
1.831893699605716685e-01
2.045476238532510649e-01
1.920916442830612469e-01
1.771860970300850324e-01
1.886184066313282837e-01
1.579051025048364143e-01
1.531872332377240686e-01
1.856515644080587168e-01
2.123337555178826663e-01
1.717784164319181295e-01
1.993633409187227090e-01
2.103325649494437177e-01
1.615679153385330968e-01
1.831924959679258891e-01
1.421036461212945023e-01
1.699052816119379639e-01
1.740918558967839980e-01
1.597098325917812867e-01
1.844695206387497455e-01
1.873740441728374839e-01
1.778742016886210031e-01
1.617760101807526607e-01
1.566951954833961658e-01
1.895840943600616002e-01
1.891283126722448360e-01
1.637665749512858815e-01
2.132764458487347303e-01
2.860368990579330584e-01
2.966305266258172368e-01
2.950516999665163675e-01
4.525802847579049604e-01
4.354289906632383134e-01
4.931261755886422460e-01
4.994223340776951514e-01
5.807189450612642023e-01
6.735688759892424216e-01
7.435035213470904125e-01
8.453611278526068640e-01
8.925750754719625757e-01
9.545003075118063673e-01
1.006742541899469545e+00
9.925820504896657459e-01
1.072691929519087983e+00
1.062420263687706701e+00
1.116266540173091570e+00
1.082358919760675331e+00
1.050406897900593606e+00
1.009221760012591895e+00
9.375885428723923498e-01
9.351377423879676520e-01
8.663077582112667097e-01
8.306081256287805026e-01
7.197481757358327181e-01
6.374294232517367931e-01
5.445834022765606575e-01
5.026878179213757347e-01
4.367029475000865912e-01
4.587884354255747366e-01
2.849579122582468482e-01
3.061034239889957043e-01
2.724099947558414336e-01
2.804332817090909868e-01
1.588870296322311970e-01
1.887234515563565307e-01
1.976538407849038892e-01
1.354134947836965752e-01
1.557298889462988833e-01
1.490226294899583692e-01
1.652385839114481891e-01
1.459259116818854563e-01
1.433331249388749007e-01
7.831542966036117437e-02
2.059558133822596282e-01
1.634343744828573863e-01
1.904750315067602062e-01
1.374553295758543237e-01
1.845670893196103002e-01
1.988447802009385978e-01
1.829201139225118122e-01
2.077580402773800961e-01
1.715610902271137161e-01
2.069513280649079301e-01
2.158642713611945707e-01
1.951256716188774498e-01
1.920223109988754839e-01
2.672975172333517668e-01
2.299914845597948176e-01
1.873057924942006514e-01
2.238559300698164112e-01
2.599804147654012354e-01
2.063024002012451008e-01
2.590648747061830015e-01
2.942838136069603205e-01
2.747985600072704870e-01
2.542321828556869390e-01
2.983268897885444915e-01
3.049294517766496515e-01
2.939876716399895118e-01
2.522508312686412846e-01
2.626705723409012982e-01
3.284072093931874603e-01
2.831663469621958917e-01
3.197273579085863071e-01
2.621242378424442077e-01
2.667337053267125890e-01
3.056698183319041529e-01
2.893426343220081298e-01
3.282526461638475834e-01
3.244616912651515639e-01
2.924516094133584598e-01
3.107294194561350253e-01
2.839328088519691429e-01
2.531625258947421964e-01
3.142117225211533138e-01
2.754272983793829566e-01
2.882501110292360891e-01
3.003215856141292495e-01
2.959200593619248920e-01
2.286252765541672005e-01
2.784074945203260931e-01
3.212863759453793988e-01
2.823765449438281339e-01
2.507047311728571870e-01
2.923316065459527491e-01
2.210448348976481181e-01
2.547055822116294777e-01
2.558485448831671061e-01
1.990103384349509175e-01
2.335340391119935521e-01
2.452347580660982074e-01
2.386255814630406369e-01
2.560943573046901567e-01
1.969255586434890959e-01
1.801490783872266577e-01
1.359237769986443023e-01
2.096672306221440685e-01
1.812010050867177979e-01
1.302621624041680193e-01
1.876762276778823346e-01
1.472275952261244969e-01
1.661795359903824876e-01
9.153299257486396945e-02
1.872568414996162722e-01
1.644427969004132184e-01
1.386546934637951645e-01
1.752287877765624224e-01
1.342900713574972649e-01
9.858013496904387274e-02
7.654380266725333004e-02
1.148199759452115387e-01
1.143382290136484569e-01
7.793754129602263603e-02
1.237280162943144718e-01
5.822190975611015590e-02
8.025583208730383000e-02
5.953441852294898140e-02
1.411511312839421328e-01
1.452336274066225175e-01
8.507910271285919201e-02
5.586444083456161558e-02
4.681520998617748341e-02
6.714945504686496702e-02
8.235142933233624563e-02
1.337236151524172634e-01
5.448353084615756292e-02
-4.856288068494821197e-03
5.080085928552398322e-02
1.553853099206197602e-02
9.604296535810151469e-02
7.701574726513757407e-02
4.010394982847106243e-02
2.257867050015766042e-03
9.419382567801598549e-02
5.533015302267978858e-02
4.925593166574109699e-02
8.445826066037723234e-02
4.148477988936097316e-02
6.210192300899172735e-02
7.108572454167039201e-02
4.729761041537491884e-02
1.078263048312758099e-01
7.675831139518080048e-02
4.004995394915691204e-02
7.090626672963568078e-02
1.084183500626800661e-01
4.257246557099316625e-02
9.732383741163533331e-02
1.055884933942919934e-01
5.419481462756327306e-02
1.053551435381360618e-01
7.726008417495458525e-02
9.633248820004866597e-02
1.252278301931666893e-01
2.556117051485835845e-02
5.537482880923082218e-02
5.180928568402128759e-02
7.693019382249703664e-02
9.740593166935225533e-02
1.069402153744198475e-01
1.251770100825155274e-01
1.163255988630674531e-01
1.236218136669357953e-01
8.755289823803069638e-02
9.350827183351995142e-02
1.420891667252045520e-01
1.890894078418025037e-01
1.581085119045081977e-01
1.864517524123515402e-01
1.569149135295839770e-01
1.674101496279115087e-01
1.864298343792953894e-01
1.335246983717788272e-01
2.007283337756321506e-01
1.542132995096430204e-01
1.363786210536516164e-01
1.756376522864424305e-01
1.842617161268250148e-01
1.684932330810868240e-01
1.999825278253484773e-01
1.277706098267918089e-01
2.190709620072762986e-01
1.931554739357193573e-01
1.477614570815607986e-01
1.903537278452924475e-01
2.406944924800480112e-01
1.902476724508332107e-01
1.975431955092014635e-01
1.446328663981616414e-01
2.158094088238998176e-01
1.816882812924406065e-01
1.365652004691855770e-01
1.724086904140953724e-01
1.895864522247465156e-01
2.146497311310198164e-01
1.683794562970503672e-01
1.877255417749251754e-01
1.769028393133549037e-01
2.092366701397585793e-01
1.821483370447602446e-01
2.112328108299199592e-01
2.512839454904549075e-01
2.457643390950617346e-01
2.526958927655759135e-01
2.959991872121977563e-01
3.596098638000562175e-01
4.631136231055329455e-01
4.935625093365941796e-01
5.829340851211298746e-01
5.914278678465427763e-01
6.741825144251381019e-01
7.313977183450202091e-01
7.706831987318458754e-01
8.665148059880395381e-01
9.101571398981388450e-01
9.606776463006215794e-01
9.521666822725501911e-01
9.933688711723056564e-01
1.058312488841129939e+00
1.051044385370239365e+00
1.097751127514274172e+00
1.046214127421922102e+00
9.987795983601365224e-01
1.062664991739481701e+00
9.603242218278811304e-01
8.665823637427324533e-01
8.596402128719407010e-01
7.756967062372291943e-01
7.117235478480837818e-01
6.209220845827112534e-01
6.564267183038940967e-01
4.951696886552279797e-01
5.008622156897315492e-01
3.655266784251471890e-01
3.610017121611241442e-01
3.193606681379537737e-01
2.423803099273054706e-01
2.458624253805480886e-01
1.983425944731264379e-01
2.228741822494060831e-01
1.772860860319629417e-01
1.989942915142021984e-01
1.705509611077170862e-01
1.764338286610498407e-01
1.491556762896351640e-01
1.664208540269558334e-01
1.153952051347834906e-01
1.192280152764256251e-01
1.675118364366918189e-01
1.361253311386459441e-01
2.132437697976346525e-01
1.595175254947527876e-01
1.480260547636519652e-01
1.808801678143180935e-01
2.159148470369011141e-01
2.031788666895727458e-01
1.636116095511223612e-01
1.498954412688731086e-01
1.783321363586708175e-01
2.038139036158342909e-01
2.113245423307263671e-01
2.151580876369346973e-01
2.233658402132275844e-01
2.478361272508241842e-01
2.385848682309936186e-01
1.665100413503616816e-01
2.732708066428505833e-01
2.647071995940458722e-01
2.173593603257473750e-01
2.390933707935616881e-01
2.765295280575992831e-01
2.128016270847862268e-01
2.655874847426998864e-01
2.887603349501818850e-01
2.964445471364904883e-01
3.023646974926416098e-01
3.462209650215537504e-01
2.595142582253988639e-01
2.458567277003079476e-01
2.853070225798401416e-01
2.980133569563251372e-01
2.113025116357719058e-01
2.741272878896218179e-01
2.689209745337960422e-01
2.562401249646146795e-01
2.567011836386939860e-01
2.557243819173130595e-01
2.563194454672816924e-01
2.433934533570528691e-01
2.507594832877365620e-01
2.178322991946521625e-01
2.847671981836641386e-01
2.993520910739704277e-01
2.686380423292197284e-01
2.316779157562554869e-01
2.820558375254293426e-01
2.565900424181714046e-01
2.422748207392709519e-01
2.617202298665793903e-01
1.804754245329221740e-01
2.508925304394081235e-01
2.311175248268259041e-01
1.766987230577706791e-01
2.631108882744535027e-01
2.075189847960196843e-01
2.026545432457659834e-01
1.653052417553386999e-01
2.019817482589268964e-01
2.232809240023707620e-01
1.805202916916907596e-01
1.703031106635027325e-01
1.875290957247235379e-01
1.782200709059913180e-01
1.527562758624815553e-01
1.247442888713657244e-01
1.433334867197040563e-01
1.257453191282179861e-01
1.486801810916794642e-01
1.239469902212988472e-01
1.711014245714538307e-01
1.134700714405563471e-01
1.420898198563071424e-01
1.153248896168257709e-01
8.283247469412596820e-02
1.134919177160907677e-01
1.014615680856938984e-01
1.561325285003963004e-01
8.993405735366476195e-02
5.032478056522694809e-02
8.583798778750108271e-02
6.124916366257748129e-02
6.881461815517150860e-02
7.819900729308243426e-02
8.231117366815145220e-02
6.845222788605236086e-02
5.718072121728463159e-02
3.326269122626251962e-02
6.199751298373994135e-02
3.408245578969532064e-02
6.580333660674603236e-02
4.862225344790986614e-02
6.324688453906769647e-02
-1.759962150996045860e-02
6.591571701822611373e-02
7.680981729792046853e-02
2.668552796734400059e-02
3.561442878392941797e-02
3.727129623885026832e-02
2.332208307352750393e-02
3.781751257861715870e-02
2.359097991844048836e-03
3.374541610823639237e-02
-2.479650620137078751e-02
-5.382829610790389185e-03
4.219020746039808811e-02
8.428458336684160890e-02
-7.897461209052963893e-03
-2.723099039273445265e-02
4.259416997964558804e-02
2.196396831095489069e-02
7.214756856660460571e-03
3.147222643277872156e-02
7.902379568162515300e-02
5.228798872810561105e-02
5.608209159016901146e-02
6.678507903868685647e-02
4.726885582483513620e-02
1.169496628487888962e-01
7.476727818318534835e-02
5.058888667370613212e-02
6.440705922315863308e-02
1.964148891982769179e-02
9.152726498493977958e-02
1.239897328316772462e-01
1.102596256849188439e-01
1.056172123477401997e-01
8.330936194039023635e-02
6.728393043664419870e-02
7.950116716794099203e-02
6.614812712699770503e-02
1.466021330304740355e-01
4.018866891827148347e-02
8.130374193408740346e-02
1.223125542450215764e-01
1.529404834910534638e-01
1.148447052880995356e-01
1.080843811389910480e-01
1.516173284307325841e-01
1.729946587240151490e-01
1.397494918521886564e-01
1.036110442192710590e-01
1.622177869185379984e-01
1.348660465458350333e-01
1.827654253547033314e-01
1.320182717829429808e-01
1.581905577643439864e-01
1.920137837313147244e-01
2.245601028409367761e-01
1.631720180230983308e-01
1.652538709117333526e-01
1.608064831519724625e-01
1.484845653249159958e-01
1.556741093355951955e-01
2.089480567561688429e-01
1.550221020008527018e-01
1.892217901094344346e-01
7.463011226413114596e-02
1.268013065671270145e-01
9.591484442515042785e-02
1.117429522283732019e-01
1.017678976195230817e-01
1.345855954461004922e-01
1.318176121797905997e-01
2.071473953733090623e-01
1.574632352023258852e-01
2.050084957897345961e-01
2.359707422906247576e-01
2.178916834967091209e-01
2.792814358967267707e-01
3.306373054601485784e-01
3.525581452601770915e-01
3.163328559590786737e-01
4.719818989951271027e-01
4.482331575779730515e-01
5.456749130287762428e-01
6.198751330802924064e-01
7.099011725127465366e-01
7.514098073678744383e-01
7.787382006543502877e-01
8.630675790415869297e-01
9.183285484935681531e-01
9.944066991769386910e-01
1.008516298687762713e+00
9.814631448771508060e-01
1.006378277301816393e+00
1.053784682566155206e+00
1.057389253871432011e+00
9.710011860756051494e-01
9.494808455304257766e-01
8.971915508243821780e-01
8.252581696078444828e-01
8.217354106718522955e-01
7.299528162202855164e-01
6.354935431967418946e-01
5.917627958248207198e-01
5.662088647042400336e-01
4.577235851617408313e-01
3.897821293206420457e-01
3.276495512690826284e-01
2.628417398610718436e-01
2.635306815409963477e-01
1.651019579701433204e-01
1.799701277943686617e-01
1.073188625364258075e-01
1.393813609791467178e-01
1.152501752709170768e-01
1.211066997821562546e-01
6.305424577881311998e-02
1.245154190382943282e-01
1.410624657818136674e-01
7.996195678087178460e-02
1.490526551063218741e-01
8.939429191296462129e-02
1.046835249904680687e-01
1.589334084642020917e-01
1.172824041721330923e-01
1.124821545161545089e-01
1.268745304507379323e-01
1.751716846491829516e-01
1.567131763441387549e-01
1.469955422587299054e-01
1.527203633157921403e-01
1.744462427504848701e-01
1.983544622228066434e-01
1.310701269543546876e-01
1.612422948317011606e-01
1.763751499008522905e-01
1.343006907250943183e-01
1.940332611193621992e-01
1.358138363759134881e-01
2.574422083106152059e-01
1.905722086904433066e-01
2.114877433619429259e-01
2.039615931415601491e-01
2.163092106903418410e-01
2.368573717906420628e-01
2.368535941947449153e-01
2.359126345809474945e-01
1.991016551039402060e-01
2.548746853180397509e-01
2.606655148087517193e-01
2.092873222334525884e-01
1.852246953000972751e-01
2.284315359029189529e-01
2.465794490238206182e-01
2.965500292927927273e-01
2.379845141747362891e-01
2.631703236232904031e-01
1.936381632759174853e-01
2.395235687404825009e-01
2.333088070543780368e-01
2.415861727639344592e-01
2.447561044166771393e-01
1.981694418586051609e-01
2.161792949698928268e-01
1.989554728252697635e-01
2.138524403038264965e-01
2.177457379746488564e-01
2.195544556368382583e-01
2.552543277061398164e-01
1.862029854357929171e-01
2.001884940644142463e-01
1.690635647089250015e-01
1.927753420172871324e-01
2.062681301631814346e-01
1.686086598604850662e-01
1.580467096961347684e-01
1.965073172945650259e-01
1.565749360660655121e-01
1.808557074000407827e-01
1.976155319962274448e-01
1.237896545306189922e-01
1.414803464192583293e-01
1.624748106970193839e-01
1.184412629492520852e-01
1.577759775726134683e-01
1.483304031156039704e-01
1.139727953323474985e-01
9.369849054462198179e-02
8.241867003014874404e-02
8.001657757232145951e-02
6.167352900947455085e-02
3.758881048748342196e-02
8.653068505410860256e-02
8.633988401083625419e-02
6.436058984188584853e-02
1.076103601667806192e-01
5.403472761846606076e-02
4.879503469774611191e-02
4.615606648193357198e-02
5.511388676448032015e-02
4.652432317342708457e-02
2.720896722999944367e-02
5.657134401065950363e-02
3.523218600955872748e-02
7.145735103390726817e-02
6.067533951145930027e-02
1.215663232663521595e-02
-3.855547263858487977e-03
5.520199869970710688e-02
5.564176136125179029e-02
5.866217428171811854e-02
-1.967185376476644765e-03
-3.434843078850760567e-02
3.372400169076469195e-03
4.366480173165879913e-03
1.533936680369178338e-02
-1.667059047950448375e-02
1.839087620006964879e-02
2.628118068436085045e-02
1.708104602976314931e-02
-5.658902130561554999e-03
-3.674048622574649370e-02
-5.250994940004884148e-02
-1.449795051126944248e-02
-2.091709264965803394e-03
-3.596804692723235691e-02
-6.970801947978833013e-03
-2.016163111006599035e-02
3.773921682628179203e-03
-1.167014287993065058e-02
-1.698907399710666843e-03
-5.192101772696425255e-04
