1.027848926657475070e+00
9.676612452336053050e-01
9.208437576790429180e-01
9.648852526369104954e-01
8.882377287412751565e-01
8.630654972157627558e-01
7.699915857222620064e-01
7.016594259822745983e-01
6.797230476595170767e-01
6.154822761611741244e-01
5.387638058448320777e-01
4.878295000984126384e-01
4.315818378364815189e-01
3.614271427964628192e-01
3.227340340215573145e-01
2.460160393966260850e-01
2.165256252945765569e-01
1.614641278290243065e-01
1.966696740411622846e-01
1.231253449441061937e-01
1.003761949193029412e-01
8.517975830683549576e-02
9.873655520686611120e-02
1.122898883759012589e-01
1.004347204106978975e-01
2.688739039544731785e-02
1.039096659156950875e-01
6.339119595032062515e-03
7.778897985980710861e-02
7.225449140222189870e-02
6.828845522152318659e-02
1.514426702586839368e-01
1.215241738058007864e-01
5.489722669581556524e-02
1.309816750148132813e-01
1.357271486141268246e-01
1.665270909263532884e-01
1.039964635816904848e-01
1.293254141828145687e-01
1.334261410432279193e-01
1.885523064619964162e-01
1.547844834314008877e-01
2.082695703191333458e-01
1.578838122106013264e-01
1.968084345364137233e-01
1.961531420702907480e-01
1.491518758309052783e-01
2.169862729630817610e-01
1.475467125050715089e-01
1.335460299896266689e-01
1.969651226898580243e-01
2.227930988228640774e-01
1.374272953038698508e-01
1.939718235129919699e-01
2.290831071316156708e-01
2.303921782640008242e-01
2.742279608201540486e-01
2.147904239595500031e-01
2.224827819749284064e-01
1.588780285227820721e-01
2.176404057942887549e-01
2.196605024406824702e-01
2.310134048872110601e-01
1.579626874411791670e-01
2.407102468522209215e-01
2.601207801526975172e-01
1.797155796277899731e-01
1.650015850631313397e-01
2.119494227281952803e-01
1.839261361529609951e-01
2.543571803211674420e-01
2.742782389634204065e-01
2.126886067376220213e-01
1.839575098318827484e-01
1.320414348556624984e-01
2.068431390034452255e-01
1.950006834306063919e-01
2.191740886539483846e-01
1.804269045597462484e-01
1.869335811099214484e-01
1.618092399408419813e-01
1.953701380332311111e-01
1.672382853601847019e-01
1.266832261362887957e-01
1.331157185083719774e-01
8.859376987556404071e-02
1.104266722345334240e-01
1.014045029457096847e-01
1.219077684555458785e-01
9.230864309025504921e-02
8.483130762420486304e-02
6.755305900795366414e-02
4.509437607590848635e-02
1.008262504709435958e-01
6.461180318281321833e-02
7.455374552759522211e-02
5.491130269796447305e-02
7.816664889408089789e-02
9.192491666000904282e-02
6.846179716039399454e-02
2.174229257592628223e-02
1.863204278635726546e-02
4.594489227582346236e-02
7.255037074893386229e-02
3.695203184039803218e-02
-3.706147801887393206e-02
-1.098146431038606041e-02
4.280156356382623650e-02
1.815791949238532849e-02
3.928149784595287575e-02
-2.466309284203377014e-02
-1.963460953393100783e-02
-7.092854986552293850e-03
6.464038961915698212e-03
4.262762567438009575e-03
-1.043214475543968039e-02
1.061854856218097387e-02
7.727055120603419647e-03
-1.890805095973954394e-02
-5.859924549618431011e-02
5.434400400746379478e-03
7.068198458300319065e-03
-2.974868959155257259e-02
-4.978069627982630030e-02
-3.487786281130444976e-03
-8.669657519798298906e-02
-4.494557237567060881e-02
-4.131676619496935793e-02
-3.634942279067415738e-02
-3.319622183043334507e-02
-9.297130009752141433e-02
-5.058325000251931436e-02
-6.158740511055700584e-02
-3.853493630811582332e-02
-3.894907888147804143e-02
-2.372126973283759238e-02
-3.403530924315704281e-02
-3.663927853341644725e-03
1.420004496411428341e-03
-1.458690730394634344e-02
-8.549612905058831536e-03
2.044815595940651515e-02
2.740045575863443023e-02
-1.541084205305159882e-03
1.827154294152862068e-02
-1.865413987236708149e-02
-2.418696593534650288e-02
-3.779934234987061131e-02
5.816172806941971585e-02
-3.310016443336510211e-02
2.361094084276920552e-02
1.251366643084593500e-02
3.662386074633545291e-02
8.438357374242727582e-02
8.150969921287291864e-02
1.049320353731860167e-01
4.542441158189639699e-02
4.379249111585062360e-02
1.099776460454534588e-01
9.439251427684780538e-02
7.715409045870416649e-02
6.776529156281149713e-02
1.052452441254228266e-01
1.220040961134234714e-01
1.078650848054247963e-01
7.377800551969118659e-02
3.366502340207600669e-02
1.245771692559139721e-01
1.043481981454239954e-01
5.514137848166944522e-02
1.304105172921292688e-01
1.053857209618193069e-01
9.113325548649600649e-02
8.029837978998727310e-02
9.857502929881839515e-02
1.050492774808592100e-01
1.153286959810807255e-01
7.571622670228106422e-02
7.787480083761116889e-02
9.457779398248866709e-02
1.528373382517007328e-01
3.399985067246286130e-02
8.408248127221390478e-02
6.324858860874603417e-02
1.055101498607838584e-01
8.873985588521754453e-02
7.227968243864631159e-02
3.476680065123508717e-02
1.066952117251044607e-01
1.191845046963148358e-01
1.338251053165033788e-01
1.651610508924972742e-01
1.878866526070803455e-01
2.128798622774544791e-01
3.136942989721386854e-01
3.010153206441602003e-01
3.137350685958670282e-01
3.873288807381225496e-01
4.526521321193965885e-01
5.259802532032993305e-01
6.045030276908390787e-01
6.714816383631644348e-01
7.611414819921006325e-01
7.620483640482363930e-01
8.736058037781082586e-01
9.081164208399340465e-01
9.558997909816919769e-01
9.509055170889872954e-01
9.751085920018258690e-01
9.571145619896282986e-01
1.002523045072338359e+00
9.329994737651405856e-01
9.468145551378800429e-01
8.603466232875370823e-01
7.939620641893111452e-01
8.089689583718329136e-01
7.286504367593483744e-01
6.726990073366861944e-01
5.205539069068517710e-01
5.200733016956990973e-01
4.481665886314564751e-01
3.590391454076415356e-01
3.697696042910335601e-01
2.851680071676778172e-01
2.356103695093601513e-01
1.854316430556349760e-01
1.637690973786756210e-01
1.667107373413372340e-01
1.569005209467754791e-01
1.345478077589241928e-01
1.133157180939894093e-01
8.340132258793214737e-02
8.802516949747529740e-02
4.545392215319642853e-02
3.934807215983826545e-03
6.402346745662423899e-03
2.302091795833515614e-02
7.065233112080800126e-02
4.989687996898403005e-02
5.471273996943206569e-02
9.340448546944704611e-02
9.438409594756401455e-02
7.661468353269798581e-02
8.991452696601513750e-02
7.696881889388743070e-02
1.288265614578820439e-01
1.191116213533619794e-01
7.000644685320128735e-02
1.168204398974166669e-01
1.648435703335716651e-01
1.520020508980157725e-01
1.568005051005697537e-01
1.047194398163884821e-01
1.648722593170680040e-01
1.744937701602001789e-01
1.877170184346143023e-01
1.144836205406802726e-01
1.698287478451645516e-01
1.937400293362999959e-01
1.893089970462545901e-01
1.836739091059628459e-01
1.777507779239405061e-01
1.449858778061413334e-01
2.212110869669979829e-01
1.953485354503302074e-01
1.994833832913927019e-01
2.028816861407213845e-01
2.031539656620329759e-01
1.963394613976662539e-01
2.283133414087960000e-01
1.228218300702635102e-01
2.152682842782289718e-01
2.268651993924477583e-01
1.729569360580284765e-01
1.916666233298832123e-01
2.520694305259890133e-01
1.944882596440412337e-01
2.166154321034388930e-01
1.953666296342364550e-01
2.543587718774130146e-01
2.446893160562118308e-01
1.322213453978709485e-01
1.864250962369126130e-01
1.436752108650453386e-01
1.980350200323748033e-01
1.588150191496560670e-01
1.889771314688885318e-01
1.913434629427945011e-01
1.549558590645578604e-01
1.256941386870777388e-01
1.277645736961458833e-01
1.732835148014217619e-01
1.335061555879047956e-01
1.042992374308821246e-01
1.245764523923819922e-01
9.896148793547035472e-02
1.411953174422288793e-01
8.885730197378902129e-02
1.585666714543234601e-01
1.503077761937529344e-01
7.330885624763805453e-02
6.237138028096832210e-02
7.806159636842877059e-02
8.806271122439011945e-02
8.302811052936948100e-02
5.695308735509960196e-02
5.997597387789814494e-02
5.979060810733170112e-02
9.283524452676150673e-02
6.688617029375118483e-02
3.041687710055440697e-02
-1.626252389789395458e-02
-3.170933151804902761e-03
1.688274301453432380e-02
1.593063758344098052e-02
3.021189063896869559e-02
-8.698783916537777827e-03
-2.327006420740487802e-02
6.272590429389457434e-02
-1.221422950986316563e-02
1.254002648140190024e-02
1.026981992631272045e-02
-2.268966185232777419e-02
-3.654813169143754370e-03
-5.477053057100295802e-02
1.465553383545647320e-02
1.244855091919597201e-02
9.466352295423405283e-03
-2.872473283702561830e-03
-3.617762878968944218e-02
-3.016060870542610836e-02
2.519285622944237441e-02
-3.905213583537031630e-02
9.474863231411084774e-04
1.796387928469239670e-02
-3.286633738871310578e-02
-3.797380594613807003e-02
-1.281554823849104241e-03
6.798630992321585964e-03
-2.615254730241407810e-02
-2.294793040852673854e-02
-8.822181681080717985e-03
-4.078954903320305969e-02
-1.110733463699094259e-02
-1.193064553364065264e-02
-2.683919807998751128e-02
-1.799494036109034259e-02
-6.315495462219065936e-03
-1.903601500291401266e-02
-5.164932924203353981e-02
3.152296528449397700e-02
2.898516183577736632e-02
1.562284995168591872e-02
2.180345507220655954e-02
5.582240184775225100e-03
4.767550399915306686e-02
-1.890970233662427058e-02
4.095874773694123394e-02
-9.260961733969612364e-03
4.620851089151854774e-03
1.045090987933931098e-02
3.169348522390574158e-02
3.719070504183717013e-02
7.378948715200223107e-02
4.781012420050990280e-02
7.712795489601884102e-02
8.047691151932837017e-02
1.029456192636434009e-01
4.812846198216392396e-02
8.910309769220225995e-02
1.231331330375142197e-01
1.079953135266644437e-01
6.795304108760080730e-02
1.401893228008207481e-01
1.328238817296157614e-01
1.961054613740902119e-01
9.463944991476910817e-02
8.460384681662230788e-02
1.444771450044118333e-01
1.462855507614905237e-01
1.189726813267207028e-01
8.345083671579768547e-02
1.541745643583279646e-01
1.132949146332308671e-01
1.878247554417538656e-01
1.245308844375725976e-01
1.529980872800395519e-01
1.769594243935077305e-01
1.136269647057124021e-01
1.383625800928141303e-01
1.317045113720547445e-01
1.432252312544907979e-01
7.087870373838107974e-02
1.068278067638050444e-01
1.157144884658320438e-01
8.878322122760760882e-02
1.394910145164652282e-01
1.489487133217377024e-01
1.775460602121053666e-01
1.443023820777051824e-01
2.005398750488175119e-01
2.246956024832198473e-01
2.498837351072548119e-01
2.514568127403894460e-01
3.033805827995620930e-01
3.617772448325734524e-01
4.395110093213253633e-01
5.314921997505221984e-01
5.762063545651601171e-01
6.612745342204688903e-01
6.741979643162552271e-01
7.824356634865397009e-01
8.390548202181524751e-01
8.856256581484102108e-01
9.444352134129803122e-01
9.850899737520001365e-01
9.669320726789666365e-01
1.029395988544811846e+00
1.027809351324248777e+00
1.005614816032950998e+00
9.828254054881565560e-01
9.375857125661192226e-01
8.874586505215940058e-01
8.437913662552248839e-01
7.415065023460845062e-01
7.615429225358758547e-01
5.705302885575801453e-01
6.185213002454907905e-01
4.818578424680882155e-01
4.773276626202967443e-01
4.131092089519224353e-01
3.411030599715415557e-01
3.142638208977683867e-01
2.298898569553282090e-01
2.505664585478683537e-01
2.186772131778361716e-01
1.339859442032089454e-01
1.238837148923334630e-01
1.178483474919273244e-01
1.601772205369825786e-01
5.872326689135275168e-02
9.142192698837348086e-02
8.193983974447435759e-02
8.971837818476993687e-02
1.092321125574614027e-01
9.255851912213423904e-02
1.295030839414560431e-01
1.382708524770195901e-01
8.374593883651304527e-02
6.935394462918167968e-02
8.460531210257563051e-02
1.160728128573079165e-01
1.128587832919487610e-01
1.059840805150626397e-01
1.663434564260521942e-01
1.345036785149422154e-01
6.500497669404750600e-02
1.537877120454696211e-01
1.841223545061987099e-01
1.461194165388610133e-01
1.676983066523170807e-01
1.455930667680658819e-01
2.113519451979349872e-01
2.075982422394992977e-01
2.588615315881711010e-01
2.316585836193149894e-01
2.161959051010174382e-01
2.124101530512531866e-01
2.527340696265562570e-01
2.609000294710410173e-01
2.126448285757532586e-01
2.346875514741451341e-01
2.415004085122666733e-01
2.426297232949832239e-01
2.078117450310044689e-01
2.630130610737845820e-01
2.696949054586699202e-01
2.542210858010804375e-01
2.457438965177836943e-01
2.441734804892076172e-01
2.975943455323001863e-01
2.513998857460959524e-01
2.680080887545615020e-01
2.758129825284765801e-01
2.568223217465072095e-01
2.492424619254008100e-01
2.355814182971944504e-01
2.803214118583759462e-01
2.520656777901296719e-01
1.944942853557714291e-01
2.747256723554606372e-01
2.759519656363381701e-01
2.055122989978505899e-01
2.358114494396229277e-01
1.617947546283203253e-01
1.881271189520133114e-01
2.474256415958107913e-01
1.649621591474299542e-01
2.180576150019344073e-01
1.792298647659759936e-01
2.361650781677803179e-01
1.387051215402701210e-01
1.850168452345130887e-01
2.018391272656606117e-01
1.407801427493783064e-01
1.385951972413104194e-01
1.707125144965494501e-01
1.082634647627499364e-01
1.361144221651797714e-01
1.160193081419202271e-01
1.022822000557654654e-01
1.643031921426567898e-01
1.548840900491132988e-01
1.325679383309881776e-01
7.426590072850941526e-02
1.018294512686631764e-01
1.140097528671362576e-01
8.805928730404820326e-02
1.380007174035517148e-01
1.340265621409006680e-01
6.700789087826697354e-02
8.167373294435092967e-02
5.002997539950237993e-02
4.456223775344903687e-02
6.991250168745187510e-02
4.067919972647430354e-02
1.255272098561816679e-02
7.977542589527930605e-02
2.680648153807648273e-02
1.745421058516853988e-02
4.344675699841055172e-02
-1.794035593997511148e-03
7.343457579182412209e-02
1.390185684824241791e-02
4.079951072636363307e-02
-8.652873249712688189e-04
-7.353224827730845889e-03
2.828499340033176560e-02
-6.415050792374917682e-03
-9.465475986298970551e-03
2.120158807837874138e-02
2.180796968479095307e-02
5.909425281038786087e-02
7.324672809876486834e-02
3.515152623887678185e-02
3.484602167980999782e-02
2.333771552402599814e-02
1.848414790979927003e-02
4.475495307843360693e-02
2.761924213702872735e-02
6.445142292484661029e-02
-2.135197921763875434e-03
5.223887921583485194e-02
2.533713686982321661e-02
8.651763066983622630e-02
1.278361785489387156e-02
5.099506183242601826e-02
4.404210317923624302e-02
1.029818608039634320e-02
3.383408655264547038e-02
-2.759823437097533305e-03
9.763406022190417033e-02
1.176014873229322272e-01
5.478247520131781373e-02
6.951560284870661466e-02
4.163912608775512114e-02
1.342720083879558601e-01
2.657397705465269419e-02
7.701963323126312377e-02
1.103897979427868742e-01
6.211256372311768637e-02
8.583705155974796774e-02
1.110529198754482694e-01
6.853462525664048843e-02
1.184921457060800765e-01
1.220431682888499098e-01
1.446986619701727816e-01
1.405515612492957422e-01
1.132324229173068686e-01
1.526857943972660114e-01
1.395991274431368501e-01
1.065225457468018389e-01
1.425921371660070214e-01
1.073329062944491097e-01
2.045611951861968925e-01
1.933929556867454991e-01
2.172207207808314611e-01
1.843771601222011780e-01
1.545610839863598707e-01
1.783220465698387713e-01
1.676520681008139280e-01
1.480420098915062044e-01
1.704288434822273102e-01
2.160434233587339437e-01
1.311598566626413775e-01
1.417257643942687606e-01
1.719884339741130364e-01
1.476558250522002069e-01
1.174068517384897203e-01
1.916416710267558332e-01
1.409565145838657663e-01
1.209656159195977021e-01
2.155247483149869692e-01
1.653255923866657207e-01
1.394788252230582393e-01
1.568542117622869214e-01
1.426677125847004846e-01
2.485709890669399735e-01
1.032030131752423585e-01
2.146937330409983136e-01
2.570520561261376846e-01
3.446412010754267286e-01
3.038394895877764013e-01
4.166520320889105511e-01
4.270216526585570715e-01
4.864271128852890036e-01
5.149007489792520875e-01
6.161439855181820580e-01
6.866095185148928248e-01
7.536510457798086815e-01
8.266101245901276151e-01
8.541187296873636869e-01
9.324388696615230065e-01
9.831565774128724344e-01
1.007772099267850052e+00
1.073905109782720579e+00
1.106013997859083720e+00
1.068356589444465543e+00
1.043269368010430798e+00
1.011331714009052529e+00
9.375323200520438993e-01
9.452010371176060577e-01
9.332325345466475630e-01
7.559794408800800669e-01
8.452043418818933063e-01
7.346277295255121409e-01
6.574546332759846345e-01
5.594726393796728425e-01
5.074762243240167336e-01
4.463380366030206825e-01
3.922102766309759625e-01
2.908922601439362099e-01
3.425349155878240071e-01
2.875966617017273186e-01
2.401490187684102162e-01
2.370728065745369428e-01
1.988499651125477663e-01
2.189280110989451911e-01
1.607977939300907766e-01
1.461323339316352166e-01
1.731979116923980933e-01
1.648894875252490122e-01
1.461245787275959329e-01
1.177240917804361769e-01
1.316693879196024486e-01
1.680370982061508423e-01
1.776011385279391008e-01
2.131228563421246058e-01
1.407667455889311525e-01
1.728842271602243352e-01
1.505442988895873968e-01
1.843952737347396564e-01
1.222149951100963139e-01
2.007325735004381606e-01
2.234401618068651563e-01
2.100442781767170031e-01
2.135740618269963975e-01
1.903539941298090510e-01
2.397007335447431386e-01
2.351271275543708461e-01
2.205871816126767637e-01
2.601459939345949768e-01
2.579292592105681403e-01
2.356177879441363476e-01
2.775507856084867830e-01
2.743874257699443486e-01
1.927341701417000785e-01
2.199474600309354044e-01
2.148718929124496246e-01
2.747086827879993143e-01
3.038954675452906762e-01
2.360883812951499738e-01
2.129598312766482482e-01
2.849873130658692189e-01
3.223841210145515501e-01
3.035814026226992812e-01
2.765306032063420405e-01
2.955656861452173878e-01
3.197179554364635301e-01
3.081357696005609381e-01
3.311855794568941413e-01
2.550308848702760867e-01
3.538753393725712071e-01
2.793049037850497407e-01
2.618812201137452611e-01
2.532122925312163542e-01
2.790596523937540208e-01
2.905552868269484779e-01
2.797670429500404565e-01
2.329530316911403998e-01
2.867852311469205051e-01
2.750955161900137669e-01
2.496861539901212013e-01
2.729995721613409643e-01
1.963249083195317823e-01
2.436561302424817277e-01
2.678087715609517860e-01
2.078409861909293332e-01
2.141982310643117948e-01
2.308428569615592896e-01
2.549831800503781776e-01
1.854757948516341792e-01
2.147685931971689832e-01
2.459826488825036517e-01
2.704653169719565264e-01
2.507977398304789829e-01
2.432711408443292700e-01
2.196750444518775769e-01
1.872656705980115244e-01
2.042303488556849456e-01
2.126236223321348595e-01
1.437421470414420588e-01
1.336166210403548216e-01
1.306695640508913070e-01
1.487655793335221910e-01
1.280997510408143081e-01
1.210751280044911199e-01
1.348478336462295424e-01
9.030648410805289239e-02
1.183844066699403230e-01
9.622865074533756835e-02
1.487806964839478718e-01
1.344424544491858997e-01
1.573593491597987948e-01
1.396395245261665141e-01
1.088159591047280356e-01
8.533794599480939991e-02
7.607663076774710820e-02
1.143136171897963238e-01
6.394731285428884027e-02
7.062415436811447789e-02
9.272168150466342240e-02
7.652059868416878630e-02
8.663140291197030107e-02
6.005143500033878479e-02
2.791466686434138436e-02
6.360236679611445954e-02
7.788942226760686705e-02
3.246164747820981522e-02
6.768589714421389958e-02
7.051015603554770805e-02
9.657171794702007483e-02
5.548394371682364989e-02
7.742266144628767721e-02
3.329254034201981766e-02
6.647173210016323053e-02
6.495711239298290751e-02
9.744486019351536465e-02
2.951726465931832702e-02
2.433351862233921331e-02
8.149723975848927049e-02
8.934603887880168682e-02
4.034547185032349992e-02
7.513526314978781484e-02
1.069091852177635193e-01
1.086117917472682604e-01
1.065561885941134629e-01
7.030953342453941102e-02
8.995276694770321102e-02
1.189324348695375011e-01
5.319951443488436099e-02
9.450599197898933157e-02
8.961927084004353561e-02
8.238276023718675567e-02
9.779033814362965427e-02
1.763841747890442235e-01
1.201381417196290130e-01
8.288551631386867347e-02
6.484182056758105994e-02
1.611881043808686687e-01
1.257749738843860765e-01
1.400888060194959706e-01
1.307894950174341708e-01
1.894062941526845623e-01
1.579923166435079629e-01
2.017306994840788736e-01
1.212715267573037242e-01
1.262837324875730749e-01
1.992307572595539422e-01
1.890470358628444369e-01
1.906471520044921153e-01
2.032996952171213512e-01
1.781677529738419363e-01
1.928930672029197102e-01
2.387386052770825162e-01
2.196602577088924979e-01
1.858341883474786682e-01
1.883512961745137382e-01
1.907123097641146847e-01
1.994326923880859470e-01
1.774635617009218680e-01
2.142704503698403817e-01
2.306873252836061650e-01
2.018287019867587850e-01
1.562499544273623642e-01
1.678045183923494998e-01
2.034254270337798598e-01
1.946064606480400472e-01
1.589498360518001863e-01
1.303923905390460269e-01
1.692692183980487319e-01
1.776292435676885273e-01
1.971516367783791579e-01
1.741313787573312843e-01
1.882258962033370175e-01
2.522725790463775097e-01
1.950785963290073144e-01
2.424815655333622810e-01
3.038258193095724757e-01
3.157208784476617236e-01
3.335394807493631264e-01
3.053276032470387258e-01
4.444187406587157829e-01
4.427895596009537860e-01
5.393815396784592542e-01
6.035030923160673577e-01
7.065697351544992788e-01
6.749258800628246124e-01
8.290270268258294051e-01
8.698513550843358644e-01
9.338292625728488172e-01
9.114512894732237358e-01
1.069717569011438885e+00
1.058098182390204922e+00
1.115987214059074528e+00
1.034207621881208183e+00
1.066242814114934045e+00
1.079867423851673891e+00
1.047790368968836150e+00
9.782286425067222568e-01
9.811654321765898024e-01
8.510108179310448273e-01
8.375082991832989432e-01
7.496793222244948485e-01
7.082657085153002408e-01
6.338428971602351192e-01
6.200104810944877531e-01
4.832011827221656119e-01
4.451827030477069624e-01
3.729032801606985137e-01
3.425427140649851543e-01
2.652350273640620704e-01
2.499814089348798840e-01
2.104405535912775016e-01
2.138049206748513231e-01
1.914310334196941410e-01
1.857977410071268431e-01
1.718849087970065193e-01
1.522200664656652158e-01
1.662922807500326061e-01
2.075605281190755769e-01
1.402499684954001125e-01
1.510916352541871177e-01
1.206108821584473967e-01
1.629780188238879879e-01
1.709306783571553634e-01
1.458218538919964502e-01
1.109427718052103384e-01
1.771058970774379571e-01
1.716877821254112202e-01
1.651691573577165895e-01
1.823161075225075423e-01
2.460494282729593918e-01
2.142561928123530579e-01
2.013396473201205794e-01
2.314509980597471428e-01
1.971366793062895584e-01
1.998048313656012043e-01
2.709169619970529519e-01
2.134670887944803142e-01
2.477908827675830428e-01
2.822403015694178174e-01
2.564401419412548067e-01
2.633213636585189921e-01
2.654467108049072266e-01
2.912566345284921532e-01
2.409451052463617571e-01
2.694601918857495448e-01
2.660434511190241658e-01
2.397607595676122527e-01
3.185787487314025168e-01
2.672699239082454437e-01
2.633118411906654743e-01
3.449259908424445742e-01
3.049777066227403188e-01
2.847057311292531812e-01
3.159752872459551942e-01
2.716143294034060740e-01
2.565479553983120997e-01
2.599742298344276392e-01
3.571727303128315323e-01
2.963449663396666711e-01
3.739249701282349458e-01
3.310912376160192738e-01
3.344081956359922780e-01
2.587069697661216194e-01
2.538364123428816232e-01
3.168064675118732465e-01
2.031275879106327897e-01
2.587885822846219819e-01
2.876879051057603665e-01
2.680173932925183911e-01
2.421149568879202296e-01
2.846891299974416700e-01
2.478469351912169771e-01
2.509037688107422781e-01
1.801928496088605058e-01
2.543894130667661568e-01
2.283978014674669099e-01
2.017282756783064790e-01
2.484698679038431501e-01
2.507688041076218122e-01
2.327244936892222671e-01
1.597640449018392361e-01
2.094935434767842830e-01
1.859735271212821506e-01
1.880696538739581869e-01
1.549240991234465681e-01
1.494023058981988339e-01
1.092976220642895291e-01
1.717167548816750655e-01
1.461163067661619686e-01
1.436035187173443639e-01
1.661865103815471645e-01
1.415575571123231791e-01
7.565157407209788243e-02
1.320421647570113599e-01
1.808170527897468571e-01
1.573282351691325798e-01
1.170698452640708265e-01
5.964682814417619078e-02
1.209076627515102698e-01
8.950973135518730528e-02
1.007612565867728321e-01
7.830302651602033537e-02
2.598506353342729808e-02
9.108373992130436303e-02
7.379077342191911471e-02
7.278083152829011027e-03
8.845124197515577547e-02
3.159473315581468045e-02
9.869470601147745104e-02
1.781791201193377860e-02
1.201524637615941915e-01
4.775699114011974084e-02
1.413528711688423478e-02
5.260529953423334626e-02
4.874869834110390210e-02
6.317618115023351799e-02
7.615578845032536237e-02
7.721423878964621401e-02
9.277231960248648324e-02
3.752921993298591330e-02
1.158229005609570650e-02
5.104790476632968532e-02
4.900069780577891165e-02
7.393056128590608234e-02
2.526670278134743666e-02
8.414672936828047900e-02
4.832503739549499910e-02
7.585264665711985432e-02
7.057451229919797786e-02
9.727462011822246568e-02
7.804072921594742973e-02
1.708458458606227082e-01
9.664941585136482827e-02
8.857153795122110762e-02
7.323572535368044756e-02
4.864463755651440846e-02
7.959423728639875018e-02
-2.912932553130964664e-03
6.878321156928579594e-02
8.394786257641348448e-02
1.038202836263154155e-01
1.309944210082220617e-01
7.868711710960377137e-02
9.987687361972710787e-02
9.273602280972012557e-02
1.291401623568964041e-01
9.735225824964367780e-02
1.313915600609269763e-01
1.190682736121467244e-01
1.746788428298590712e-01
1.684661912667413386e-01
1.823019765633605849e-01
1.792849897168897200e-01
1.167028860349763053e-01
1.354323149904477774e-01
2.106456104212512115e-01
1.761097630221281352e-01
1.647890537335003069e-01
1.608635668720897471e-01
1.895208062888203426e-01
1.743815451933677652e-01
2.113857770333162911e-01
1.770793127651181242e-01
2.552729165995479832e-01
1.564126850130893587e-01
1.881538189219613411e-01
1.430475534164773466e-01
1.597692885773847049e-01
1.583191046062647489e-01
1.622072244987415313e-01
1.424316851547624552e-01
1.123491502041481099e-01
1.043875259891368923e-01
1.445249023930609000e-01
1.646343306194977540e-01
2.100813362014123387e-01
1.623992058704104569e-01
1.300566880515155732e-01
1.392608999429317262e-01
2.151011866043556764e-01
1.979771776930515093e-01
1.384479512968583292e-01
1.959034524007368383e-01
2.143295834147811441e-01
2.547344734725521809e-01
2.636769688459828509e-01
2.674619765862938925e-01
3.927529906191294939e-01
3.141177487740824392e-01
4.481563102356241890e-01
5.062894317617990803e-01
5.601006496030249693e-01
6.718923172569251090e-01
6.970735582798833763e-01
7.459324287499858874e-01
8.461836067558942132e-01
8.741978297374101148e-01
9.146115281492099847e-01
9.989810267327324800e-01
1.063426106436811125e+00
1.032105565649945378e+00
1.057083312005146380e+00
9.950044238945467967e-01
1.058248048915634953e+00
1.008773261708582281e+00
1.002127351373837794e+00
9.351583449169267315e-01
8.628916001377444633e-01
7.932580598291643081e-01
7.319268785733765714e-01
6.844559223598393194e-01
5.836812445957143547e-01
5.139978547591954605e-01
4.459306908952724857e-01
4.136888656020705768e-01
3.168108814244696703e-01
3.451185634429974058e-01
2.869363060405581978e-01
2.072210843880813447e-01
2.007836289244778749e-01
1.839501153086403606e-01
1.767486532831872847e-01
8.922013537244040393e-02
1.062478631366359505e-01
1.519016231128564043e-01
1.061651945786194068e-01
1.552005926858202600e-01
1.435719236605863258e-01
1.601349736843162563e-01
1.533010504042794930e-01
9.111382465571617184e-02
1.533146133344956419e-01
1.320625781879402327e-01
1.017841485386546396e-01
9.917229979559596953e-02
1.533659917988729471e-01
1.458479310925195616e-01
1.245596255581951362e-01
2.407468494512692847e-01
1.714103066387769325e-01
1.925520330612928155e-01
1.597605468231594883e-01
2.097307074513577174e-01
2.147991914288424342e-01
1.783356901326658417e-01
1.850537314015116841e-01
2.200172366300813254e-01
2.158363007729101890e-01
1.848736760275943858e-01
1.898523737693279256e-01
2.364112548796376834e-01
2.153737646899023805e-01
2.858738248759125078e-01
2.674097726481463599e-01
2.204412566696440645e-01
2.472423337069626637e-01
2.623640496664391697e-01
2.184958059007865716e-01
2.405746314866295255e-01
2.468417315623539776e-01
2.407479379305962897e-01
2.846804438784322211e-01
2.587413012510575427e-01
2.729038114007724114e-01
2.284366536593304409e-01
2.937370439091135932e-01
2.555671022082315891e-01
2.610064582418925583e-01
2.072553723171095819e-01
2.912749891682304137e-01
2.487141624974200937e-01
1.994800602105335219e-01
2.462023004549167282e-01
2.180548520161670334e-01
2.671425069553148846e-01
2.220202660912178605e-01
2.389679839888046997e-01
2.017960220284513440e-01
1.804387516957389193e-01
1.815176697925035554e-01
2.168647097974562288e-01
1.590014151087259520e-01
1.960115009088530813e-01
1.733873852603687593e-01
1.912083041140304751e-01
1.626140561861283973e-01
2.083686823875960659e-01
1.420268873186214253e-01
8.202847349738150162e-02
1.695921158894728442e-01
1.491596276888739470e-01
1.276192645393093572e-01
1.370733154991800040e-01
1.442921367160076851e-01
1.333950472256218156e-01
1.110047816608682597e-01
1.165380837283140347e-01
8.405318945251026574e-02
1.036475900432046598e-01
1.044669504064397736e-01
1.574568643447572525e-01
9.642003837459602045e-02
6.222429363369000321e-02
7.483199620880724712e-02
1.153866959606333203e-01
5.051103939661513720e-02
5.390859559737579132e-02
2.747374449354280865e-02
4.512673586845426105e-02
-5.727763112481842715e-03
4.999267038434086763e-02
4.259283420168864798e-02
3.795361718380781124e-02
-6.607360152361825903e-03
4.687833611109198245e-02
3.566219292250753792e-02
9.398002075948895528e-03
9.319621916969386688e-02
2.935298966012970037e-02
3.813267792873982487e-02
5.705074146889373837e-02
7.177429590218986459e-03
5.101480261352318163e-02
4.621874172561653976e-02
-5.868232675250923888e-03
-4.825642746836174279e-03
1.614159608239597657e-02
-1.841431746455576834e-02
-3.803425370624725216e-02
1.681564492302175390e-02
6.939843725951704012e-02
3.551308368356035500e-02
2.508355117947275864e-02
-2.264462993100315250e-02
-1.391651723650971957e-02
2.267987676552616835e-03
1.745634376691259509e-02
-3.656111904764895032e-02
-3.481692629926006616e-02
1.970352618025887625e-02
2.144283997897244998e-02
1.311277785586598826e-02
1.182589842082590673e-03
6.317606384588027313e-02
-1.559923151106770191e-02
-2.754287231381982379e-03
-2.117111401470053028e-02
5.786018675485000984e-02
4.369365368756497614e-02
6.305042288450279919e-02
1.157816468812193633e-01
6.177739125342766174e-02
8.285844297292888072e-02
6.031257566294667694e-02
5.947953163124207465e-02
9.171067120064341216e-02
1.206944970110884197e-01
7.596128016791879600e-02
1.255679066085324813e-01
9.507546644467515518e-02
1.087337759021817785e-01
9.526873387738693522e-02
9.631179140450234211e-02
1.002390230535315507e-01
8.309651780180751790e-02
1.045324911410972640e-01
1.349902193367390479e-01
1.274558992805784052e-01
1.408530111105087412e-01
1.227051121989835847e-01
1.320654213473053673e-01
1.728332913013528316e-01
1.523798064384047912e-01
1.256921396310577421e-01
1.561345899724715380e-01
1.674779431738580571e-01
5.824270830975603053e-02
1.172494389794349195e-01
1.262133066995143049e-01
1.217850831730551975e-01
1.565522240909703044e-01
1.171632801721981254e-01
1.103548356541177305e-01
1.121864171020339473e-01
1.033522592925908840e-01
1.100021660460765577e-01
1.397097065878753208e-01
9.986081322592907372e-02
1.495261284233390664e-01
1.156379414797616828e-01
1.705135357281900577e-01
1.952268861440338843e-01
1.621374758618787104e-01
2.470571420806759178e-01
2.801710197838879202e-01
2.993950996089956851e-01
3.066075064093783942e-01
3.387852822786462936e-01
3.601198777214914548e-01
5.208395981978720668e-01
5.799025335462424380e-01
6.456450761066963029e-01
6.742120575273774508e-01
7.405793963695097570e-01
8.225684741077567974e-01
8.197207193514467471e-01
8.707624995448365324e-01
9.914691875798163911e-01
9.278998607753841110e-01
9.666715698860622874e-01
1.013927033902845443e+00
1.012555216686297888e+00
1.001517572701379866e+00
9.717748327053384871e-01
8.988932739501331870e-01
8.376222985169260449e-01
7.871826192050114246e-01
7.932508069245385318e-01
7.300040625000225880e-01
6.836316895628447021e-01
5.722510665154392218e-01
4.811571220029149387e-01
4.066025629896963811e-01
3.458308328418648880e-01
3.318143187345483636e-01
2.652563506815267536e-01
2.492646728870338002e-01
2.413470348023000478e-01
1.134313783326653946e-01
1.652497759836173141e-01
1.105055954667562568e-01
1.089184174615467210e-01
1.118927545056540296e-01
9.634528465606263803e-02
3.833868423472137216e-02
2.056763602932774881e-02
6.549471337396661763e-02
9.909479805423251908e-02
1.270399924802639857e-01
1.261587672524463744e-01
1.452216055339377032e-01
1.376548483806462886e-01
1.061061025882336917e-01
1.313700551840056296e-01
1.243156254183694354e-01
8.219432362254062985e-02
1.000622442040485505e-01
8.704217173227635218e-02
1.025041305752826259e-01
1.093420339007338260e-01
1.184529189112110276e-01
1.567527633969762191e-01
1.012531719895197191e-01
1.614682936837952554e-01
1.435226448651697184e-01
1.419450602725609023e-01
1.487450965401182212e-01
1.368678851322672752e-01
1.561058725926814383e-01
1.551956938315175172e-01
2.201445747176778156e-01
1.533273299811194756e-01
1.902220966117351697e-01
1.671439738730634839e-01
2.385211869409182839e-01
2.163278309848176983e-01
2.310430393489640299e-01
2.322627487922478695e-01
2.040955781800973257e-01
2.122404395275709899e-01
2.012238842770602554e-01
2.092499596387231708e-01
2.437258630953504368e-01
1.954175944864568748e-01
1.874996082478895543e-01
2.505922478288561961e-01
2.528962730705899276e-01
2.288811318969076747e-01
2.024011794531935804e-01
2.131512183183809361e-01
1.773017524844790749e-01
1.934126468740183236e-01
2.105525744928379295e-01
1.737526670311762833e-01
1.657860099390212338e-01
2.054744562615209158e-01
1.731588808519766431e-01
2.382507594471240109e-01
1.856881889523170903e-01
1.099378302704599464e-01
1.466700937982323982e-01
1.680546045342045380e-01
2.136425118686998692e-01
1.365364381904986546e-01
1.271737416823451872e-01
1.059811033367147604e-01
1.300528910379977199e-01
1.651811688647164267e-01
1.318682730645706902e-01
1.086854737965106399e-01
9.454157535654006406e-02
8.609687548980599070e-02
3.910486315760365594e-02
8.271195775048731380e-02
1.265891419181892075e-01
3.424965794211749792e-02
8.111130008274924919e-02
6.191166536626993566e-02
1.817694758536462368e-02
-3.811855560747201555e-04
5.063508085183836271e-02
3.748069243882995449e-02
1.688207079137643563e-02
9.363235713961609585e-02
4.097647979085210224e-02
-2.401618007836609642e-02
3.051356438460353648e-02
1.353790410313176346e-02
-1.912458812702348687e-02
-1.517812780857830113e-02
-1.532135430097003592e-03
-6.233092768031432696e-03
-4.436488394823611542e-02
-8.105750601653874399e-03
-5.471861972833542281e-02
6.867561369177418995e-03
6.328981963557081536e-02
-5.535581229151706473e-02
2.596095589122585090e-02
-6.297492180819860841e-03
-1.865871045435720313e-02
-5.239873037119355953e-02
-4.873726021077084969e-02
9.034593465097162657e-03
-4.605098665879148873e-02
-2.232441377789373682e-02
-6.982755878106151892e-02
-4.659670454868879846e-02
3.558983057509124137e-03
-1.544105136977616533e-02
-6.577738027639867813e-02
-4.716008934472527836e-02
-2.492429184535695577e-02
-2.502744308936775963e-02
-1.968188030746970130e-02
4.577527410813685832e-02
-5.326834115207762510e-03
-1.771636093836252701e-02
-2.197022632206201836e-02
4.428797626342471927e-02
-4.605646494887047360e-02
3.226489132804074428e-02
7.456928797529550901e-03
-1.291430918948063833e-02
-1.240132637256127768e-02
9.557071733973229732e-03
4.869056528792865129e-02
5.070680681319439387e-03
1.603345454663702985e-02
4.058898045722051512e-02
-1.038133939609577061e-02
1.381180904548213323e-02
6.281844222615662332e-02
3.578502134759745795e-02
-1.528152183454881130e-03
5.740785587870601836e-02
7.286790532680245680e-02
8.463705720402714405e-02
6.096869054970913138e-02
7.416347869243181123e-02
5.459386930061400911e-02
9.369234945323359764e-02
8.075818581882222846e-02
8.187821168883224754e-02
1.019694286159605057e-01
8.540705300877618478e-02
1.094699817117748414e-01
9.476808182722398777e-02
3.105456261222491743e-02
9.570294034836725194e-02
7.170880661360139186e-02
7.505546347257160966e-02
1.362326966504201764e-01
1.129639659131614626e-01
6.217325140274332362e-02
1.321339363553541424e-01
1.212564812312023621e-01
9.521887460775119161e-02
1.466848245358205460e-01
7.997386217708860046e-02
9.636426346773666052e-02
6.926788527011021324e-02
4.887367503521912460e-02
4.954001806733454583e-02
6.319657612812441816e-02
8.412955300979915729e-02
8.478330100240091816e-02
1.377354866715248538e-01
1.398594560467301406e-01
1.227068709597230745e-01
1.452900255508161043e-01
1.235741320640390550e-01
1.860793359375665923e-01
2.444006486177515147e-01
2.602698207021548749e-01
3.267180958381982192e-01
3.545565620057128386e-01
4.490106894846956354e-01
4.745408000771997870e-01
4.674405420728385274e-01
5.264512160139630526e-01
6.466001984352072185e-01
7.385542566374528883e-01
7.800772222746747975e-01
8.665736295797672462e-01
9.137807593161458852e-01
9.338303143935265949e-01
1.014835505320999864e+00
9.468812812885715191e-01
9.957191103185639713e-01
9.188921821350182206e-01
9.845564968042995746e-01
9.431900448480144972e-01
8.322122682105959068e-01
7.946399802108718990e-01
7.758678238667647831e-01
6.939536883655074151e-01
7.342968982713429238e-01
5.699382402753736532e-01
5.380970827972222370e-01
4.403495680293575965e-01
3.390811344701419316e-01
3.601669967915120396e-01
2.187141110617897843e-01
2.541700372175780820e-01
1.782799888680486611e-01
2.238763104524936209e-01
1.307177479525528929e-01
1.468985711543834560e-01
1.024745129226876522e-01
5.280425448413680889e-02
1.241687600283112591e-01
3.122217472020404061e-02
6.777748861698598692e-02
4.505030839227046335e-02
4.177956134134846317e-02
1.095711602411841568e-01
6.928079225754973924e-02
1.036572278713389916e-01
7.820425343517639627e-02
6.589883314254933733e-02
7.485098525590602736e-02
2.978097675396908228e-02
1.115173796038383680e-01
9.283199075553366653e-02
6.394348160526969194e-02
1.182466050971466009e-01
6.413739977375665369e-02
1.328314062668528028e-01
5.503302312591712431e-02
5.065567720468235058e-02
1.579945353782893636e-01
1.402010759066270040e-01
1.506252292814141414e-01
1.630912165511593792e-01
1.597997655604717626e-01
1.886742720942511942e-01
1.684122534901988932e-01
1.196642502578964956e-01
1.978662079326087009e-01
1.578744990440318630e-01
2.060970025919696968e-01
2.282188236377583057e-01
1.823979630174183408e-01
2.261082349828524574e-01
1.679181149330460920e-01
1.741336919615306122e-01
1.921470973921365066e-01
1.973317874167370145e-01
2.069187148151674371e-01
2.001690856594388612e-01
2.197366482364763174e-01
1.300434394556908013e-01
2.240140531439343830e-01
2.070688927874074214e-01
2.062430155547739785e-01
1.995834294366922723e-01
1.930375709681454166e-01
2.239974694426093149e-01
1.694072916259015404e-01
1.765125781864413379e-01
1.514611653057134910e-01
1.694698173231549976e-01
1.585392073593540618e-01
1.798304065456456657e-01
1.545524162319615313e-01
2.012844825999351439e-01
1.867219827315149683e-01
1.646145799723674752e-01
1.603223198042190711e-01
1.820876320192860998e-01
1.087642509059909279e-01
1.459558991650742876e-01
1.140901662669580041e-01
9.248936691007851596e-02
1.224625501752168444e-01
1.071240159336183384e-01
1.071421100114089420e-01
1.013909169458196979e-01
9.016024735786795641e-02
1.045030306443006929e-01
8.433911853929298985e-02
7.723544791900166517e-02
6.000970504745653522e-02
5.424631814419680897e-02
8.683658817927046580e-02
4.488293247425460819e-02
1.097523014151896847e-01
2.188801158139722092e-02
6.178296491774241256e-02
1.126865223403922950e-02
3.731912785827578433e-02
2.360261341688836556e-02
-3.418593730787414242e-03
3.650490182775958242e-02
2.626995507467710239e-02
5.063459517022443623e-02
2.451613415617388131e-02
2.088725731077745174e-02
1.368394002546002158e-02
-9.150083324381386163e-03
-4.146718291072488266e-02
-1.150247535326911347e-02
8.310440301335784985e-03
3.766785709363884571e-02
-3.054619266284802279e-02
-7.247606609603343686e-03
-3.297562475755200229e-02
-2.220766237440157179e-02
-4.131278560576745473e-02
-5.747246926382787446e-03
1.306207930005394424e-02
-5.743780745717658176e-02
-6.170299622024862096e-02
1.137438091113519845e-02
-1.894297592496770044e-03
4.019370946594191113e-02
2.500184055090193952e-02
-5.202553514895585929e-02
-2.633252310546949082e-02
4.161247611282439807e-02
-1.097667596124220560e-02
-2.079439412745635873e-02
4.594563049836283830e-03
-1.880732199765119961e-02
-2.971296981100614992e-02
3.886815418348871232e-03
2.145139248450936287e-02
3.520620338134635569e-02
-4.381676568238109665e-02
2.661766512306788096e-02
-4.625398365941441742e-02
-1.770140077564582096e-02
-1.895586176102806095e-02
7.192772943421447962e-02
2.595909165407771224e-03
-2.183529285291985200e-02
-1.115313830908126053e-02
5.209023926984341496e-02
-1.272495014615322023e-02
5.248245156303910780e-02
6.208922383841643244e-02
1.080205981053217190e-01
5.793668900525509452e-02
4.737055597156195758e-02
7.487205572750568749e-02
1.233050453800584589e-01
8.585115919474253787e-02
1.203078832566202711e-01
1.052914947654436939e-01
5.287620617091645658e-02
1.190734238545254897e-01
6.742184703743099583e-02
1.219536373265839857e-01
1.115193666792543142e-01
1.606930779325081715e-01
7.362650189278573121e-02
1.563674368104057411e-01
1.052374577050991244e-01
6.548231900663355198e-02
1.652694063857244600e-01
1.335643520491994751e-01
1.248305456091862303e-01
1.205883814145935762e-01
1.358573752811922664e-01
1.321475959961047886e-01
1.050551550641760368e-01
2.144968479117048132e-01
9.234633665427682825e-02
9.069185006618397937e-02
1.443385004221955370e-01
1.425996179054772328e-01
8.086081269043648989e-02
1.335321562225061376e-01
1.493606325394579715e-01
1.067240056680318072e-01
1.803703996875694326e-01
1.541432564044922238e-01
1.495787052202203482e-01
1.773285144791336143e-01
1.486381773348542656e-01
1.944768727005756759e-01
2.438677102590841583e-01
2.694198441544752298e-01
2.920330777864635907e-01
3.236589202868598858e-01
4.207538738446847670e-01
5.076063691374893549e-01
4.968185425914246056e-01
6.216544806189255867e-01
7.043119096986617533e-01
7.416040258235211402e-01
7.870189337434039256e-01
8.590200208799573245e-01
9.704959827346497647e-01
9.320727581531526029e-01
9.636196227104084633e-01
1.009539512860394561e+00
1.010562693405738566e+00
1.077583530659322664e+00
1.016813049430821847e+00
1.017432083920043917e+00
9.361894917724495890e-01
9.142254233851067058e-01
7.593653974494131154e-01
7.417974231704367316e-01
6.997024233111250879e-01
5.874691188627785277e-01
5.461884222519761689e-01
4.485716437791747446e-01
4.373478909460654651e-01
4.055642597847034514e-01
3.235672803333828895e-01
2.226350172711702990e-01
1.903359781947387419e-01
1.701205913360563926e-01
1.662147581095007876e-01
1.632655083120093387e-01
1.020996986061233486e-01
1.177088304052269496e-01
9.105583321742063974e-02
1.308756969329334385e-01
6.865825126405748768e-02
8.963601733079172573e-02
8.268409675586296803e-02
4.265677386032547258e-02
7.290862339461628983e-02
1.047073346232712393e-01
1.637832746066712752e-01
1.664869663290474422e-01
1.061359758956341437e-01
1.117066625971024491e-01
1.240308047471976871e-01
1.146908498406677968e-01
1.540191722111655670e-01
1.899993692809252288e-01
6.215392010460368127e-02
1.150923738639960808e-01
9.319971371065555177e-02
2.082269362968977300e-01
1.293507448801619886e-01
1.991255338019887744e-01
1.762243219519824544e-01
2.039074617026572778e-01
1.747727458587922666e-01
2.334074865744076299e-01
2.081648953648775058e-01
1.886024336928932010e-01
1.678446922889504644e-01
1.984197535466479534e-01
1.994371981048692344e-01
2.544088244770690288e-01
2.036778191569015295e-01
2.301983787620294486e-01
2.548075827782765868e-01
2.453584005682734048e-01
2.675203941624668125e-01
2.198668926022362968e-01
2.005489332010250980e-01
2.591588021031405176e-01
3.096588915343808646e-01
2.446052522988997335e-01
2.360971981593164015e-01
2.323556143683491448e-01
2.419573675534579249e-01
2.368311648771250777e-01
2.046367660491924256e-01
2.453009311071083776e-01
1.804202668700602141e-01
2.172135388232213082e-01
2.476282735856017714e-01
2.529082651797718295e-01
1.842751042130509609e-01
1.588778221517356259e-01
2.147440505495636920e-01
2.246249594274205563e-01
2.042124394574399704e-01
2.065099857827721597e-01
2.028049721486416546e-01
1.818086133807491345e-01
1.754870291874363608e-01
2.030492844254958296e-01
1.619842310966028709e-01
1.550064683948350341e-01
1.805987920228721566e-01
1.454265373384070192e-01
1.831312634970099495e-01
1.705062199451155558e-01
1.816667611454550746e-01
1.789853629922158462e-01
1.019149836203223913e-01
1.902011974034848174e-01
1.122819983090712070e-01
1.424532172439438582e-01
1.404855772184060436e-01
1.539106476719735439e-01
1.006584051308439948e-01
3.951022614399912758e-02
7.540274571315008778e-02
7.318369837866353644e-02
9.263024125100695338e-02
3.984368270903020787e-02
6.685671662919073777e-02
5.236227564523427552e-02
1.294753241514520481e-01
4.276616394663086684e-02
7.438810830822299713e-02
9.426114203116314760e-02
4.424187635169935656e-02
4.870005034016179624e-02
2.790367130683171423e-02
5.439367455886452013e-02
2.263559576349711069e-02
3.924273516016277275e-02
1.109539051953706973e-02
6.670940854299108047e-02
3.251163995433297565e-02
1.199446901600811910e-02
7.923765113831679474e-02
1.239851630836067559e-02
-4.405500515493115943e-02
-3.294402006478338793e-03
-1.210077764108213015e-02
5.303813368501181236e-02
3.310384835307907114e-02
5.662615572608703518e-02
1.173486699366453785e-02
-1.383870590936093527e-02
-2.603280321396590768e-02
-4.192779703505570416e-03
2.004577602504378081e-02
5.485283403450508244e-02
-1.336288064653396238e-02
4.876852450073714679e-02
7.409530269559945481e-02
5.250053202672472913e-02
3.091591890974425619e-02
1.454655765496977449e-01
5.540310898380070015e-02
5.303989098502975841e-02
2.228071739018721437e-02
8.811996469495442241e-02
3.937595912227064704e-02
1.154484163298995919e-02
3.401476518484351785e-02
6.386609196881923300e-02
7.330737785705575271e-02
7.188750002837381026e-02
5.834338715607155501e-02
8.218326554304392073e-02
8.555057774967426976e-02
9.382224679557478464e-02
1.029607249475471831e-01
1.025982285540890104e-01
8.618806686790771165e-02
1.743678436185236158e-01
1.742295022840333885e-01
1.011845848377023738e-01
1.023923524750766784e-01
1.552912054298075106e-01
1.072819374229443401e-01
1.596721010781488037e-01
1.782881693540832313e-01
1.285919639582063234e-01
1.326058278452435235e-01
1.126422317436330256e-01
2.099724401242662186e-01
1.579747164416724636e-01
1.639532098396047632e-01
2.008944057534903238e-01
1.213527285823786384e-01
1.816684878983157447e-01
2.230388516299769697e-01
1.635815516594466834e-01
1.612391277487883190e-01
1.513197188061361220e-01
1.333050519962015457e-01
1.367616443079174293e-01
1.026091545872400423e-01
1.879190342837480376e-01
1.696192061401010642e-01
1.797008954604734365e-01
1.945431539511986718e-01
1.635050223393260949e-01
1.403056843343024607e-01
1.177685262511771330e-01
2.534739327486558724e-01
1.932240329128635525e-01
1.934330847379532869e-01
2.332553326925692894e-01
2.613182047306364941e-01
2.821677593544800744e-01
3.622736945606913617e-01
3.852931680095171285e-01
4.834725008178780703e-01
4.808588910416735640e-01
5.170880886039838087e-01
5.799323722991732710e-01
7.229150274055929914e-01
7.270000503353623023e-01
7.661974694591033863e-01
8.542075514635684153e-01
9.527670768213575281e-01
9.379546081312205574e-01
9.951411674189887258e-01
1.095327920406444555e+00
1.109212827074806285e+00
1.058491417760380582e+00
1.069713421317238122e+00
1.010168576418323028e+00
1.017666740799621605e+00
9.957753941487703653e-01
9.019712651380441537e-01
8.467773434084305828e-01
7.709874064766039092e-01
7.372283388587341779e-01
6.590677891508635033e-01
5.735799065529209040e-01
5.670886973431137346e-01
4.568372864482683759e-01
3.905194337655618075e-01
3.515165773969699536e-01
3.199675789991284214e-01
2.756540076773696391e-01
2.557715350171745894e-01
2.249101782032578989e-01
2.023019809758445087e-01
1.929809612287685938e-01
1.514658548975083285e-01
1.330089766942186003e-01
1.154593132017109336e-01
1.350247837800334638e-01
2.023359117512417704e-01
1.541489645466931624e-01
1.661685767493028543e-01
1.759390827213510033e-01
1.301521152988732444e-01
1.435189595254675043e-01
1.446826925712976775e-01
1.259785184788473900e-01
2.042486380542727353e-01
2.062811224252305287e-01
1.442022575898246339e-01
1.950390656626661556e-01
1.835834398774616183e-01
1.500232579065167993e-01
2.144147401576097511e-01
1.992451752173760304e-01
2.330052761096224057e-01
2.180672329910461893e-01
1.520095868214635104e-01
2.908902346613775891e-01
2.451819045835739452e-01
2.520915475282637375e-01
2.546067151803855788e-01
2.082504429678445346e-01
3.041181699163744701e-01
2.755270919900320581e-01
2.714244403330287048e-01
2.367421146366894269e-01
2.822903861314280394e-01
2.751941275178874102e-01
2.600879473213731363e-01
2.220884555992509723e-01
2.428776601417157732e-01
3.460446897508140940e-01
2.861134985234184414e-01
3.067418309184736791e-01
2.860302533947466364e-01
2.694960604075037902e-01
2.860031655203189582e-01
3.275785195765500424e-01
2.548951949545249507e-01
3.001931921777194479e-01
2.933966831251783591e-01
2.500406487960797342e-01
2.421770153466939468e-01
2.682637774302574218e-01
3.184237300329996745e-01
2.439687840978874145e-01
2.149594220149063095e-01
2.517355359858001185e-01
2.298775114927783247e-01
2.865667677393174406e-01
2.162127352703359096e-01
2.067193533671507766e-01
2.044770464687303280e-01
1.960189518156102151e-01
3.190393480284497429e-01
2.188071629592595602e-01
1.854626803878739183e-01
1.883658273117642112e-01
2.130646885298368987e-01
2.581032746734459593e-01
2.019868304925848679e-01
1.989326947119650912e-01
2.441403578087686377e-01
1.660887875418573245e-01
1.811832256250752171e-01
1.863538345773814164e-01
1.593719407044674741e-01
1.723800969097190605e-01
1.978547203317286285e-01
1.997108918878464090e-01
1.347499315793940222e-01
1.706600241686593578e-01
1.540378946078944933e-01
1.677934770248941665e-01
1.364185222455262525e-01
6.215977113731830511e-02
1.320629085792381086e-01
1.572808369587067878e-01
1.232631698148194399e-01
1.612230688701356551e-01
1.275921725389813632e-01
1.033221456809542277e-01
9.375537228005863255e-02
4.958271074230048009e-02
1.206962055025097014e-01
8.074968935733486952e-02
8.702068520486774816e-02
1.445357002482164366e-01
5.269798084380088871e-02
6.933108997409240248e-02
1.091775274301864662e-01
9.448095159045219460e-02
8.144699252007416013e-02
6.383399475156489866e-02
7.721974610544569961e-02
9.052789391820371956e-02
8.861047567300731065e-02
9.855920573924720207e-02
9.094633019728695644e-02
5.980107749346752488e-02
4.118138090707347543e-02
2.518968193419404353e-02
9.586949770367370061e-02
9.992073722265426561e-02
3.545464720847750495e-02
9.682370981477764205e-02
2.155488489212901981e-02
1.108693985502133550e-01
7.451902294577986141e-02
9.392439130311053264e-02
8.657532716317745125e-02
7.868244016623746062e-02
1.926159528891496428e-02
1.061076064903075655e-01
1.088918805844081572e-01
8.632087884663083854e-02
1.146984220495622792e-01
1.326550938372773047e-01
4.113320113644296921e-02
6.234903933265587006e-02
1.287179051341511005e-01
1.099984571363154529e-01
1.049407898428762614e-01
1.491105591158452259e-01
1.654456856172443480e-01
9.757686221873806964e-02
1.569231108046614531e-01
1.280470996297969344e-01
1.422486634475442491e-01
1.486248553927011218e-01
9.762259020296075451e-02
1.802267626478049334e-01
1.877279403193650442e-01
2.071495939912464945e-01
1.695644581083907143e-01
1.715731772809335198e-01
1.892876415865133721e-01
1.985042723827432076e-01
2.191872293467693189e-01
1.697772344201903261e-01
1.963642932345679160e-01
2.043579954497111162e-01
1.523983364538488150e-01
1.674092308196179490e-01
2.472396029779018178e-01
2.179433139390682672e-01
1.858220108825554551e-01
1.607925004814853565e-01
1.878281954980927371e-01
1.981641654478883408e-01
2.253821395543881834e-01
1.647201792539749743e-01
2.266537084806262425e-01
2.094620816948580821e-01
2.037793814362536537e-01
1.863239854727676836e-01
1.656154308442198408e-01
2.257311506680800273e-01
1.751842105788004311e-01
2.020012923756946965e-01
1.296520064909883196e-01
2.094091008938561704e-01
1.589718836649970657e-01
2.217096299522044456e-01
2.246053391707916735e-01
2.518731532532629824e-01
3.931632187079578955e-01
3.424383528512090491e-01
4.477459930006845168e-01
4.371854443742220209e-01
5.332629894513802871e-01
5.863940797892928103e-01
6.623728311047886175e-01
7.250519832452082536e-01
8.108047241737585953e-01
8.206269992895079968e-01
9.209899411204254260e-01
9.192617315661868460e-01
1.028364388081822955e+00
1.024345935566645105e+00
1.053555173429813641e+00
1.071408432568667246e+00
1.095567869607322331e+00
1.081361436385904762e+00
1.127100057857811199e+00
1.014710587326667524e+00
9.575917357569326827e-01
9.243290429077025694e-01
9.002534084840048134e-01
7.826615645229297868e-01
6.862884217724977143e-01
6.631978319669873390e-01
5.773962442458991928e-01
5.615832588996003683e-01
4.669567411581867500e-01
4.584378296110777629e-01
3.524355436230594552e-01
3.614280258825455783e-01
2.882691606936166329e-01
2.831798830648095122e-01
2.309239090018566642e-01
2.199474140794527854e-01
2.218528556781392547e-01
1.395935386585231697e-01
1.527680953295531274e-01
1.465551923676924051e-01
1.620573689803147255e-01
2.041117334441062692e-01
1.893334689881106814e-01
1.572697876325035715e-01
1.370312181228637016e-01
1.210210317786976630e-01
1.681277422497169938e-01
1.548419960946853524e-01
1.741922781842520918e-01
1.859514294938434675e-01
1.826868535937317684e-01
2.243311789489719765e-01
2.782126876664063886e-01
1.557110853662759808e-01
1.922750751571737360e-01
2.380291570793647837e-01
2.329591233067352385e-01
1.913318980998489072e-01
2.415385372413039744e-01
2.038353923186310424e-01
2.145830570325885367e-01
2.325691647155785358e-01
2.376555706656620637e-01
3.307497472826547713e-01
2.678290910493078547e-01
3.014622095825937320e-01
2.742376089860180111e-01
2.469345641827287996e-01
2.841946980974244807e-01
2.830578712860148949e-01
2.743326012334322273e-01
2.644517635188752269e-01
2.955029357443631488e-01
3.019956012121399747e-01
2.915281086992599358e-01
3.073231797866283754e-01
3.144071344339783858e-01
3.330805126818784379e-01
3.279154380548751080e-01
2.348197628194357289e-01
2.962618216858043940e-01
3.241325935150161097e-01
3.217640068455358549e-01
2.928928146468780525e-01
2.978953247266435955e-01
3.111666042928173392e-01
2.702682633741780860e-01
3.064418553133901324e-01
3.049601660773614276e-01
2.439318732890211894e-01
2.707326194621365034e-01
2.772988888504788196e-01
2.460221900504277748e-01
2.309214583420781675e-01
3.011897640187840008e-01
2.340493819608570059e-01
2.936277695590664427e-01
2.192104133352442419e-01
3.019154021552284406e-01
2.228004491799310260e-01
2.064599434584693805e-01
2.022320984104447883e-01
1.968489355238926541e-01
2.308336778084100482e-01
2.165981562893628809e-01
1.852946988356424796e-01
2.098702889371782399e-01
1.806163121454557596e-01
1.844878813589108102e-01
1.972534501743885837e-01
1.752114563615417842e-01
1.307782145895599879e-01
1.874249663855566683e-01
1.394987656121964292e-01
1.299499809124391725e-01
1.515509000989690158e-01
1.409415646728285343e-01
1.299977862602746115e-01
1.125490505561592969e-01
9.210441465576482689e-02
1.803667550970184941e-01
6.265433880779684717e-02
7.921434621155071243e-02
8.921329684788298353e-02
1.121467536208739513e-01
7.845589318996673556e-02
1.027335992047752333e-01
5.545350940827800668e-02
3.875500781121291732e-02
1.185431726395382301e-01
6.440173643556562633e-02
1.031421467062599573e-01
8.661522671993197864e-02
7.536571588775556330e-02
8.698846147485889135e-02
5.099034196236904709e-02
4.102115577776899863e-02
1.277478429179317379e-02
7.205685992104790549e-02
3.841392051271345226e-02
9.085739208616711027e-02
6.432254007901906656e-03
4.067287117369047800e-02
4.781683335266816853e-02
5.273034680537500019e-02
9.850592434568893052e-03
2.745074655210694159e-02
7.627635220556563955e-02
5.173135022623977231e-02
6.206570259880169610e-02
8.804287683853365132e-02
8.574820456600734664e-02
5.031932935537056228e-02
9.727603466633147344e-02
3.789715015562976352e-02
9.831679690875166910e-02
7.946457470893195096e-02
7.306689272717833972e-02
5.383814125503710857e-02
6.628889010328550824e-02
9.034546674696483648e-02
1.066230536425595704e-01
9.198618468232555578e-02
1.196128088324423799e-01
2.825146241763076133e-02
2.953673424251532231e-02
1.203426357258687851e-01
1.395518415965193437e-01
1.027306710560018238e-01
8.563436648832700726e-02
1.425497472746758976e-01
1.403676926702472905e-01
9.649064526029871303e-02
1.218733983459530101e-01
1.175487640574850445e-01
1.185794876879101567e-01
1.499168854806677276e-01
1.590239055641611277e-01
1.667134201964321216e-01
2.303411650155186563e-01
1.629472262955321549e-01
1.900184339881701989e-01
1.592535287581002823e-01
1.578000492770841312e-01
1.534540300697736503e-01
1.941802509737545757e-01
1.780768083333471030e-01
1.681924375995340892e-01
1.494985632873104819e-01
1.105855059774818877e-01
2.076989939209507308e-01
1.535278559437972257e-01
2.163543996617277587e-01
1.705353157598122615e-01
1.899747123794768844e-01
1.546082833837366666e-01
1.605880608744101878e-01
1.483142526148686358e-01
1.723787432000944420e-01
1.648086093659299201e-01
1.738033526242684923e-01
1.076527153038424472e-01
1.048619531325450521e-01
2.046805870855147036e-01
2.095044444083517809e-01
2.096028928891995879e-01
2.328291339910692481e-01
2.224860936145902912e-01
2.657645694364632605e-01
2.360501620496562314e-01
3.748386969890549758e-01
4.182602142771711939e-01
4.575432480352069065e-01
5.095033762623927265e-01
5.210161516810600801e-01
5.982298696645393932e-01
7.037111420420458785e-01
7.148852548155030240e-01
8.514388162269996840e-01
8.686398691723765664e-01
9.005427313362539543e-01
9.919257514510173568e-01
1.042577468869805069e+00
1.043961494176897542e+00
1.003081996867532411e+00
1.046255180647893024e+00
1.035109604873212685e+00
1.007641243214903337e+00
9.374823800655904815e-01
9.182861994228405100e-01
8.597961293032942987e-01
8.247158373972667267e-01
7.415431584304433832e-01
7.007145742870749539e-01
6.136969709524626726e-01
5.726973174408670486e-01
5.855782164314975446e-01
3.814444280209242089e-01
3.565609027995332858e-01
3.584938793108883304e-01
2.958208948533917471e-01
2.235855671260360278e-01
2.128017167414791855e-01
2.499012805649616364e-01
1.638730937937039611e-01
2.219598352284180565e-01
1.035165636533670053e-01
1.241980994621836032e-01
9.240151697607928982e-02
1.276635559024828503e-01
1.502551507032471589e-01
1.513996169441175765e-01
1.103188964535802841e-01
1.332419043053041374e-01
1.661314336990885321e-01
1.466103164198047926e-01
1.466547316265859879e-01
1.289894821043960083e-01
9.978303895344121932e-02
1.564311319204531869e-01
1.517814499899109715e-01
1.634043991214796099e-01
1.806618998474444349e-01
1.892798661693569917e-01
1.254976406124071187e-01
1.615197754788132711e-01
2.058702048557739250e-01
1.987725078155091474e-01
2.434550077885621888e-01
1.746084692657451920e-01
1.460117955491340158e-01
2.419269967891179984e-01
2.112817719670669336e-01
2.711456433932973309e-01
2.156338205903602367e-01
2.120894006808340948e-01
2.246368362435396393e-01
2.032222542903314999e-01
2.523807216234249529e-01
2.702301958804116389e-01
2.484704321956127948e-01
2.550774986495168428e-01
1.819107261689503763e-01
2.705244219805403860e-01
2.463708388125936677e-01
3.105175076323522521e-01
2.487111259050721612e-01
2.104107546663935291e-01
2.464490959451429430e-01
2.458696472565886637e-01
2.915533093985032131e-01
2.503215766887745830e-01
3.115466494856823920e-01
2.543643035416258691e-01
2.272091770892374907e-01
2.694722818475837611e-01
2.741688311526565003e-01
1.441182833656132201e-01
2.094039789894149850e-01
2.131497731635684234e-01
1.961426054139297215e-01
2.481863839006408223e-01
2.591542781856263078e-01
2.316776253403033392e-01
2.338369232134493436e-01
2.125282872728062600e-01
1.973860651252919984e-01
2.022857625390441227e-01
1.474918915985758694e-01
1.973552983812224826e-01
1.680332175780597792e-01
1.937622448582550228e-01
1.551125955142702295e-01
1.009367155637259095e-01
1.758680132447849320e-01
1.422395308937752789e-01
8.205253345624081984e-02
1.118051659457742070e-01
1.396215091022700583e-01
1.534114281594348705e-01
9.349802529581750787e-02
6.280716667048306945e-02
1.459790889277887693e-01
9.560539813158498712e-02
1.206691796945704165e-01
8.980266163152095249e-02
5.622565940413228741e-02
4.395220253932247134e-02
1.036063736637471561e-01
7.360796148649056958e-02
3.951116769710594223e-02
-1.150019478523840732e-02
9.094433186715836226e-02
4.015662537445962438e-02
8.350708507292611826e-02
8.976851163758470253e-02
7.269812362898904479e-02
5.035150574688575242e-02
4.658473738952109700e-02
-3.340258154522547651e-02
3.633022055167705461e-02
1.676839492546306105e-03
-6.286275849418318691e-03
4.959751875492544870e-02
4.795233008015296200e-02
3.035741409565426152e-02
1.709168743830890083e-02
3.307064211389543207e-02
-1.785641843777490204e-02
4.420831804635338980e-02
6.342896110549195443e-02
3.339883303336923376e-02
-3.449943572458523400e-02
-2.534147423819210071e-02
-4.568187130345367775e-02
-2.724823287128309846e-02
4.671416159225465908e-02
4.602583355994146336e-02
-7.022132717947854319e-02
-4.563335226475725981e-02
2.575759325319005449e-02
-4.436271018359148888e-02
1.157700898955917046e-02
-1.082851090560445033e-02
7.963825547362643822e-03
1.808263597846025000e-02
-2.689670784700897571e-02
-1.749649598340998966e-02
3.286697063358875320e-03
4.409411444960634543e-03
-2.954239494824168616e-02
-3.764446249976073633e-02
-4.309301680530831097e-04
-4.715171116893451808e-02
-1.880976703678248485e-02
-4.890702725672097656e-02
4.659469959789223903e-02
6.123682280960877217e-02
-1.343420075100130659e-03
-2.119821890030018988e-02
1.085442681621978309e-02
2.472138360058020318e-02
-5.388727184761207822e-02
-3.781357234938575312e-02
2.434427900749887644e-02
-2.352709291115157725e-03
2.556949978942812951e-02
-3.059485025369242106e-02
6.216352902117631973e-02
2.240652972678148711e-02
-4.545372748464539259e-02
-2.037103161110018212e-02
-1.179766106976963720e-02
-2.510095439259855954e-02
-4.945202457416868203e-02
-9.896883556948054064e-03
-3.127695182901292503e-02
-7.188786264219654276e-02
-5.131215722275132840e-02
-5.802634669489845076e-02
-6.167209763621359087e-02
-3.282595024330357131e-02
-3.562922204926415037e-02
-6.763213669723776300e-02
-6.300177307496480222e-03
-1.684937049280629817e-02
-3.081374901265509364e-02
-3.038884819203170953e-02
-1.216162031843518072e-02
-3.544142355157544472e-02
-5.646279310335379498e-02
-4.728318220963297763e-02
-4.109685054917669444e-03
-2.635364881624244551e-02
-8.674103772139694912e-03
-5.052463205684505632e-02
-5.029446965746223186e-02
-3.085205492512180583e-02
3.416771876913901607e-02
1.058906266234701729e-02
-3.025932284757174712e-03
-3.981586613046813466e-03
-5.370056996431968321e-02
-2.744474152233629394e-02
-3.246541050246273125e-02
2.234063573547061948e-02
-4.207433897432201475e-03
