9.500427077812088061e-01
9.654318457004700260e-01
8.705372020718107340e-01
8.650970385089027381e-01
8.697427316036728806e-01
8.148686581086374003e-01
7.668273583524680692e-01
6.635929721942026571e-01
6.047010390715122918e-01
6.301608554946115381e-01
5.078882068339338751e-01
4.412387512452848881e-01
4.115756967691524548e-01
3.220762022699361626e-01
2.542545763146590865e-01
2.357924737447799068e-01
2.031500988191838608e-01
9.228199316360681526e-02
1.509925019290249137e-01
1.643238856686569382e-01
7.385987764228180152e-02
9.370636307961494049e-02
7.681473039074801501e-02
4.798027563611098611e-02
1.889517731632697067e-02
7.918107864909512683e-02
8.068458108757139979e-02
6.206062250264544194e-02
8.679718356880770924e-02
7.573798968364606199e-02
1.100249351639707440e-01
1.098427560320622554e-01
7.316198671404502973e-02
1.169923260182761937e-01
1.366893464854704310e-01
1.000990778293509714e-01
9.833862453917086022e-02
1.167501087380369007e-01
1.578017794158818876e-01
1.140185206242845528e-01
1.101549913962479865e-01
1.478533265991201218e-01
1.414405551114867876e-01
1.586174664085435726e-01
1.121605078749078055e-01
1.562579137349909275e-01
1.297281678955685691e-01
1.173404886455779728e-01
1.500460299460886215e-01
1.758477309599163485e-01
2.098065497366248811e-01
1.432847118086027771e-01
1.406821180851962061e-01
1.607331597705826121e-01
2.010738799286665712e-01
2.642511220769945268e-01
1.691977992402527997e-01
2.507187277539622006e-01
1.677084729493442672e-01
2.217961435288063055e-01
2.321418775788813560e-01
1.852595941071277230e-01
1.921064083589614502e-01
1.644913277529401474e-01
1.878101941108963890e-01
1.698728967468347839e-01
2.243507086769589709e-01
2.116667419430771080e-01
1.944685703600105009e-01
2.337102340060425443e-01
1.994670126068928129e-01
2.028324917680215389e-01
1.887058767908261769e-01
2.305272748776683867e-01
1.234821023012437902e-01
1.663420660585209210e-01
2.005682254986803359e-01
2.012555994731702325e-01
1.747400459715544863e-01
1.784001173404351492e-01
1.402474329768892136e-01
1.673985637728772069e-01
1.200498084961997836e-01
1.423028638637359733e-01
1.531176310675894103e-01
1.843423808519752960e-01
1.302543062546887842e-01
1.016195809198771338e-01
1.203862239393933276e-01
5.621079521406924934e-02
1.651751782142037439e-01
4.003637176986891283e-02
7.792187621987636814e-02
7.595163754219833030e-02
6.497302380830431712e-02
6.307385792069514219e-02
2.727808218880520275e-02
3.766658358151173114e-02
5.745548010641900183e-02
2.505691961397854550e-02
-2.535328110010907215e-02
9.550791738064980108e-03
2.579216981667829811e-02
4.259863452362285668e-02
8.533682184853848274e-03
1.187847650984062697e-02
2.743502890776422509e-02
-3.429339319329353236e-02
-7.769721395470143011e-03
2.080030623021522640e-02
5.958466976561710426e-02
8.941571424945199409e-03
-1.164218924737006611e-02
-1.477359385870111175e-03
1.923706235418384120e-02
-6.103963443362463853e-02
-1.089948668418885130e-02
5.693954735177149395e-03
-2.133647900765022268e-02
-6.020701678947169844e-02
-4.386802315958945875e-02
-4.984263379953068895e-02
-5.743378989825494163e-02
-2.856762400966543838e-02
-4.583957637023974852e-03
2.033632136226114911e-02
-7.310556050559112451e-02
-2.748947601337238533e-03
-1.319526388205900097e-02
-1.410966263281680094e-02
-3.184774691133697433e-02
-6.292731708757057230e-02
-5.535699949061349823e-02
2.095870109945482951e-03
-7.872745782695647621e-02
-4.613178202053830335e-02
-6.050495342403323928e-02
-4.613809955950137071e-02
-6.417560934860677690e-03
1.458652970238039082e-02
3.386126018048177255e-03
-6.643155811569323443e-02
4.079117322709368415e-02
-3.150901898158418868e-02
-6.244496812269034053e-02
-1.474897024413494850e-02
-2.059816809239779778e-02
1.927354712723094304e-02
-4.598926932446219945e-02
1.316491458791368280e-02
5.121316408949986437e-02
1.727664709864504267e-03
1.382456531071459688e-02
8.060468047573626782e-04
3.667623882755145781e-02
4.100121695412858175e-02
5.184158258514647705e-02
3.946383389397774277e-02
2.532018301183678460e-02
1.025624092309883606e-01
3.481411420005072616e-02
6.495775345375662257e-02
5.081276664749986155e-02
7.995288094300018189e-02
2.579765667814608310e-02
3.999013552319885534e-02
8.206910428190644646e-02
1.258715187299880300e-01
8.999436822814381454e-02
6.004004672583428126e-02
1.706218656469358219e-01
7.891743772956355540e-02
1.141199694184553415e-01
1.108145728633273819e-01
1.072466095940801944e-01
3.872203293003192298e-02
1.200088105356970913e-01
1.028710741705222698e-01
9.459379501055170669e-02
5.869003099317162547e-02
5.584058280369377097e-02
7.951547854649448910e-02
8.258512907410942017e-02
7.537304577660759730e-02
7.720732400230828629e-02
9.587978983816494716e-02
1.099815981761536055e-01
3.357431888325957542e-02
9.815321235979382331e-02
6.087639223307440145e-02
1.007984030378986928e-01
3.530990191970148628e-02
6.163582579162095454e-02
1.109494513230496610e-01
8.786505696158386503e-02
9.316352221949258938e-02
1.799319667833351732e-01
1.707807804707560939e-01
2.228938489526920141e-01
1.857772014438908714e-01
2.925064308205835295e-01
2.684452035330068265e-01
4.369700421993312767e-01
4.386111901241234734e-01
5.012733006868911323e-01
5.743765847561485005e-01
6.259019826998585279e-01
6.623206003061336000e-01
7.041628155103443198e-01
7.942019586135810050e-01
7.986508998543454529e-01
8.819181795089965359e-01
9.427019700463172835e-01
8.908721125542222730e-01
9.506097307460233958e-01
9.047762462850844623e-01
8.762403526747093441e-01
8.507772330061957877e-01
8.355158240863922448e-01
8.251405191753986568e-01
7.565375494882877749e-01
6.780236347094372729e-01
6.464935265022259125e-01
5.712070383934597650e-01
5.087079817693640482e-01
3.838768740056863193e-01
3.673323941341611332e-01
2.874795309169950741e-01
2.510241329191985615e-01
1.962993956341349266e-01
1.737419072501637796e-01
1.607141886086548010e-01
1.521573175518422527e-01
1.438474993720896822e-01
7.586306189520471144e-02
9.355321013391464102e-02
4.896534897348233523e-02
9.585694123191650096e-02
-4.367791065920993698e-03
5.428150071677453198e-02
4.096170225299719525e-02
6.038143069200430091e-02
3.972663245739176813e-02
1.279442805649076420e-01
1.023038425365384585e-01
8.566986353196565096e-02
5.826957835542843911e-02
6.126463471673022215e-02
8.226944490474885630e-02
7.886414945368901142e-02
5.052738379835516880e-02
1.019843735742002738e-01
9.446931906875905005e-02
1.368871659815917019e-01
1.233323388714138158e-01
1.675584221653677597e-01
1.119276444052903913e-01
1.794682527247450921e-01
8.251423194313256548e-02
1.554440984585651331e-01
2.182963290099764753e-01
1.072659923866478848e-01
1.286903571295291149e-01
1.956627054712172797e-01
1.634344191174144090e-01
1.470157556823974698e-01
2.048531039877585780e-01
1.833533035294232505e-01
2.139731044716477737e-01
1.948980943964031542e-01
1.976538012075349793e-01
1.821946408973776910e-01
1.846260255324593258e-01
1.764560209488075515e-01
2.067829934898706978e-01
2.165428389330846248e-01
1.856717273650129452e-01
2.148508361074485118e-01
1.893777693627438641e-01
2.248273181827271650e-01
2.092839459513211320e-01
1.990559378866254003e-01
1.503842660850375212e-01
1.602550073684645693e-01
1.625544593760644974e-01
1.788085257995369048e-01
1.938066211317466259e-01
1.365137305412329194e-01
1.757120420880689537e-01
2.005333382923330521e-01
1.620918258496621134e-01
1.529922326274861799e-01
2.043858234430326326e-01
1.307596129189445566e-01
1.803197649553620885e-01
1.463221447428960931e-01
1.734338544882963740e-01
1.666264576292788568e-01
1.063387561559419325e-01
1.386220865486201548e-01
1.207891124377851733e-01
1.019442498693515081e-01
8.135463757499147852e-02
1.096700281804307703e-01
1.465988040948991988e-01
1.088596472051210629e-01
1.181598010881924343e-01
8.116579738715568038e-02
1.710854728142027770e-02
4.870000199105003341e-02
6.374723362472134447e-02
4.253010925547263260e-02
8.787120753035304599e-02
8.559307264954421623e-03
5.636318572837699381e-02
6.908574489965632615e-02
2.188058137690852833e-02
3.440449913910449686e-02
1.870370452288998980e-02
-4.032040339171955035e-03
3.530997821338491272e-02
6.233545837746169022e-02
4.108666038963354472e-02
3.084832734787554959e-02
-1.010801442998752325e-02
2.944240409171330897e-02
5.881274298730056194e-02
2.243404123138600936e-03
-4.382986507830630152e-04
-6.228388229342116111e-03
2.289564888075228122e-02
-4.766167784612439229e-02
-5.214395461382539954e-02
-4.549261144259339473e-02
-2.071233953897828189e-02
1.012631283172316793e-02
-1.536812506982983967e-02
-7.061127578256734538e-03
-5.225945205484418266e-02
1.907438256218776246e-02
-5.028906671123106742e-02
-4.665010550136548112e-02
-1.602072875566763061e-02
-1.144306278317090003e-02
-5.162442384062379541e-02
-7.249311073119178717e-02
3.500430662001507987e-04
-3.890649039772518802e-02
-5.824255670449711431e-02
1.079115512078961808e-02
-1.524224124551823087e-02
-1.418626476117327423e-02
-1.412766897927746415e-02
-5.553235083585006393e-02
-1.256656380527211916e-02
2.436981717075323295e-02
-1.022146227645563676e-03
4.203841901935653769e-02
-1.777429821605968491e-02
-7.839011181878526024e-03
-2.152735423732324987e-02
-5.079044043185410029e-02
-1.383347164752999139e-02
2.663132724038796278e-02
4.889243934966831101e-02
3.830950760123845444e-03
2.254451268266501052e-02
6.343748860540837642e-02
-1.976945744057270749e-02
2.926082487303917345e-02
1.718413964571931934e-02
4.948947689389604498e-02
6.299531610427960837e-02
8.232833546018819559e-02
1.067862170210856221e-01
9.167805455464277109e-02
7.374503297613932418e-02
6.290925000773252285e-02
1.064851264305530926e-01
8.826029723412222305e-02
1.220225372581752454e-01
7.104975573364886998e-02
9.242022016858818245e-02
1.588817447865381871e-01
8.807922517987867850e-02
1.014155765928431152e-01
1.355378142234128502e-01
1.334682722370461594e-01
1.005453417849561382e-01
1.849648620394637732e-01
1.163430110977866361e-01
1.889537690103121614e-01
6.789023078120816346e-02
9.533445401157421284e-02
1.491629804078270505e-01
1.165379801318442987e-01
9.056927598433732463e-02
1.000145302709360001e-01
1.186611184675124275e-01
1.284617045129758661e-01
3.961276310700795333e-02
1.110895490472833397e-01
1.497179450637068920e-01
1.400709755355687425e-01
7.761581457292807129e-02
1.016392416363820494e-01
1.521895522790633060e-01
1.371119219027250313e-01
1.296027585952098660e-01
1.740977139212481761e-01
2.103335283026799285e-01
1.792502649654275360e-01
2.355054524749768119e-01
2.557358811660358500e-01
3.170441268102404120e-01
3.678088900890807422e-01
3.885196742117084101e-01
4.766024124099993986e-01
5.659303939853742582e-01
6.240083508769106446e-01
6.387079515139344466e-01
6.739780992546219318e-01
7.506931343926201983e-01
8.303238992392062423e-01
9.017470142169712322e-01
9.516536264616621832e-01
9.084334831486579054e-01
9.103782115597334190e-01
9.422100124809068555e-01
9.591394522191064587e-01
9.296380756390889566e-01
9.185745726395639910e-01
9.028289049853003290e-01
8.076689857019909713e-01
7.219483028068608421e-01
7.052870439189223850e-01
6.384914683681981451e-01
5.518264558204768466e-01
5.446820289219790334e-01
5.263546841648149011e-01
3.746840133608629331e-01
3.443365617582641591e-01
2.929373946513713078e-01
2.894619599329489312e-01
2.106035751255505850e-01
1.883050402040948867e-01
1.217410294051514408e-01
1.497109013861064319e-01
1.254339087456950164e-01
1.422812350649947932e-01
9.912138840859222033e-02
6.934359009882321012e-02
6.923672238806158341e-02
2.579292091621360888e-02
8.206081282726643278e-02
5.727915224285622803e-02
1.086771232146975796e-01
1.176668764585704352e-01
1.460860886883683374e-01
1.445697218608216206e-01
1.083592649993366797e-01
1.289553405389245733e-01
1.388996012916864364e-01
1.118169809413444571e-01
1.204899862095653446e-01
1.115506562990142003e-01
1.950591940345816067e-01
1.184898873869819486e-01
1.368572040931116673e-01
1.992630419156706245e-01
1.588070203036169303e-01
2.063428457573625308e-01
1.478811064372743678e-01
1.569371053149282713e-01
2.242461109479007841e-01
2.256049214321252661e-01
1.834531550454897020e-01
1.905078913755021697e-01
1.733173506430798483e-01
2.383172444363993725e-01
1.708647238851261907e-01
2.570239150254347571e-01
2.060446249862210033e-01
2.580053215644825260e-01
2.223309981466110030e-01
2.229619700710386565e-01
2.419002944045935966e-01
2.434841782642884200e-01
1.992468243759900060e-01
2.206236093152299238e-01
2.335097229090214443e-01
2.390823299222451792e-01
2.594547216759092723e-01
2.844633602631930214e-01
1.958441968310432602e-01
2.589588190973650117e-01
2.362887519296328620e-01
2.579788586670390682e-01
1.974745723220439619e-01
2.136894020220232449e-01
2.046518539036232820e-01
2.496081757732977191e-01
2.222120815144345285e-01
2.307316759384472893e-01
2.232344365586015900e-01
2.429580448476457433e-01
2.193632176738721795e-01
2.124963595379169568e-01
1.870389249941495080e-01
1.773471383705542415e-01
1.998207617017044302e-01
2.175605721799333259e-01
1.438231804562969118e-01
1.651143918105882069e-01
1.972746233104696045e-01
1.677634768837446277e-01
1.550068053913774002e-01
2.132241543478199941e-01
1.427776990574738947e-01
1.110382515409098908e-01
1.137714971913951489e-01
1.046581101827079724e-01
1.071595835882560299e-01
1.293580676424074538e-01
9.991321064863988022e-02
1.084311783549404828e-01
1.209789501268360712e-01
1.136391235992265658e-01
1.392863555738994286e-01
9.154175045049101067e-02
7.320629838179634752e-02
5.033690205403699991e-02
8.664170056980392831e-02
5.275259583078463488e-02
6.948296378627809300e-02
6.452865092654601342e-02
6.286102677693267138e-02
6.706047677410012509e-02
6.664023481294044371e-02
1.747053002321703394e-02
2.999903709488757272e-02
2.179445466319250568e-02
1.146237534839403133e-01
4.211754727730109699e-02
5.928975477104497793e-02
1.317886629269453790e-02
4.542441403036354824e-02
9.834104686606642831e-02
4.851499121963003675e-02
2.670899673889521805e-02
3.585913626681509758e-02
-3.533453916095508074e-02
-2.001971317578245257e-02
3.989030911501904864e-02
5.907365671952856390e-02
-8.458155812681177749e-03
9.230101716235939585e-03
-1.309149468314946101e-02
-2.220747767928989841e-02
2.918293137786689279e-02
4.362122818552498921e-02
-1.614529833836535894e-02
-1.750033902718585790e-02
3.067643625996410370e-02
1.825677304427909819e-02
-2.565658079466117542e-02
7.233444669431845359e-04
2.489103727780087039e-02
2.242094029557371165e-02
-6.876619055359162180e-03
5.339439640947946097e-02
-1.589215209489731190e-02
4.064248880898747862e-02
1.502593596576149403e-02
6.779371554026328295e-02
-2.165139335741496016e-02
8.926772756505478579e-02
5.030541023178379534e-02
8.126945236465828171e-02
8.849764047015215573e-02
1.209023790813406884e-01
5.595275332274562974e-02
1.087543136127168270e-01
7.907724468954396846e-02
1.310950838798241314e-01
7.909195426574316956e-02
6.422197590295899983e-02
1.277179172887912273e-01
1.252338609573325767e-01
1.252449128169533243e-01
9.757842430600181804e-02
1.210365434274812829e-01
1.132329246379794457e-01
1.315294920358052178e-01
1.495560993153362273e-01
1.788964390999179810e-01
1.586601701299868994e-01
1.700603626072605401e-01
1.503170512488141708e-01
1.663679852074364252e-01
1.706984764870883020e-01
1.866842206041832708e-01
1.606104308721834628e-01
2.171648034425417984e-01
1.988784343011706368e-01
1.813921989446274641e-01
1.520097588242648179e-01
1.378359084415439750e-01
1.958315148455695986e-01
1.460964360430577202e-01
1.265724685444098996e-01
1.580727635385081875e-01
1.775857060469800963e-01
1.636584495147415663e-01
1.677534031536986325e-01
1.224919549715255268e-01
1.821823066611999442e-01
1.818690579043507616e-01
1.366261238859044769e-01
1.463776807107099454e-01
2.026386802909662943e-01
1.599208883261355740e-01
2.211161566090508179e-01
2.542284321791086765e-01
2.333391260306711956e-01
2.308530216126472578e-01
2.995116447109903435e-01
3.298813361153766222e-01
3.423213099617450350e-01
3.800973667146348989e-01
4.556099468720015699e-01
5.172812807232253229e-01
6.046336830604460699e-01
6.359725575106993656e-01
6.649066171726922825e-01
8.115304441224445720e-01
8.221029426960422271e-01
8.408450464900453225e-01
9.536969446178683585e-01
9.061070284742256398e-01
9.673262423215831518e-01
1.046213167384141718e+00
1.026702119009940795e+00
1.058254425697763512e+00
9.654712458088273719e-01
9.232051404583095922e-01
9.231351074870717266e-01
8.553003328531528782e-01
8.728180962853777647e-01
7.363475409033047869e-01
7.106742801293074452e-01
6.602600354260738102e-01
5.208738716369166744e-01
5.093165360379541262e-01
4.647324063834036290e-01
3.482037941590493402e-01
3.428586582926089754e-01
3.205841184774438357e-01
2.927212073054338837e-01
1.831209916258371706e-01
1.639538605636291502e-01
1.806488724362528830e-01
2.068243857179554723e-01
2.088821233716846026e-01
1.582466159796211691e-01
1.882170081336058953e-01
1.883634585860361477e-01
1.025971770751541168e-01
9.352888979788677448e-02
1.522007657613924092e-01
1.627405297471211099e-01
1.934521142412226058e-01
1.407183408131431057e-01
1.643793011654894332e-01
1.606557788001429787e-01
1.513227517158105273e-01
1.472267058661142769e-01
2.331923087439674025e-01
1.663370897826166872e-01
2.182543545599970325e-01
1.544820446060938268e-01
2.131822031781044624e-01
1.778877162967227865e-01
2.033640729766925670e-01
2.538621920492225570e-01
2.499864290927541755e-01
2.627564572151760425e-01
2.192246761998141724e-01
2.247096677596271130e-01
2.371286587304015647e-01
2.127697756472219925e-01
2.892291360547907808e-01
3.196707389298601987e-01
2.573765638529406097e-01
2.796582116777852622e-01
2.862470676462001706e-01
3.031349806696475024e-01
2.558252113800169592e-01
2.783576048133447056e-01
3.023365633692896570e-01
2.834837417174198571e-01
3.173632238417913864e-01
2.748673961952380895e-01
3.311004875552741034e-01
2.907801481047817549e-01
2.946301049010389139e-01
2.778442150651448950e-01
2.884413064745937616e-01
3.288541247531484024e-01
2.243751327645899518e-01
3.029417783053618973e-01
2.759619994697872225e-01
3.216259351857897464e-01
2.609000197438640090e-01
2.554757206593309404e-01
2.706155506005580302e-01
2.905049127421852617e-01
3.076633957524355090e-01
2.544070652371218100e-01
2.067162434567277052e-01
2.400050314376699634e-01
2.279776872072352134e-01
2.737059664265271697e-01
2.148677876622712979e-01
2.315162738380409091e-01
2.057242899380035961e-01
2.041233060698863511e-01
1.793007595381862218e-01
2.141802164579804102e-01
2.252172900334326322e-01
2.453107355499299369e-01
1.881340860372677226e-01
1.929790301923897111e-01
1.788612626818211204e-01
2.054252107726651788e-01
2.438407217777265878e-01
1.533282638643940488e-01
1.400626421879495875e-01
1.495705686114753574e-01
2.209073986214458163e-01
1.319544663748050128e-01
1.931810163278319392e-01
9.376341331125263856e-02
1.425719260128655574e-01
1.591798370084652747e-01
1.094196076267195950e-01
9.758852428070224905e-02
1.432911030922875972e-01
1.516623675341839395e-01
6.018001142320870273e-02
5.662338582569288042e-02
9.963187547022922530e-02
1.027598859631966566e-01
8.635904452233930662e-02
6.014330649785815802e-02
8.013996236221460068e-02
3.320923403449802663e-02
1.259660061599939818e-01
1.252209176466748675e-01
6.869774298114371403e-02
5.422246024908143613e-02
2.550458047614252710e-02
6.296650942663704897e-02
1.036309889418313840e-01
1.018854895748956546e-01
7.483800108922346317e-02
5.051641969918468922e-02
-4.869057337917127859e-03
3.111448457600343026e-02
8.352258246879604164e-02
5.464963312334449735e-02
4.901291581906622868e-02
2.981412531826107756e-02
3.363711912217018374e-02
8.372394473767383327e-02
2.393430642031464314e-02
3.514634123652861375e-02
6.608425913046012123e-02
5.464461799333286685e-02
1.197141354219212472e-01
8.176417934589355618e-02
1.200756481634436545e-01
5.902620880374373491e-02
9.211073877368830543e-02
6.273297531496591084e-02
1.118275269253028448e-01
9.068516617883433384e-02
8.415240986708408255e-02
9.026163193434966203e-02
1.245899044303525327e-01
3.571696581113671665e-02
9.012292958716440483e-02
6.731322161763797496e-02
6.349102570814543767e-02
9.182993694349100844e-02
7.023729465533057326e-02
1.202909296720031523e-01
1.045618670356599778e-01
1.568678946328123103e-01
1.505655423376202340e-01
1.361220234231668158e-01
1.804455033909589112e-01
1.218726980333858928e-01
9.365709440394563712e-02
8.354874170641207742e-02
1.357948970381483711e-01
1.456677872092711490e-01
1.934579753351736153e-01
1.422983054258925573e-01
1.376753205034626226e-01
2.003778923660623212e-01
2.308052565163521419e-01
1.670811322498055029e-01
1.976451567449772628e-01
1.491544489349123648e-01
1.760035845150697553e-01
2.426007836116143013e-01
2.261817464545435585e-01
1.491747733194594416e-01
1.917046800271421103e-01
1.937920751938753405e-01
2.268463114096434530e-01
1.702535361539339043e-01
1.692566557060559695e-01
1.760607487883983358e-01
1.943238318916359619e-01
2.187659981173676049e-01
2.402859904525978252e-01
1.876083288243066971e-01
1.867994985525700258e-01
2.146806506542493498e-01
1.877909683560055887e-01
1.326246751988340855e-01
1.313676020749399986e-01
1.844462058484267475e-01
1.183224505292716361e-01
2.191427500443924870e-01
2.279617721309660505e-01
2.667632638886807128e-01
2.675973990787508527e-01
3.136420920401447598e-01
3.251418975607069384e-01
3.602591112825450081e-01
4.673730277319063098e-01
4.924479452898775089e-01
5.794396887416334296e-01
6.408388494583705519e-01
6.591147469577975926e-01
6.851739553508657821e-01
8.128134710867367385e-01
8.590652537008722778e-01
8.862939438719428242e-01
9.523795465933825311e-01
1.026947898338399501e+00
1.020854098619542238e+00
1.091164581116966570e+00
1.011392826329597927e+00
9.745950503045481828e-01
1.007606243455418937e+00
9.671038032915909577e-01
9.673716631794582188e-01
8.981032459160452897e-01
8.079985934120902380e-01
8.160012705358457019e-01
6.757644654009298257e-01
6.517809796020264113e-01
6.794639006253457847e-01
5.507479849057550503e-01
4.454394588239499186e-01
4.101661297540382112e-01
3.249844880777527090e-01
3.423592221754407916e-01
3.320766806461344367e-01
2.433896867779551110e-01
2.041745520018085625e-01
1.614166857875795891e-01
2.075359187403318095e-01
1.310389395334013163e-01
1.865998968769044808e-01
1.428960773164610343e-01
1.738444367607261953e-01
1.360571669401176020e-01
1.786474742759198708e-01
1.695431076450379937e-01
1.610135991663561306e-01
1.639686103481939328e-01
1.324683303693951486e-01
2.297769109080635419e-01
1.898811391743786547e-01
2.388326758485851409e-01
1.654918447678435933e-01
1.741757241026967995e-01
2.140272197510321994e-01
1.939702406130035806e-01
1.523112191740703392e-01
2.335787685286806192e-01
1.961914772671898288e-01
2.296542708255010778e-01
2.134717928664785491e-01
2.570712485023163851e-01
3.119417012220777607e-01
2.723113381764279417e-01
2.187472267228365019e-01
2.578467327023135081e-01
2.439826768300480397e-01
2.089534100342372025e-01
3.250311964801492204e-01
1.976147857862211032e-01
3.113812077731980543e-01
2.869457010203840253e-01
3.103644682462020077e-01
2.430407166203320812e-01
2.916612815476041787e-01
2.856857511494934609e-01
2.705622127855489834e-01
2.654758127181282568e-01
2.517807380076978463e-01
3.110531201252431655e-01
2.479198790259257157e-01
2.835451695486558288e-01
2.984766035200741019e-01
3.354530032715011822e-01
2.943884349407808187e-01
2.515162461765268476e-01
2.803803907235520865e-01
2.468151221799386175e-01
3.538492685639328394e-01
3.141096522252408985e-01
2.883959235750173100e-01
3.151015468225293326e-01
2.620964373582271856e-01
2.600329597329549269e-01
2.423966398685249435e-01
2.947910745913515096e-01
2.501998411012916756e-01
1.796259167140807911e-01
2.066392818855649627e-01
2.406623561456127658e-01
1.840509012418671542e-01
2.093652347025979077e-01
1.901501421482449106e-01
2.295966548215359615e-01
2.071499536799398800e-01
1.601363764624897656e-01
2.357101702508004049e-01
2.198116772029546084e-01
2.118089600773054582e-01
1.803615321296180019e-01
1.572114326868341849e-01
2.128642034664106897e-01
1.414207797280714884e-01
1.426870100130525898e-01
1.308099786534597242e-01
1.674292457892881669e-01
1.177358404934428227e-01
1.179655749782443919e-01
1.594922723542629706e-01
1.425118408985914797e-01
1.383862876964658539e-01
7.637140021326457862e-02
8.187676450173056453e-02
1.137691031904667360e-01
9.518659834154660770e-02
1.040141144393647854e-01
5.327838070990521119e-02
5.615458071309945010e-02
8.147681944276650989e-02
7.202004285621474433e-02
5.272935375753769194e-02
9.676556325505386580e-02
5.670031202075019594e-02
6.531122093558207331e-02
1.353021166597608849e-01
6.706056240738902940e-02
5.260343960787278172e-02
5.998869180869270679e-02
5.837865345292563013e-02
8.143575937893332561e-02
3.342381942073145012e-02
1.269497992144822882e-02
1.487374141992155521e-02
1.226728221367226479e-02
5.520868537227814621e-02
6.097776675739346314e-02
6.399885648724130960e-03
7.006227884930410488e-02
1.701538791273919660e-02
5.333967177888326860e-02
9.886713739723188010e-02
5.728907561235456469e-02
3.375745803978011383e-02
6.775215844285328859e-02
5.515045069418141044e-03
2.157100549030212255e-03
2.338447923330742168e-02
6.701281092963445873e-02
7.784811517984487755e-03
6.126331438449608008e-02
1.035457109639736917e-01
6.696771446395399785e-02
1.401117359772258153e-01
5.406870644267884607e-02
1.093259853401949699e-01
6.119535617943480665e-02
8.475898267365508665e-02
9.332105999864286072e-02
1.131235071024800504e-02
1.289357804995812373e-01
1.423338289255985656e-01
8.765484377697535523e-02
1.161216668742615088e-01
1.015147443183870568e-01
7.696265956889147830e-02
1.084445527081618066e-01
1.069113443912244332e-01
1.188969163216518354e-01
1.049842591420429433e-01
1.895714217472596608e-01
1.429370592174915022e-01
1.352423604283919389e-01
1.346904388747836023e-01
1.245737292970230670e-01
2.162935366899446099e-01
1.331459006854296967e-01
2.138775424978759387e-01
1.886468888275026623e-01
1.462488046401179409e-01
1.600849022489598261e-01
1.396307221797850884e-01
1.158099593770076235e-01
2.273772743006717556e-01
1.829564238008469235e-01
1.330055885443980068e-01
1.327347833543955358e-01
1.650930844864749447e-01
2.321180240361211677e-01
1.997592819774659245e-01
2.221395054935396407e-01
1.212747829950464318e-01
1.305378955247977202e-01
1.946755087981913712e-01
1.469169897961448423e-01
2.098234489450795381e-01
1.422117435621776949e-01
1.396421576247879881e-01
1.600839996304780355e-01
1.173241190006030360e-01
1.577184753075872026e-01
1.462646728997560042e-01
1.688523470112870128e-01
1.937335443164780180e-01
1.824714900068927503e-01
1.883763510519305961e-01
3.068956308434201974e-01
2.254638136020499783e-01
3.377179705646643493e-01
3.718087007114395659e-01
3.645410227753072552e-01
4.587279935036351342e-01
5.709431056569101992e-01
5.413773453651213874e-01
6.078206359585801577e-01
6.739301650241683594e-01
7.344108541861360528e-01
8.271106073826252070e-01
8.484906729950066895e-01
9.517004626253179334e-01
9.898902610713308237e-01
9.417314483400922587e-01
9.899243357668493504e-01
1.047585023975697860e+00
9.713755799691062842e-01
9.154352435062440563e-01
9.511927956075540980e-01
9.126447394291542503e-01
8.297973817859182200e-01
7.955198824413113323e-01
7.316400674792973291e-01
6.986127235004958580e-01
6.196106957243554536e-01
5.262707068938760058e-01
4.578231254953034624e-01
4.171967051042277941e-01
3.371053544229396515e-01
4.236140870325285079e-01
2.518617263279890883e-01
2.219918655622445114e-01
1.867359544419117390e-01
1.660673512115452000e-01
1.749601290389578012e-01
2.064784529141284741e-01
1.226934349121220486e-01
1.280174210581943306e-01
1.026182526751610313e-01
1.143502414045804161e-01
1.393118081208296333e-01
1.481424551094147890e-01
1.535020553730466197e-01
8.481709420922615983e-02
1.248651506989020554e-01
1.256429308866692240e-01
1.451062015714253417e-01
1.218083792914739921e-01
1.257674801926771391e-01
1.485825920291911906e-01
1.522841339962113238e-01
1.391677757605699617e-01
1.894997142516188782e-01
2.049591701283920153e-01
1.327106763676522139e-01
2.100100236033269618e-01
9.299466404975165190e-02
1.656810641086842728e-01
1.986176507700306015e-01
1.771827609581398399e-01
1.600701331606548261e-01
2.068799390654590675e-01
2.286294180120787556e-01
2.356410262307107317e-01
2.399706529228867735e-01
2.748520414556626656e-01
2.240804165209368815e-01
1.691468397376132970e-01
2.501274542251349930e-01
2.483049602611933082e-01
2.706134198692790593e-01
2.444412988480974269e-01
2.487320694572805191e-01
2.782711586570245088e-01
3.054297995102932539e-01
2.595059015869427554e-01
2.351330012229047584e-01
2.665236573047466972e-01
2.192251951213178007e-01
2.256431318062055713e-01
2.916589478836175142e-01
2.739441416991031941e-01
2.053381769649423316e-01
2.843668566034802669e-01
2.363841026212721574e-01
2.362278659955170668e-01
2.183479444899701916e-01
2.308498130806285742e-01
2.272551962916728452e-01
2.639335266920787570e-01
2.021824548766866236e-01
2.098695877725691161e-01
2.223953485174536004e-01
1.599236028998342329e-01
2.414654190270598966e-01
2.064708014083591892e-01
2.579728923524558515e-01
1.702812677116597451e-01
1.874978563614749516e-01
1.746926757045970113e-01
1.597491254050471265e-01
1.813974791054678848e-01
1.317352964105427959e-01
1.722714728834955911e-01
1.554307375485876330e-01
1.321191987068205398e-01
9.628340899394244312e-02
1.824760572439504125e-01
1.301224258539873391e-01
1.613374053246464379e-01
1.152680732848171824e-01
9.481444378892937841e-02
1.184181875215808422e-01
1.115180662274022905e-01
1.361825809093502315e-01
9.376080522911318937e-02
6.772963283483317276e-02
6.073212324990210492e-02
4.128695982598400843e-02
2.840544441514907675e-02
1.347633956143521328e-01
8.495129867868350670e-02
6.413393274512775577e-02
9.790564385770908137e-03
2.991394729871640207e-02
4.755781632465923281e-02
4.207408928192397229e-03
4.036259994928211026e-02
6.586973556548227082e-02
3.976253824342950577e-03
3.793457045840409325e-02
3.464834500584549476e-02
4.684655371429336662e-02
-3.703249214866223549e-02
-2.326615793857218090e-02
2.922730977675120842e-02
5.552994488556970559e-02
-1.153613433209401719e-02
2.721795224442387362e-03
-3.479529704952374902e-02
5.205467167772835635e-04
3.463450725820764464e-02
3.907742008565738556e-02
2.656528092269282160e-02
-1.172967340743236164e-03
-3.244244248688721299e-02
2.524365332267236930e-02
1.063675766067806450e-03
2.394023417055322900e-03
4.217688476208642651e-03
-3.125085912000655219e-03
-3.013941104890944730e-02
-2.004635706193568997e-02
-2.656799805072941958e-03
6.947112299067352559e-03
-3.503473308062079322e-02
-1.381103354828632987e-02
-8.852976648508620316e-04
4.878339489341443347e-02
-4.940776031556945447e-04
2.583007853519422511e-02
2.391880652706228350e-02
4.546446041885802980e-02
7.801501474336809683e-02
3.068673961529656130e-02
1.705208884555549712e-02
-1.917828157016848722e-02
8.054779094097744979e-03
6.869333182397022175e-02
9.405065495231082484e-04
-4.020864692419582470e-03
9.328149521205883477e-02
7.383985437785348105e-02
3.039825575322342363e-02
7.142095398524309080e-02
1.136510302076529227e-01
1.204331505197620555e-01
9.270026531258153402e-02
1.913717916197038571e-02
1.254317117950221605e-01
9.768893739750440786e-02
1.056319449021191070e-01
9.203648112569584594e-02
1.292408115782208711e-01
1.197397985924491676e-01
1.257280659601589246e-01
1.653861209829702861e-01
1.339802071824088003e-01
7.656061583229324674e-02
1.920759549539109434e-01
1.286024587912793782e-01
1.478485958936892053e-01
5.810486422396760747e-02
5.182210561193162368e-02
1.383830974930109203e-01
1.348114736675812553e-01
1.704308715340303593e-01
1.229810939341330067e-01
1.157411495036854837e-01
1.108386736944273060e-01
6.858451887499608657e-02
5.646096218294151259e-02
1.520209627201572489e-01
1.046822548694373717e-01
1.420670672732450568e-01
1.038569022430370220e-01
1.111267396496534443e-01
1.489975638173889061e-01
1.271373558806824788e-01
1.268603897629650423e-01
1.685952638229770706e-01
1.609727220179066887e-01
1.998728255990450120e-01
2.515994912254864713e-01
1.739188885891308489e-01
3.240370232597197253e-01
2.857177912815735410e-01
4.029692185179118979e-01
4.039334581016286729e-01
5.237654931649927681e-01
5.978041493444913312e-01
6.609676968496180915e-01
6.528567232359597794e-01
7.413151858115534232e-01
8.907978267136925643e-01
8.911340254177881892e-01
9.117064685598876839e-01
9.893827018149878860e-01
9.570084322816172495e-01
9.817859071591600317e-01
9.643810527726994763e-01
8.833468811959527267e-01
8.705539640917966393e-01
8.767018946488119857e-01
7.911306707157492735e-01
6.785052081399398638e-01
6.839828512954381212e-01
6.199983321550327497e-01
5.520314320273942421e-01
4.976103732247713074e-01
3.714635042908023266e-01
3.564921298651310133e-01
3.050964305943936195e-01
2.410510765614941320e-01
2.226134536066499969e-01
1.567618427620913746e-01
1.539053215329226343e-01
1.599081985405189088e-01
9.184468674529275289e-02
1.090834742630792664e-01
9.195783279894537143e-02
7.575017773415360089e-02
8.930722323092210591e-02
7.359026562120712933e-02
1.113775188297103785e-01
6.795326403750404087e-02
1.010479946600258139e-02
4.987857939165235566e-02
4.300769656078520797e-02
7.505312026419977411e-02
1.034081619247193412e-01
9.495149454548235113e-02
6.678205494370775819e-02
1.392496120965422968e-01
1.213225471156508806e-01
7.687120843085981647e-02
1.010296880600325964e-01
1.248619581169955195e-01
1.530637950783036161e-01
1.641421118959364711e-01
1.554303489449206377e-01
1.225069841358396860e-01
1.156433329072025784e-01
1.838374989137789850e-01
1.991548992729693657e-01
1.851394399739588470e-01
1.500645390945859747e-01
1.665914156793542045e-01
1.827453499964589445e-01
1.917674883418583331e-01
2.527554050351679127e-01
1.427894712664037336e-01
2.150169743353777529e-01
1.908923411438283313e-01
2.038621226174847090e-01
1.518631128076176340e-01
2.420835238206876516e-01
1.721504977363048638e-01
2.194605879520514502e-01
1.857847170672699000e-01
2.526840197716967995e-01
2.268614558785972402e-01
1.979805036039516408e-01
2.130523509664700721e-01
1.928570609246375300e-01
2.055208365821520333e-01
1.966145684015846995e-01
2.166846769264397510e-01
1.832291854544432774e-01
2.010134417053983102e-01
1.473659773617433666e-01
1.612680617966388286e-01
2.217640157915244381e-01
2.107031221942215760e-01
1.635541482719851669e-01
1.788779531148542157e-01
1.717910126607854748e-01
1.841013057901688121e-01
9.616202183952762828e-02
1.122935934899791099e-01
1.211685166681150949e-01
1.228785610302179920e-01
1.280948552227328952e-01
9.916675486021553354e-02
1.246742060920500855e-01
1.422895450043067112e-01
1.298961783648660551e-01
8.537862306598612006e-02
1.620017885582930861e-01
1.164775687152707628e-01
6.306957901627287255e-02
1.412637637452230643e-01
5.888625130096126342e-02
8.932019445985353578e-02
1.069265442349836004e-01
1.104259564830485235e-01
3.271800150130436957e-02
4.420328358997642482e-02
8.062186767776569063e-02
4.662127640681607010e-03
4.924482628150542163e-02
7.378682652740220504e-02
6.151112598631841566e-02
4.303933011044563245e-02
6.799542684871440201e-02
5.250285496383491624e-02
-2.767723856991274184e-02
1.928118833355321748e-03
4.545797525720824545e-02
1.309475718742381806e-02
-8.565046583599578156e-03
3.742084437108314510e-03
-9.041752976165079447e-04
-1.312377497149568029e-03
-9.932887819223405745e-03
-1.082701473978985307e-01
-3.335590637429385052e-02
-4.354542085009535657e-02
-3.846598474250791100e-03
-1.458538979118684936e-02
1.717491655778585757e-03
-4.749450756640181959e-02
-1.528211633946249121e-02
-8.831567738169851522e-02
-1.583727851273350473e-04
-6.167484141664242303e-02
-3.666314799194265311e-02
-5.437449707743609306e-02
-1.385251166988805960e-02
-1.450543900326705521e-02
-6.267279373067054238e-02
-8.510449651153571826e-03
-5.683251326380589497e-03
-2.663214839051041699e-02
-2.919049867049788513e-02
6.091421060446848557e-03
-4.324136224545874208e-03
-4.279174678671955612e-02
1.411352897988382704e-06
-1.803801028554637836e-02
-5.987548279579846255e-02
-2.048537169841097016e-02
-4.466136290897787520e-04
-3.180235693182233148e-02
-5.706038577326220940e-02
-1.172666311930336408e-02
-2.090872234409143007e-02
-4.889946518328118497e-02
-2.803868059480798050e-02
2.431262551069626743e-02
7.570479554074346917e-03
-1.269723207037588841e-02
3.076093294279963475e-02
-2.129348607843195573e-02
7.716701246229848432e-02
2.084309470729345248e-02
-3.662387359426637345e-03
4.982333039814650089e-02
-3.013032897394483933e-02
1.382604955317112000e-02
5.424287116881459925e-02
4.774277962024649213e-02
1.452315100905701706e-02
1.041308888662045018e-01
7.766037320126312204e-02
9.569773858744196060e-02
7.724197657532039241e-02
6.556545310696812456e-02
5.342073089087045340e-02
1.111101142618042270e-01
7.495944152989479636e-02
6.166081320217638856e-02
7.466849875368253286e-02
8.737145639760299232e-02
6.932882478383403657e-02
9.540246201648927560e-02
8.849657867773971787e-02
1.111892233660245755e-01
1.080380829740087978e-01
1.638196637067319827e-01
1.427516525320122742e-01
4.325945469387566800e-02
6.030629499907281393e-02
1.590095246058289002e-01
1.339020444873274540e-01
1.107826662928788480e-01
7.307174322197296235e-02
9.402717031636058376e-02
8.191191291629756899e-02
9.131018562272921746e-02
9.637400770145977680e-02
9.637163125973548239e-02
9.046541236355806759e-02
1.316740378708633752e-01
9.571357296919262569e-02
1.504128152664351847e-01
1.652293574039893909e-01
2.143729470701004058e-01
2.714734131752910562e-01
3.063211939785127624e-01
3.557569068360445508e-01
3.896871679486619833e-01
4.256548049858690508e-01
5.038526729577337271e-01
4.984357478176971723e-01
5.766102310208865989e-01
7.031941855294713273e-01
7.805583786852300365e-01
7.230937638251129229e-01
8.464313750909271405e-01
8.785693186447256497e-01
9.541271671146854816e-01
9.128283793535503232e-01
9.259974093949772112e-01
8.871716365293570439e-01
9.265943280490647194e-01
8.674037982411734182e-01
8.589619839977411520e-01
7.807845250634900536e-01
7.158223268394813266e-01
6.823662286557254930e-01
5.875578053891942210e-01
5.305996635855113608e-01
5.004044752702716536e-01
3.833467810377632068e-01
3.786441265303341908e-01
3.297334780260162690e-01
2.801665359733503946e-01
2.318128249009053232e-01
1.588312535793265645e-01
1.600624330345534196e-01
1.182805252802860696e-01
1.317942452100133444e-01
8.345981887256628817e-02
1.090570398678201713e-01
4.225698197968677516e-02
9.508026082115485222e-02
4.956961907875433865e-02
8.431900794832582202e-02
4.812829259246773073e-02
8.293076901950892366e-02
8.161402567532760610e-02
1.159143965347258221e-01
1.109728915945751571e-01
5.304075253620916391e-02
7.475814193053245682e-02
6.437974636247481564e-02
9.035823042859644771e-02
1.286342984134421774e-01
9.381877576458266810e-02
1.337013096827258107e-01
1.161607000936075995e-01
1.129354754742262212e-01
1.004627428856356419e-01
1.423420539624860870e-01
1.722592774882441835e-01
1.634838795124904653e-01
1.495862039102864305e-01
1.930759124464051235e-01
1.637574363942989886e-01
1.709224192821957589e-01
1.537446985342890426e-01
1.636774520055324644e-01
1.678446342357959309e-01
1.770162768835435441e-01
1.535808596309133633e-01
1.946619023251875691e-01
1.789729424290886217e-01
1.892857052090019809e-01
1.901223479962753093e-01
2.286971137217977401e-01
1.873249670058496352e-01
2.035885550295432334e-01
2.290940805998920582e-01
2.060623147076608153e-01
2.229112382876980714e-01
2.584895682785435245e-01
1.736542097801447582e-01
1.834089233869402868e-01
1.961568713335040681e-01
1.617618940727105492e-01
2.172682076843417687e-01
2.115867071959917078e-01
2.197142734106192485e-01
9.923539471820684577e-02
1.975561055730464532e-01
2.212807488533225508e-01
1.610313946175203625e-01
1.887956282241618766e-01
1.356899618678415742e-01
1.863122534551524545e-01
1.765959529186081345e-01
1.859829271462098144e-01
1.476932527595551659e-01
1.622617147767429213e-01
1.160285545039858590e-01
1.529623975525181423e-01
9.395470419480633772e-02
1.425448661979348830e-01
1.896693180883040064e-01
9.714243674978723098e-02
1.384769060237124316e-01
1.642114114642259093e-01
9.187585449656884840e-02
9.585642599140531406e-02
1.173906031093670255e-01
8.697804371006241653e-02
8.029379729307484226e-02
7.371686404664543057e-02
7.850416256191494746e-02
-5.195657223064344132e-03
8.150077275343768635e-02
9.033454032869205064e-02
6.082831964314244083e-02
1.110461608677898449e-02
1.333385931346103837e-02
4.865712218590004939e-02
3.456081509448430400e-02
2.370528521759040358e-02
-3.822674782766059126e-02
1.352661179829469512e-02
-1.938373081987562752e-03
-3.674700445265625948e-03
-1.072955112345264084e-02
-9.012132473536681176e-03
2.993601473401789198e-02
-1.297178639096494002e-03
-2.541620944611315894e-02
-1.049804055214979825e-03
-3.209610482228716921e-02
-2.348254473724642813e-02
-4.423411740481470594e-02
-3.796185397740024781e-02
9.607298846082829025e-04
4.407841955799064043e-02
-2.199108901319602599e-02
2.985928878844551493e-03
1.367398107248679606e-02
-5.365228685617453447e-02
4.483597025403680131e-02
-1.814176282982860738e-02
-9.797834047339602781e-03
-3.759084707449126400e-03
-1.201703291558559386e-02
5.715740428442441651e-03
6.048557671952922710e-02
-1.921599809716257809e-02
2.363254008398794903e-02
5.278586132119608698e-03
1.060341801438136750e-02
-3.082624783727867454e-02
-3.266614914786812596e-02
-2.921473738230026540e-03
1.560512203546354781e-02
-9.786637445229999510e-03
-8.565621600155941262e-03
-1.323066646792075626e-02
1.560704981252523244e-03
-3.766092628672447484e-02
5.202635487354848043e-02
1.741891874489664982e-02
3.895457248140045403e-02
-1.686452847883496142e-02
3.764517243748852909e-02
-5.954458695171749305e-03
3.587816082053547906e-02
8.381481340320010021e-02
1.600226243823651973e-02
4.518007937570950316e-02
5.559132605982922137e-02
5.092125544078746069e-02
8.395373123035566876e-02
5.246419442224239948e-02
9.001650901921062764e-02
9.226228579074813307e-02
1.045717934373452673e-01
1.286332240596723131e-01
9.563586026616621716e-02
8.963782411262057048e-02
1.490124661067648570e-01
1.364170760699929819e-01
8.316588543507257014e-02
8.649285025888918399e-02
1.259168761949320814e-01
1.044436010992673136e-01
8.572588339441299110e-02
1.474081825004214252e-01
8.630051136158058134e-02
1.404158199202455715e-01
1.219095651730433272e-01
1.617201330112961188e-01
1.091261929008144893e-01
1.680220809212044919e-01
1.271929369621427053e-01
1.307216467292434403e-01
1.370041822115065366e-01
1.028317049367135361e-01
9.475109901778350219e-02
1.700231548939150628e-01
4.761311000304616070e-02
8.037756684056132639e-02
1.642293974561342684e-01
1.425177839946572544e-01
1.444681480516742389e-01
1.038013563107505199e-01
9.749055051611138500e-02
1.517581526201084441e-01
1.149288762872474889e-01
1.763786916667855198e-01
1.635414468269092703e-01
2.190933818664950183e-01
2.389741497154684868e-01
3.134368397814542018e-01
3.403832610050818719e-01
3.984114675159845520e-01
4.255042530555657732e-01
4.642340138995757481e-01
5.579666444778577095e-01
6.137785402651152467e-01
7.028886842837310800e-01
6.992922875239611091e-01
8.035033170344765274e-01
8.090836467546539401e-01
8.328429618156069081e-01
9.450066171684647909e-01
9.375154774548446479e-01
9.713521825150298605e-01
1.012222231238092851e+00
9.648269268422994260e-01
9.435212420947924894e-01
8.953695415292024506e-01
8.541614969024678983e-01
8.526629739750896109e-01
7.781149936912534759e-01
7.252264492428257547e-01
6.666000571193320123e-01
5.993874883427626754e-01
5.139703982360283030e-01
4.446542402312936848e-01
4.123737808150194084e-01
3.658704725928793589e-01
2.675519698496448551e-01
2.527029692847962972e-01
1.600146410259627450e-01
1.221507825672960568e-01
1.812324053759069575e-01
1.528147726159396202e-01
1.683758184593884266e-01
1.124034004003635484e-01
1.273821777829803603e-01
9.359079615416257547e-02
1.109916471473288979e-01
7.718966422310404030e-02
1.298056962428282834e-01
9.672865334428093487e-02
8.735457491019077425e-02
1.256658195259901800e-01
1.432746077582419120e-01
7.558253700402758901e-02
1.743456132246709589e-01
1.245025487025329114e-01
1.284098506836805487e-01
1.309940567107028830e-01
1.161921936505402597e-01
1.719711636633337870e-01
1.506192090600063649e-01
2.151870186223754366e-01
1.546219532417134612e-01
2.248280931189896581e-01
2.264788143038818924e-01
1.596014558356071145e-01
2.199837271942337302e-01
1.925686980884858679e-01
2.247278938864913089e-01
1.867066799575605451e-01
2.134554555431761869e-01
2.275846013213807806e-01
1.912370539679712766e-01
2.338403712444767357e-01
2.399058290452145970e-01
2.263198155980190585e-01
2.242255670774761789e-01
2.294013853992333540e-01
2.061793684650617409e-01
2.528348921095496249e-01
2.030419724221627642e-01
2.350486617631035446e-01
2.114153992486833833e-01
2.532744353008575255e-01
2.505289560293141871e-01
2.263103794038601735e-01
2.726146187914436081e-01
2.911935464171774846e-01
2.392960417076289981e-01
2.611701249484978393e-01
2.047425291913673173e-01
2.919007695076554776e-01
2.974347293934358483e-01
2.725788416397886271e-01
2.366374838254654833e-01
1.853850381466530250e-01
1.990453002708314767e-01
2.705511492941400919e-01
2.179770098333311812e-01
2.551748080035727839e-01
2.280897256370653658e-01
2.435803211769773380e-01
2.133932949653180311e-01
2.368836594072492863e-01
1.890079171753286102e-01
2.354669721572857366e-01
1.870923075601937380e-01
1.532669996136516721e-01
1.658302063373627289e-01
1.666679711569115652e-01
1.481329769557156451e-01
1.384017253182337759e-01
1.708075259260028456e-01
1.467284439800929097e-01
1.508618826722777362e-01
1.229463042526900002e-01
1.229287440565057510e-01
1.313630847055948514e-01
1.401368272440291773e-01
1.128689464367486350e-01
8.126701689486338920e-02
9.652537990182842587e-02
1.594162727258417733e-01
1.205036863872400721e-01
1.072390925095417502e-01
1.271754200467393181e-01
7.332064185654553479e-02
2.274617665222524246e-02
6.728501298475614290e-02
7.818986382066814289e-02
6.618016646188631946e-02
4.325858280066345596e-02
8.518134999715909483e-02
6.945450230352925858e-02
9.790809129434979718e-02
3.016353377325901863e-02
6.432004364339072300e-02
-3.004335865294124885e-03
4.243699879405554709e-02
7.330172944296516058e-02
3.260370880666333543e-02
2.272938719535916655e-02
4.791046326207272499e-02
9.632742082465396705e-02
-8.761071803976599320e-03
6.575778711658447628e-02
6.383473911492830444e-02
6.157281625023480753e-02
1.584318010027399581e-02
2.329522412857058453e-02
-1.491604667332224049e-02
4.920466712182737512e-02
3.972640087360073541e-03
3.752129883547183214e-02
-3.908374847515362627e-02
4.899119632880381825e-02
4.735404946492699496e-02
5.950164797105422787e-02
6.389097025087427106e-02
5.846847821534376100e-02
6.596044527862968132e-02
8.261756793022502487e-02
4.430163674918885519e-02
1.304546033697949192e-01
5.822758083205728519e-02
3.841938668215407610e-02
-8.200273526026195803e-03
5.897853421547104985e-02
1.023853329324011657e-01
2.203277989962755187e-02
6.854143518968031090e-02
6.666357057595959090e-02
2.301626209993790084e-02
1.133937975518371222e-01
7.915379180558734795e-02
3.304883568774360375e-02
1.103030004716938350e-01
6.829305838763788383e-02
1.464382547383919764e-01
1.012126176543847039e-01
1.033577809545648263e-01
1.504432573694895192e-01
1.178017936242654468e-01
1.528294273017707094e-01
8.746208152002458991e-02
1.717742423311774402e-01
1.072213327633383534e-01
1.313593122685692560e-01
1.073529387053423767e-01
1.564108913686773905e-01
1.305771741596974400e-01
1.554751046588772334e-01
1.904858963662763305e-01
1.578405923738268046e-01
1.834709040494601762e-01
1.705615558334526993e-01
1.736112737016520247e-01
2.123953599119509650e-01
1.918500321551087628e-01
1.970654958587735317e-01
1.403746107375264951e-01
1.768678763326639869e-01
2.060970646210349977e-01
1.456128078714702401e-01
2.204087252856321566e-01
1.865050794184783811e-01
1.748895642962678687e-01
1.901099583303445251e-01
1.668941087465785067e-01
1.806359191275551945e-01
1.935996618636792177e-01
1.427982819792138758e-01
1.627344274437176053e-01
1.649717810810135410e-01
2.140376537459436901e-01
1.718382568290175438e-01
2.000823968779528728e-01
1.553944425250623484e-01
2.116053179838386089e-01
2.502679258507842230e-01
3.058560091259657776e-01
2.968795598766656441e-01
4.307708048560447978e-01
4.743397460534999888e-01
4.757819840643534026e-01
5.378967248681709723e-01
5.387844124068820184e-01
6.350412886202349005e-01
7.355066135931370708e-01
7.978592215879234395e-01
8.609380139567222034e-01
8.787389813897992230e-01
9.277128103277121340e-01
9.739959460494083121e-01
9.991409023877698692e-01
1.045833319874418521e+00
1.015060727330918011e+00
1.037634840440671447e+00
9.782048947950626738e-01
9.614375586660105499e-01
8.826764886462477033e-01
8.174734668859300335e-01
8.244424973368552623e-01
7.212929572595385697e-01
6.663304784262553682e-01
6.307886707608364452e-01
5.567581609127737474e-01
5.418754145462383320e-01
4.256360277816299553e-01
3.993074047379669422e-01
2.855801050519438666e-01
2.029712951397116827e-01
2.717137185292151647e-01
2.596172101022556356e-01
2.069753679442507266e-01
1.222951095794132387e-01
2.122875469100278245e-01
1.264235618000742467e-01
1.486581402088855697e-01
1.566811996822559117e-01
1.428341655789205911e-01
2.233656543254214089e-01
1.439703300089900939e-01
1.399206212411368000e-01
1.150282140375238349e-01
1.367855288838825678e-01
1.541669924807763103e-01
1.375619717642931061e-01
1.909701492853485005e-01
2.405069914467112269e-01
1.955891840159152406e-01
1.387445839258953650e-01
1.900930255521521839e-01
2.212817438060760700e-01
1.903219456270069387e-01
2.334241692662794576e-01
2.020453747323673610e-01
1.582721284051392119e-01
2.097206306883598326e-01
2.318137890645243504e-01
2.818176350064328095e-01
2.197456388144711781e-01
1.981239579025179942e-01
2.010772285088119338e-01
2.654137427948760064e-01
2.886874440398480846e-01
2.634676706592194440e-01
2.532568144784831388e-01
2.784587774792215420e-01
2.640822182775650617e-01
2.621557075710918561e-01
2.548242407229149298e-01
2.664707494713394187e-01
2.948932086113136841e-01
3.186432532843442855e-01
2.964269172819509190e-01
2.869913964584608901e-01
3.222168988851078497e-01
3.185703896929850121e-01
2.688305903456860158e-01
2.985987782133796564e-01
2.888901406806545502e-01
3.240019247121086465e-01
2.931663244633206933e-01
2.768738439155578046e-01
2.502699961394701522e-01
2.772933758296042273e-01
3.139225827160503912e-01
2.907169265018921811e-01
2.834950284989253277e-01
2.990710510199716676e-01
3.015101584169855853e-01
2.663041715873354365e-01
2.129387243123864459e-01
2.060397442253372458e-01
2.504895888230272982e-01
2.552201893731746440e-01
1.975756694122079160e-01
2.224589714653514294e-01
2.591250623482654891e-01
2.081214330769753373e-01
2.993784400717414695e-01
2.464510539460347815e-01
2.074753089598286859e-01
2.519518876308454725e-01
1.718091066085445928e-01
1.804049494339376447e-01
1.968821451501650277e-01
2.060737866597727175e-01
1.526379140968345538e-01
1.735642183070851274e-01
1.317824169606811036e-01
1.509534882751006057e-01
2.113219544045984721e-01
2.065287980493241693e-01
1.311016550859945839e-01
1.636778638871659031e-01
1.330774525552763654e-01
1.185886124426297067e-01
1.000803175607564988e-01
1.216023412654875235e-01
1.782901503161251067e-01
1.009340670782709337e-01
6.219961507185917809e-02
1.597709838639300162e-01
1.372343608629460476e-01
8.068177365209563967e-02
9.877998865094159142e-02
3.218641882986594815e-02
1.319681916582182424e-01
1.141672559679707405e-01
9.822488295100281763e-02
1.173784084760704505e-01
8.251238784580863794e-02
7.107622973458610494e-02
1.284302714525178413e-01
2.414953831293304570e-02
1.166164039994272705e-01
1.010321585290703539e-01
6.568615696286791983e-02
9.959474527448662629e-02
6.852159326883436319e-02
6.886224846245078690e-02
9.283348886238146358e-02
4.859771337944566311e-02
1.044735125955261745e-01
7.942143040848713420e-02
8.743693226444437805e-02
6.184937242897303733e-02
5.865807708232045892e-02
5.198556118277688348e-02
5.404908820681197934e-02
5.968660428388395528e-02
4.472595515607689920e-02
8.964226563394139813e-02
7.218866825530184661e-02
1.020778560371126686e-01
9.307037430649778287e-02
5.777355362673551598e-02
6.870492189183292908e-02
5.746947508125882509e-02
7.940787870562995843e-02
4.592498603436459548e-02
1.219631353461820833e-01
3.885389466107038586e-02
1.217262146630087583e-01
1.081447655949477615e-01
8.936674644001998957e-02
1.106615572697394745e-01
9.571373364051613541e-02
1.129322143822778929e-01
9.462387445426692634e-02
1.746597028842843957e-01
1.408765995130256687e-01
6.755664270354726220e-02
1.507390772904430576e-01
1.680659015411542778e-01
1.789365727538753947e-01
1.312426878864493274e-01
1.429977824669101671e-01
2.060243165960587430e-01
2.042812221926523231e-01
1.794849094258369193e-01
1.475289069564286182e-01
1.260128676733074937e-01
1.635227464716448309e-01
1.893990953221489915e-01
1.871736041510474458e-01
1.944005699615297678e-01
2.131014572520645023e-01
2.065218662461417720e-01
2.130384001923678605e-01
1.355501991292146491e-01
2.129357681627397914e-01
1.837039842185380634e-01
1.974507301292344752e-01
2.119882292851292538e-01
2.021443582679963158e-01
2.178738581475205549e-01
1.815171156456306667e-01
2.031554905782638198e-01
2.138355725038910693e-01
1.600183880596982022e-01
2.175756163762354034e-01
1.472943632142882930e-01
2.003604340692269337e-01
1.231961137488083724e-01
1.916452618963451204e-01
2.074119484648186407e-01
2.279522262649913977e-01
2.201200911344522448e-01
2.215783967564894930e-01
2.810457166062856338e-01
2.934081412809585454e-01
2.928408684888293978e-01
3.922711009367828572e-01
3.576437658371675044e-01
4.096260836224546176e-01
4.945830913477733959e-01
5.414761993931814787e-01
6.266386261645571221e-01
6.548540086268901383e-01
7.385558027576727413e-01
8.246937720181295450e-01
8.164401651825453632e-01
9.392123246221758537e-01
9.861948873202937005e-01
9.882247147851725977e-01
1.025228840566593025e+00
1.043014108060596135e+00
1.023330077218966183e+00
1.016141228500230920e+00
1.045283500623290118e+00
9.902340123686884654e-01
9.044271315472652839e-01
9.184255907413931830e-01
8.594638116919176563e-01
7.791035896162840091e-01
6.825960570423156293e-01
5.993624602645561961e-01
5.549152155644515583e-01
4.979217351469472086e-01
4.474774764126181470e-01
4.172487809680618387e-01
3.456284378120570988e-01
2.856029539286744079e-01
2.727704492793785462e-01
2.855771637850186284e-01
2.695369261653791093e-01
2.256769025102750570e-01
2.013370248640001248e-01
1.938214765297949504e-01
1.784353358090721431e-01
1.422174065014365496e-01
1.324878505179788168e-01
1.644224559966720456e-01
1.680817550494067281e-01
1.624796998722611852e-01
1.058534157545787946e-01
1.269685297880329966e-01
2.125431565974540693e-01
1.018298053512286111e-01
2.001987172624606903e-01
1.295374659505434400e-01
1.750048417413176405e-01
1.351172554729221931e-01
1.245376299460297931e-01
1.573311271064324890e-01
2.219331794988946283e-01
2.059733517001453018e-01
2.773769962875834438e-01
1.654567370740890608e-01
2.208844956263752157e-01
2.609191273336723405e-01
2.228331090051399455e-01
3.104609942100299280e-01
2.740427650808479609e-01
2.736745480749602222e-01
2.605770238696437091e-01
2.572386695180770566e-01
2.697780215738594944e-01
2.745346429305045577e-01
2.720254488917874247e-01
3.128824574402773173e-01
2.431769264753867454e-01
2.787098335064837618e-01
2.520565556929555973e-01
3.079118148338782501e-01
2.418225447045646570e-01
3.158907247795866846e-01
2.983071525119707634e-01
3.204510626176129140e-01
2.812453059611872419e-01
3.219879918972168853e-01
2.902461314867711417e-01
2.773418215129388464e-01
2.690848922167994317e-01
2.987444630412641744e-01
2.766452735897457216e-01
2.692401132341088466e-01
2.472547204842822643e-01
2.965620979854781680e-01
2.444141727019428223e-01
2.508213033263933522e-01
2.605910052109496333e-01
3.164107122378586601e-01
2.367225736109702661e-01
2.272158998095892279e-01
2.662447825189052097e-01
2.365543302313095342e-01
1.919320300625032560e-01
2.587541221938068348e-01
2.328130065161249374e-01
2.429305688693060017e-01
2.103024157701572083e-01
2.466824822168111053e-01
2.065011988047193991e-01
1.938094862444116329e-01
2.057104987816881225e-01
2.066391670731287378e-01
1.382493144640501437e-01
1.551762582741817720e-01
1.765709902699658385e-01
1.555777501853494449e-01
1.427294437678912065e-01
1.207490882426444923e-01
8.518660975659883561e-02
1.601700861156462596e-01
1.088551935724768327e-01
1.026644514559511001e-01
1.100030506157268079e-01
1.033381559372949232e-01
1.003919132775741851e-01
1.384507523022928954e-01
9.115749686122967543e-02
6.071014194360151855e-02
1.275964595430855164e-01
4.719454207180798222e-02
7.634947191779331566e-02
8.471204728728549960e-02
5.954744089023202014e-02
1.337522797977434008e-01
1.307552159202956810e-01
1.395956831206442428e-01
8.086146217923062540e-02
7.534615489167047209e-02
7.507286494631083829e-02
3.076795978307771129e-02
4.780269840675153981e-02
5.128258421515662774e-02
4.674735077349014695e-02
9.182038787777092870e-02
9.245057449461317745e-02
3.845440968365985979e-02
-2.073075822233390667e-02
1.148402121653895047e-01
3.749802044407451324e-02
3.817473072258514843e-02
5.164001266630068032e-02
5.115658706672840395e-02
5.617478883651268184e-02
2.429359597361805886e-02
7.382540499158758707e-02
5.618740640225085292e-03
-1.536187875074538495e-03
1.321490670340146056e-03
1.094246947428153954e-01
6.799665165945020795e-02
7.986537712912374076e-02
6.063149575720309936e-02
5.617499296032659600e-02
5.802323833242296197e-03
7.850141655003292640e-02
6.845118481972456426e-02
8.623337094182656482e-02
1.009686559546668916e-01
1.165428653062642178e-01
5.104974037234238926e-02
1.599543000662647166e-02
2.788945853665444202e-02
5.771324820307465603e-02
1.305148945328636900e-01
1.139280539064523590e-01
8.678654428859576553e-02
9.761290404589866021e-02
9.280098510609596785e-02
1.139965063250961974e-01
9.807442095158877549e-02
1.107637842734041089e-01
7.874208036928380394e-02
1.489073761509454585e-01
1.304317462199677258e-01
1.217763101657903246e-01
7.759896106452046638e-02
1.511913999965041056e-01
1.625465248637730786e-01
1.305429439379811041e-01
1.346953684645326998e-01
1.121889298043634436e-01
1.955405909030873135e-01
1.585884153172872901e-01
1.842630426738161575e-01
1.271311700408473411e-01
2.602549175810852655e-01
2.078239886195828723e-01
1.735440144645665206e-01
1.300183432689668572e-01
1.776697210003581329e-01
1.230341731942970473e-01
1.358212935448789849e-01
1.883129486820581955e-01
1.823245386794140332e-01
1.882508003172733979e-01
1.489956321476048895e-01
1.318993747277023842e-01
1.537755936806402268e-01
8.439043939888171697e-02
1.236276614489845022e-01
1.341696008176663790e-01
1.549407446937622890e-01
1.559008625406405335e-01
1.625589565294375261e-01
1.242066050811301697e-01
2.112088902813704094e-01
1.952719893370877535e-01
1.936608960383353062e-01
2.098701975943472742e-01
2.236557950158966912e-01
2.402676846697220925e-01
2.992219539123297523e-01
3.486726724267495414e-01
3.737540740804368711e-01
4.813187782881709897e-01
5.077263476718190116e-01
5.333271603184532861e-01
5.788266173777869561e-01
7.154589461376205106e-01
7.664000436899822688e-01
7.930838771798340847e-01
8.436447438746558225e-01
9.261470707649270828e-01
9.812796593441965864e-01
9.762700773991445091e-01
9.791727476746244774e-01
1.012278474800063277e+00
9.831372493340040375e-01
9.373115317510175570e-01
9.482723018018587302e-01
9.146279737012623645e-01
7.979154670957686601e-01
7.927475070618356101e-01
6.714655336747903380e-01
6.553396783664457992e-01
5.931876920886985927e-01
5.494085323520853104e-01
4.880547336528664459e-01
4.277615241054113504e-01
3.455942874978603641e-01
2.247441477101760343e-01
2.959180906770443320e-01
2.860116837342960849e-01
2.197194926672233206e-01
1.737841429278346450e-01
1.609683740487788117e-01
1.241939597249476918e-01
1.018702792910447796e-01
9.033807757936318517e-02
1.304450961250348540e-01
6.826565803485126760e-02
5.941278051039933922e-02
6.759017608757243722e-02
1.147129693506104692e-01
2.389253487867853964e-02
1.373939918371692159e-01
1.126657626962961484e-01
9.262163353817096101e-02
1.534737917666382512e-01
1.633389433466554408e-01
1.372224881619127645e-01
1.319123820574593098e-01
1.408714801329513377e-01
1.850420911820416237e-01
1.730954366181791104e-01
1.502665783454899817e-01
1.537199186783408389e-01
1.917165460820982326e-01
1.528987037374596736e-01
2.285725159102406367e-01
2.264664006410504193e-01
2.068769096390779272e-01
2.599855924832202847e-01
2.103627995843454501e-01
1.567367084676941635e-01
2.355497719827448766e-01
1.724848303525019499e-01
1.836265434883423975e-01
2.880786326094159078e-01
2.292513909443421871e-01
1.794494363529616776e-01
2.525336695640936213e-01
2.059525637288857902e-01
2.287456773926383191e-01
2.767854187607610150e-01
2.171071042981904120e-01
2.292136481617332855e-01
2.106879836495977876e-01
2.299487850409864254e-01
2.824082610174226127e-01
2.683400391675441754e-01
2.904835621688251490e-01
2.310628112410366142e-01
2.599971379531081928e-01
2.462104612319499786e-01
2.549095257590749952e-01
2.080233146176815873e-01
2.792936065989209404e-01
2.740870123235518707e-01
1.472465712129430448e-01
2.318272024339979587e-01
2.036789316491635915e-01
1.986880948644204892e-01
2.321806114194069903e-01
2.028204439141390869e-01
1.929000634900063793e-01
2.355425925943366305e-01
1.392600032884470929e-01
1.733939635820030412e-01
1.664930165675069240e-01
2.064785947411531541e-01
1.481764153828571406e-01
9.648149347247600427e-02
1.148405069117199306e-01
1.462052284919505563e-01
1.827784416211581386e-01
1.832019255321026274e-01
1.172032667138119683e-01
1.501646665589668750e-01
1.546030648486404480e-01
1.273137655017562708e-01
7.870997278373080552e-02
1.033211531471770472e-01
8.334649265556881570e-02
6.342010613653176199e-02
4.963039729741074157e-02
5.468523280014377097e-02
3.753518752771906053e-02
3.384769166876565316e-02
7.817446214123167925e-02
4.450833130913790792e-02
-4.631923362539168421e-03
3.415961603808659319e-02
-1.000751805321195911e-02
6.915069388672816231e-02
-8.050792482697544106e-02
1.890324148560749984e-02
1.441575044764587324e-02
2.967062992294525192e-02
2.159781104473612601e-02
7.424846164228529610e-02
3.382500923017123240e-02
-2.196427017232542925e-02
-4.025521727855314869e-02
5.890057029009429512e-02
-4.867821556716199483e-02
4.019593668471638237e-02
-6.768970387351753992e-03
-1.766092549061795691e-02
-2.395031808738188120e-02
2.118436945432415619e-02
-4.231843722844996769e-02
3.245229226883854234e-02
-2.962175633079520282e-03
-4.546086216855128870e-03
-4.880437827822628472e-02
-3.111180239033098371e-02
-2.400113165660626435e-03
-7.767060595378318805e-03
-6.945012715180796936e-02
2.435628591518461394e-04
-1.670642207884059927e-02
-5.109005263058598312e-02
-3.571684224198726221e-02
-2.902680451889255026e-02
1.283198614598151516e-02
-3.669297647058767514e-02
-1.768402067010122619e-02
-3.386957097796441940e-02
-1.699850971381764581e-02
-3.749512469215217358e-02
-2.109413146751868556e-03
