9.931688192519910752e-01
1.015450901313770693e+00
1.016308676368528507e+00
9.486193965437507147e-01
9.310159055814251072e-01
8.633733402819172564e-01
7.992858672082473470e-01
7.919084228587440766e-01
6.386156793063378911e-01
6.065664565147688148e-01
5.307554704922063937e-01
4.078553245966496377e-01
4.158469683861724109e-01
3.929516849338907658e-01
3.221386673214480245e-01
2.697110820017470378e-01
1.912172870283659065e-01
1.711059416355130702e-01
1.817316473862311821e-01
1.367778369261583582e-01
9.375827900078703703e-02
5.178517758095111528e-02
5.854817084324202142e-02
9.674738590883583123e-02
5.312524514131269221e-02
1.007111491641125567e-01
5.678591112786893907e-02
7.448783658429428134e-02
9.619510039486448005e-02
7.613151108354360153e-02
8.297044097917236072e-02
5.975796745423023193e-02
9.169254825823459909e-02
1.011860567360093610e-01
1.278090940465656522e-01
1.670340977465384902e-01
1.299862857835886454e-01
1.073759583325475941e-01
1.766389762798577789e-01
9.972918073665953953e-02
1.797406287521637891e-01
1.724230622070594410e-01
1.477127092408130893e-01
1.836703675767956678e-01
1.725843364090765553e-01
1.396663046028482902e-01
1.483077007544738035e-01
1.509806307540372539e-01
1.827025104967934521e-01
1.872767078089502824e-01
1.744042152287351155e-01
1.939087200305105174e-01
2.028011083514744128e-01
2.286145299715110490e-01
1.919498171248427143e-01
1.713827028392845842e-01
2.386694589835381963e-01
2.655072545870698630e-01
2.722723405928469953e-01
2.640580042306744923e-01
2.285625552316941922e-01
2.480707949010413915e-01
1.927680847723052260e-01
2.224421508791715185e-01
1.780955179845871428e-01
2.141923616087627602e-01
2.055653758536614972e-01
2.300746369186831841e-01
2.105144154688158853e-01
2.161261547552460749e-01
2.339489693859160835e-01
1.840866472343564153e-01
2.025907608612486643e-01
1.950469726739049448e-01
1.622019475559742241e-01
1.590692762302104712e-01
1.398642681594713943e-01
1.188779328572716620e-01
1.754231880833874713e-01
1.382572262433486854e-01
1.378963085622899876e-01
1.376412328552122921e-01
2.127174143620270130e-01
8.205417532950902426e-02
1.135284235850851364e-01
1.244970961992639819e-01
1.296699832079146464e-01
1.374169284788405720e-01
8.241957058282689541e-02
1.482130283663712911e-01
5.942920661598934118e-02
5.972912000979355845e-02
1.021778585258590333e-01
1.144834250395609654e-01
4.092578951337093318e-02
7.704400292450708232e-02
-6.374414265169076055e-04
6.691099148614733372e-02
2.676276320249582064e-02
6.382030634118909806e-02
5.504150908199687692e-02
6.910640436235379602e-02
7.671285050131253225e-02
8.309079995620000103e-02
6.828177173480935724e-03
-1.476359542448860834e-02
4.120990830301876628e-02
-1.810628212171760953e-03
4.868084150792609255e-04
-2.819348746655969684e-02
-2.478797831919155384e-02
2.224980543899161833e-02
4.051200327391334122e-02
-2.566496692265433921e-03
9.019071187383806421e-04
-6.201543746222673570e-02
-5.962455602368092050e-02
5.420898869966720574e-02
1.680939996588220325e-02
-1.779553371014979540e-02
1.816929932353605198e-02
-1.216885616422136440e-03
-4.175647756311993281e-02
2.033213564970557524e-02
-2.048509593772257498e-02
1.174229309576328012e-02
-4.252256140394162359e-02
-2.997644959385560928e-02
-6.243019969309059058e-02
-5.929823635876893539e-03
6.980733887269233162e-03
-1.920798385641344502e-02
-5.420296016263327632e-02
-4.171368804655109508e-02
-4.357304536008489021e-02
-1.321089433349682124e-02
-2.598590528734952970e-02
-3.962440357515562006e-02
-7.845696800495086110e-02
-1.457854328513653180e-02
-9.685171344500337343e-03
7.947056955268753942e-03
2.405050592081486166e-02
-1.479630647807134852e-02
-3.171700664658103075e-02
-1.171291309678993559e-02
-2.086692927791498550e-02
7.623247107785079135e-03
-3.523627546768767771e-02
-3.189830203543980724e-02
-1.076446517084768129e-01
5.385077078723168875e-04
-4.284163165102225501e-02
4.138093583990559016e-02
-4.152013267671790520e-03
2.865916112439014646e-02
2.544922942295883145e-02
-5.951325199706972158e-02
6.844820180203031734e-02
-2.321389308093493864e-02
5.434490125445840675e-02
4.651448578067257644e-02
-9.599419032868400370e-03
4.507459734733566814e-02
2.078388345626637490e-02
5.291200268372560356e-02
3.483746149619647986e-02
3.340313160845882756e-02
7.359565619588809282e-02
5.080543125373609969e-02
6.597419070924681606e-02
1.609102107602990717e-01
8.807042042902293866e-02
1.074419465414267194e-01
8.656215688515170315e-02
5.952450003156530695e-02
9.601262920521211330e-02
9.290909179657841355e-02
1.003236713025704163e-01
6.204000513688465862e-02
7.724874640313802998e-02
6.274972239875609148e-02
9.640206984514274047e-02
1.058191561512753370e-01
1.006252168939305303e-01
1.380050820840089398e-01
6.758257901285169567e-02
6.312614497326912710e-02
1.107686589766054275e-01
8.221959384240110080e-02
8.127902973434306122e-02
7.002806784372130056e-02
6.386511034088475369e-02
4.830383369217718104e-02
6.972561175923980281e-02
9.275618358685122633e-02
1.429568738197687372e-01
7.617796670731716291e-02
1.321043071384018774e-01
1.967162641332312056e-01
2.069576057196986230e-01
1.941136056256561881e-01
2.211730767050918145e-01
3.480848689901363535e-01
3.136527488116760409e-01
4.070076814522024522e-01
4.674669498607490481e-01
5.232851281945862798e-01
6.119568827956921586e-01
6.780791603266329570e-01
6.840201156029502849e-01
7.616123925855416976e-01
8.377992981061169742e-01
8.570240777843356472e-01
9.792170238193970144e-01
9.928788136454094193e-01
9.768192171205489771e-01
1.016589883719362986e+00
9.093017940932390797e-01
9.814257835600130875e-01
8.978412405308610067e-01
8.695083395829417139e-01
8.544849250475109459e-01
7.546393694671447161e-01
7.088319728710978929e-01
6.469466153493278471e-01
5.483851637890470032e-01
5.247410293272020132e-01
4.744194870165376887e-01
3.532111731231019069e-01
3.241345959010702993e-01
2.835406762030844852e-01
2.888244477074170535e-01
1.966149363703547925e-01
1.420296704165621149e-01
8.948236750944478513e-02
1.121574067283903353e-01
4.812936014326833767e-02
8.487080102628541400e-02
5.087873446857957976e-02
4.929950704668711881e-02
3.158890013087679860e-02
7.724603528613149805e-03
8.153236645079704747e-02
8.737283023926434300e-02
6.627880294471533151e-02
8.366167919010764065e-02
8.804209135187870960e-02
3.776189769677767288e-02
6.679658365113864960e-02
1.091724367030631748e-01
1.284199877046587890e-01
1.053639172619646736e-01
1.129621028766640278e-01
1.236348886255033697e-01
6.462075000517213119e-02
1.259615966027491929e-01
1.571457232575489416e-01
1.133912344875299405e-01
1.545215221841670650e-01
1.238780033802528435e-01
1.756046213225629371e-01
1.665979710741092579e-01
1.567761753106132194e-01
1.681725334703433050e-01
1.584892575503527024e-01
1.548304593227848858e-01
1.593415747132829186e-01
1.800581358225040451e-01
2.044297143297491570e-01
1.151799080901129146e-01
1.213405497424528551e-01
2.055774487031897246e-01
2.216734075119602687e-01
2.460495719952572602e-01
1.532033656259615961e-01
1.853970211855837658e-01
2.204967698079186855e-01
2.107802474460336584e-01
1.586514596458075688e-01
2.654195900414967335e-01
2.169311589622327507e-01
2.380393079103421683e-01
1.697554841787512758e-01
1.632816370433399500e-01
1.943490210448859112e-01
2.193615657548804443e-01
1.852168922487013314e-01
1.993438023181125507e-01
1.898121690300029196e-01
2.023943965291972180e-01
2.291156229475122263e-01
1.640735621171640624e-01
1.573122156183900944e-01
1.824845355061673058e-01
1.455835091386935842e-01
1.813308093393470322e-01
1.660182917042700990e-01
2.210399754664251204e-01
1.384008897637869495e-01
1.255452736897485766e-01
8.854443212771999361e-02
1.744366866152845807e-01
1.056514729465185959e-01
1.139771819889083826e-01
6.190754823586699929e-02
1.360066365903379315e-01
1.156178288516419850e-01
1.069548994368592076e-01
8.604028568050003933e-02
1.056018981028122167e-01
3.810654910495035047e-02
9.485559123953046790e-02
2.684502836101146372e-02
9.283472336994143259e-02
-8.627789193863942552e-03
-3.649075686110678229e-02
3.847892846912727427e-02
4.947012332771394405e-02
4.024458180909190608e-02
3.246028310350168589e-02
5.514107756501858415e-03
2.203221354701406787e-02
3.064533409461930868e-04
1.696094259777386482e-02
6.790046835520285873e-02
1.856120676294711891e-02
-2.566400081054090454e-03
-3.069999870850909779e-02
2.757603398392333843e-02
-5.616709195869969140e-02
-4.703454290481989819e-02
2.612529547527452090e-02
-6.245974480879200319e-02
1.311308175284072591e-02
-5.429528120541401992e-02
2.269720357579124714e-02
-1.532505576690789198e-02
-7.974091267400139349e-03
4.234719747308232640e-02
8.531698511528462703e-03
2.323425599456592494e-03
-1.321656343082817930e-02
-5.859309214240376873e-02
-6.389951662154093326e-03
-3.426637746556997211e-02
1.729637488150415070e-03
-2.664960310503553670e-02
5.773491504036443178e-03
-4.576643843038082082e-02
1.176633485654873801e-03
-8.396256949768005073e-02
-4.074553066503740911e-02
-5.736592608586055242e-02
2.472801007313827487e-02
-5.241137749166051296e-02
-5.491913817057950120e-02
-2.429936166811037454e-02
-4.890629856852107826e-02
5.897155696254062496e-03
-1.005216549693376676e-02
-3.455644900848570122e-02
-1.025239260431352883e-02
-7.408091146405804128e-02
-3.021662056944991390e-02
4.466669075476640410e-02
-2.121106183441651832e-02
-1.839571730059657781e-02
3.885545399493772062e-02
-2.042913505797189916e-02
5.756473912783360847e-03
-2.011929259670603570e-03
5.528892744232744710e-02
1.526953157171189596e-02
7.788146520264169204e-02
2.741801496153919299e-02
4.524238819395067640e-02
5.375710334595271145e-02
3.525376781560986272e-02
5.730097151014543200e-02
3.428465346059875185e-02
8.939311472199734654e-02
4.181580383158506331e-02
8.283550919097733278e-02
1.204719425088273677e-01
1.071489680490219365e-01
8.700257140832320935e-02
1.111138874907121321e-01
1.110285768837429299e-01
9.107082362557905597e-02
1.069722887921757404e-01
1.736066415115682660e-01
8.795739943197976307e-02
9.839756956165246482e-02
1.175939661911000467e-01
1.499630867572228354e-01
9.050657365665466803e-02
1.458369819058294992e-01
1.051797809517282245e-01
1.259995397006161977e-01
1.175036759072365100e-01
1.637971827237035827e-01
5.279471294552090521e-02
5.371111979233886280e-02
1.605136875892235748e-01
1.288839117886493579e-01
1.281869439468254768e-01
9.197805913114959209e-02
8.129293410713299417e-02
1.036109740167347609e-01
1.349593155346279494e-01
1.078844034551889042e-01
1.582741432736647358e-01
1.432851066867675272e-01
1.175550163678548282e-01
1.713832162192179265e-01
2.077387350484624085e-01
2.259493474262102286e-01
2.241953540873586614e-01
3.203858209246275845e-01
3.321817897345840653e-01
3.792908320989530346e-01
4.087075952177682270e-01
5.451313331124068018e-01
5.640680445521087938e-01
6.538595498198568334e-01
6.435116110815851664e-01
7.140472925056414732e-01
8.251106264285595904e-01
8.468927692750540803e-01
9.760993599099484497e-01
8.962192448818638857e-01
1.008562147755530214e+00
9.959441599912841614e-01
1.012855176203879104e+00
1.012276800909629682e+00
9.947310973826438696e-01
9.803665427629044693e-01
8.897456755258735805e-01
8.943280291259162462e-01
7.987872676294618390e-01
7.293428901626965999e-01
6.221120511631275107e-01
5.626561921421064927e-01
5.293907132143489402e-01
4.972177144303239205e-01
4.099480113685413651e-01
4.111422790357730506e-01
3.130681304223605355e-01
2.066941851689534371e-01
2.307328178256972673e-01
1.683617997913068043e-01
1.200370770807505372e-01
1.240938930378791411e-01
9.720367792378438454e-02
9.644877897730752547e-02
1.311918604960481682e-01
1.025957946611479599e-01
1.188676990220697560e-01
7.559393468438392605e-02
8.666384907880907151e-02
9.366827161830604265e-02
9.995562669288886315e-02
9.285325255905964303e-02
9.068887571900541289e-02
7.163177217550233122e-02
6.735572535815827211e-02
1.867366595937839935e-01
1.806214103725639064e-01
1.505418826589023373e-01
9.039674333662110761e-02
1.855847636618303820e-01
1.543369486584559858e-01
1.369936480209491825e-01
1.769923643442108119e-01
1.181200186231909643e-01
1.997964610289109655e-01
1.840790225226283383e-01
1.744321988474221152e-01
2.375539071130480795e-01
1.763460841510953447e-01
1.750402992372975808e-01
2.444053704873082877e-01
2.041071752489187763e-01
2.422652283813196417e-01
2.173439096635680357e-01
2.581295287038363195e-01
1.583321631169296861e-01
1.757254516118424703e-01
2.079106953951506687e-01
2.616290356959634078e-01
2.769456082231366301e-01
2.026602461711889402e-01
2.050805287848976310e-01
2.176594799629582022e-01
2.261377623319630603e-01
2.370737581714783548e-01
2.698985142754501410e-01
2.873712202192343912e-01
2.498028030859255622e-01
2.617561433671488080e-01
2.485628182587429069e-01
2.548226343181753673e-01
2.270514583934893638e-01
2.351709603157854100e-01
2.346863521093864868e-01
2.013214241716639874e-01
2.570844491181143998e-01
2.145578674175045719e-01
2.249644540797457737e-01
2.315135456799335412e-01
1.949233934674767521e-01
1.710994395862884543e-01
2.159134482303281533e-01
2.031371361506271178e-01
2.178701013088950034e-01
1.863773303308642604e-01
1.724131241850744012e-01
2.211101279608163883e-01
1.385727440160699486e-01
1.416342611710073029e-01
1.655404177924538756e-01
1.671436173322159713e-01
1.680222970795233473e-01
1.355168002721313103e-01
1.698859755748786393e-01
1.082832241459861927e-01
1.634696306054423676e-01
1.201080633149712584e-01
9.319914311361571224e-02
1.206437282332444433e-01
1.448116367740408528e-01
7.317761567939524980e-02
3.835421939170617633e-02
1.400851044960554348e-01
1.055657214607635813e-01
8.501045661628305050e-02
1.097587019469730280e-01
6.809370962121893966e-02
1.173301748924565346e-01
8.144594512090252980e-02
1.127493888103047182e-01
4.946515956784815204e-02
3.953900189662692966e-02
2.408938853592014831e-02
8.192299572090730453e-02
6.534570791289595615e-02
4.009182637569484731e-02
-4.442786565315116551e-03
9.110832256231769788e-02
3.044996525753152980e-02
3.841929771127397530e-02
3.543781846224111631e-02
-1.165210689602571605e-02
3.612109191514830536e-02
2.296655357892351396e-02
7.662995647388257114e-02
-1.557496401139900517e-02
4.843472489266879150e-02
4.617802061967214017e-02
8.323562108897491346e-03
-3.253558554950770204e-02
1.046988097933010398e-02
1.411536035349859712e-02
9.136106497561836959e-02
4.033244275103756854e-02
1.057151553926706511e-01
8.406274510917733506e-04
3.786595803950432854e-02
4.195402350061119834e-03
4.324720602052176122e-02
7.244945595489221332e-03
2.347206846223868701e-02
3.432016390496278602e-02
4.760697907340883522e-02
6.372826837437800540e-02
1.960861225911517472e-02
1.346875555043919315e-02
8.179168881280714232e-02
2.916288787447141734e-02
5.682938370650654492e-02
2.682620361673926368e-02
7.435652778246562566e-02
3.122895156494891189e-02
7.756774640773493601e-02
4.188705297555908591e-02
1.263358917452402086e-01
9.127870507243426856e-02
8.082947371909550427e-02
8.139224455760557531e-02
7.354955172837814026e-02
1.106423319232753416e-01
5.217294727102000929e-02
8.603168709148954763e-02
8.838161615016235095e-02
1.203806928160574552e-01
1.544500900593195614e-01
1.036296690383043673e-01
1.653766859785010535e-01
1.314594347792234774e-01
1.812313224707265691e-01
1.974074598187078866e-01
1.541043275130174750e-01
1.517787278093348236e-01
1.835081265343876389e-01
1.673699050803847121e-01
1.523060927027604095e-01
1.523673618274302144e-01
1.943444051363974467e-01
1.344088684274727941e-01
1.650456357163030963e-01
1.439208462017746437e-01
1.412566058967582028e-01
1.423593705845282720e-01
1.570806190630279764e-01
1.786478167880588552e-01
1.272137474003329771e-01
1.286703007471318161e-01
2.027241034022083943e-01
1.621403253764176489e-01
1.729698056567096076e-01
2.057911283539521352e-01
1.937307710564566410e-01
1.949152542309516289e-01
1.228041731028143985e-01
2.022696169653334097e-01
1.783748536872555301e-01
1.199399527333775139e-01
1.724737787814819290e-01
1.545724310577642757e-01
2.381615249923355881e-01
1.870662364438346048e-01
2.377813978980812537e-01
2.546164440223934733e-01
2.533445560629791204e-01
2.434104625003031264e-01
3.438450065254798349e-01
3.787679294579948119e-01
3.975743216801340685e-01
4.409269335151538849e-01
5.496775451021718162e-01
5.630364221119831258e-01
6.776485012737289981e-01
7.925479449605883353e-01
7.806528109401449367e-01
8.909525449656690022e-01
8.789748319062316018e-01
9.292948218186217746e-01
1.061445240091324571e+00
1.109000947631653800e+00
1.040444454570222943e+00
1.048562687658642023e+00
1.050693851288263314e+00
1.037868985272472289e+00
1.051790275705938082e+00
9.389381525265475537e-01
8.652826279207610494e-01
8.872360544473888444e-01
7.843805044418402650e-01
7.098038600142371202e-01
6.643317520572983303e-01
5.572432346563801486e-01
5.404305988497224433e-01
4.906500878772923624e-01
4.506342469512404358e-01
4.119377606594143981e-01
2.741529410485148976e-01
2.730777145545896234e-01
2.263998035603366210e-01
2.118681097731996699e-01
2.062373953383913050e-01
1.597337719643872889e-01
1.127232886161108061e-01
1.033554618650746187e-01
1.445705417437360696e-01
2.015733424155100317e-01
2.084952153854746082e-01
1.849741554144028743e-01
1.537852885212795395e-01
1.410212689896038207e-01
1.768072771363700668e-01
1.366508868961661960e-01
1.116521891502292446e-01
1.729942582357642256e-01
1.809981919664937211e-01
1.748285666894926760e-01
1.909255589898021521e-01
9.357257914454603087e-02
1.681113381121073225e-01
2.051941268309539490e-01
2.159358614323684256e-01
2.216168386820435154e-01
2.359808898132613186e-01
2.218180640885451249e-01
2.479052475660883104e-01
2.124439560707282459e-01
2.622954215040908532e-01
2.168806585511736940e-01
2.889526207438270489e-01
3.196762789191785470e-01
2.611848335892708595e-01
2.368247183726726324e-01
3.160916231217406613e-01
3.047672824108130785e-01
2.072785205021692723e-01
2.592016379456452690e-01
3.228203354607032671e-01
2.886627386976129972e-01
2.733933154994958037e-01
2.440955445263165158e-01
3.366756966007172225e-01
3.061018994523472259e-01
2.818960995957348059e-01
2.926413637310428806e-01
3.039794641439600431e-01
2.786085790677029217e-01
3.099781573629694642e-01
2.905752289285229994e-01
2.616022446321203399e-01
2.569762097886283403e-01
3.283335243168651885e-01
2.647015198305314176e-01
3.039907109708607780e-01
2.564121017163802918e-01
2.794558386327056221e-01
2.770856040587504898e-01
3.492478961008400606e-01
2.653412670646693172e-01
2.470540144236657021e-01
2.394020573017699438e-01
2.316457660599013924e-01
2.523284730362899686e-01
1.951518143429338270e-01
2.681474825863043865e-01
2.768939668721556169e-01
2.581074768153984733e-01
2.053636491989834778e-01
1.947715075282159536e-01
2.242943599045987835e-01
1.641474382265034893e-01
1.823963771175996229e-01
1.809372114451896774e-01
1.793292493120608733e-01
1.444920980852115455e-01
1.796816836853766808e-01
1.416708331888003880e-01
9.966219523374253431e-02
1.473347139773730219e-01
1.703761030742538818e-01
2.028297286919306386e-01
1.344890967268923543e-01
1.184723188030103458e-01
1.226550364844792573e-01
1.514959688239638780e-01
1.233402937107879183e-01
4.437740847261721633e-02
7.920451502532252497e-02
1.107572468830280571e-01
1.186879365518896390e-01
1.172719278463208864e-01
1.025317507764432201e-01
6.579966054703946521e-02
6.216289134082772505e-02
5.334736838347914345e-02
8.169242890453265460e-02
6.369392842606586003e-02
1.093505387839175669e-01
6.027799814294251823e-02
1.174388798089454622e-01
3.932988500333992055e-02
8.581505404822042937e-02
-8.246931180730408817e-03
7.898304780452389262e-02
9.412695152773335738e-02
4.446751770285657657e-02
4.085369898222144386e-02
5.264864537365015335e-02
-7.324527244218295707e-04
1.003012102556358059e-01
7.289294923101129198e-02
2.026132243377282149e-02
6.876887828209124476e-02
1.432579985288036373e-02
4.617700053861743120e-02
2.518015550825748738e-02
6.526615179911217368e-02
1.123479214902416146e-02
7.998130749068425860e-02
8.888586751286810250e-02
3.922572382227289961e-02
1.019056022292233465e-01
5.324035744850455498e-02
5.857258370231144262e-02
1.202883538678629904e-01
4.109305419180565855e-02
6.159800596402224826e-02
1.304615880719850463e-02
7.058131246244385426e-02
3.530072081549522067e-02
5.829368004474751175e-02
1.540861376776939129e-01
1.120532391383133042e-01
6.262031726022578015e-02
7.488769297416929260e-02
7.753122552143722201e-02
8.501161448291164047e-02
1.166594625203838387e-01
8.286679846673256078e-02
1.272619592811847222e-01
8.647752252765929237e-02
1.438984978165801509e-01
1.175332754646733618e-01
1.594027382407822158e-01
1.845163730369303867e-01
1.283830116637610652e-01
1.415555687801481888e-01
1.655519937257937113e-01
1.416387778671364117e-01
2.382271807967154542e-01
1.653278759556129074e-01
1.715435222832455142e-01
2.171657963726789653e-01
2.194004351408597453e-01
1.802175812742033978e-01
1.817232999242267000e-01
1.713509678287745697e-01
2.103687544657754371e-01
2.148891521186086506e-01
1.797022396192701765e-01
2.677024564758281322e-01
1.534552097288976458e-01
2.370015151085734795e-01
1.956108329899682863e-01
1.772198482985333223e-01
2.298227928723576285e-01
2.006014740014208653e-01
1.739194116288749759e-01
1.829246014776184648e-01
2.229556928150931705e-01
1.418032726133992560e-01
2.049493036834417192e-01
1.836752179942411634e-01
1.612193271284970142e-01
1.949473007374305511e-01
1.511209191433492971e-01
1.535585246653471403e-01
2.138575660558986735e-01
1.947543086260162259e-01
2.941882751022190101e-01
2.580954955401437712e-01
2.211335993863353111e-01
2.587924176423135325e-01
3.005058509623940166e-01
3.413040169258219625e-01
3.768759870384685851e-01
4.748735786051899721e-01
5.684969372964813195e-01
5.097789372365040261e-01
6.565921217508313701e-01
6.549422325392103561e-01
7.801670253413556244e-01
8.088936559688766348e-01
8.970291234149417869e-01
9.519140361015493434e-01
9.989799162534639398e-01
1.078922805295947196e+00
1.035992515696732008e+00
1.131563556602223519e+00
1.061179996499619138e+00
1.080831980528012215e+00
1.001090910214816665e+00
1.028977326637297685e+00
1.004617485501593910e+00
9.434141002762745920e-01
8.673270216305322133e-01
8.101952444414280974e-01
7.082782318874343286e-01
6.285647280908981394e-01
6.537192548093998523e-01
5.298173780883141948e-01
4.915923927236622304e-01
4.535984546719800670e-01
3.604297159160884112e-01
3.576916019145569003e-01
2.651719678521732848e-01
2.669456655912855747e-01
2.086421178302298451e-01
2.600524339158823972e-01
2.325145948008101038e-01
1.825522888769616214e-01
1.545168802844795464e-01
1.793403083277410048e-01
1.498785941691896939e-01
1.727201187757144429e-01
1.829587583977936860e-01
1.134564369793888833e-01
1.327865218039525341e-01
1.122912963220291938e-01
2.152632946152665538e-01
1.475828630231997285e-01
1.485249760822273946e-01
1.897001036791510498e-01
1.782226415047650503e-01
2.182511422030144199e-01
2.174562371442883002e-01
1.361870528013790771e-01
2.691845847500262123e-01
2.109195230702956281e-01
2.251138315523260880e-01
2.516661518207732318e-01
1.892184357993723365e-01
2.056116306583277153e-01
2.430494008318243859e-01
1.899530359327842588e-01
2.269919252329992143e-01
2.798513195554884203e-01
2.654061234642577927e-01
2.800668326175237421e-01
2.375045892267247383e-01
2.630395762966113993e-01
2.766789428990721333e-01
2.764809752980967872e-01
2.598950599208688095e-01
2.339028022248745009e-01
3.207215998616570474e-01
3.132708711432937720e-01
2.957611017484596538e-01
2.262987911390984819e-01
2.757762924682883865e-01
3.443350785302913275e-01
2.947962423387676667e-01
3.071873768098710711e-01
2.571184871923176685e-01
2.636028418568212017e-01
3.081851873129626829e-01
3.202342669671313646e-01
3.124056930454071623e-01
2.462228928229954761e-01
2.876181278313036938e-01
2.518955996088948490e-01
2.996089292285626371e-01
2.724135642169638327e-01
3.312946129882205493e-01
2.561954458589531525e-01
2.144710703082857439e-01
3.132084622429759935e-01
2.221323367534023541e-01
2.865612381178697654e-01
2.440227534989067859e-01
2.174972543025987803e-01
1.963573654162723281e-01
2.472440979150601625e-01
1.966293785755493240e-01
2.203737296535797641e-01
2.145067903184141034e-01
2.370692636029169131e-01
1.893604272549946899e-01
2.168876787700967923e-01
1.353017355308517855e-01
1.979219719538639066e-01
2.373920387258202647e-01
1.782064907698140965e-01
1.589032894997108591e-01
1.475899542913811646e-01
1.603015231550231068e-01
1.521196165557004154e-01
1.213853087997297797e-01
1.513968946233064106e-01
1.353899996945900908e-01
1.391241344975752414e-01
1.548829692177617623e-01
1.539604241680131436e-01
6.823508533755896777e-02
7.950764368528957793e-02
1.077121596661399922e-01
1.380605080120111683e-01
1.005942836304570542e-01
1.071385775460981515e-01
5.179078251215784440e-02
3.968178718027663004e-02
4.146910455694559350e-02
8.227809270594055313e-02
6.916890774201248093e-02
9.370587965145982245e-02
4.816863549985685167e-02
5.892976499926102368e-02
4.720659438278090869e-02
5.292463443643603133e-02
5.103761157249005892e-02
6.425287759842102098e-02
8.496456730162460502e-02
1.728625971728564234e-02
8.001696089540433210e-04
4.756947668511650462e-02
1.736635816349541700e-02
9.998084704175098925e-02
1.025254956203550463e-02
4.852201448350045021e-03
3.421440628445638482e-02
7.080223427654949719e-02
5.719886490359891995e-02
-8.441890298600082665e-03
1.112218493662863045e-01
8.454010542529545591e-02
5.842437355975454993e-02
2.440062790082121735e-02
2.069278174729159703e-02
4.297813356961957543e-02
7.889583270660410763e-02
7.843917873526906615e-02
8.337011677052161285e-02
3.627372047402507849e-02
5.659521186907895407e-02
7.945600247340459110e-02
6.313752900656713352e-02
1.143568992019678432e-01
3.189449028583105084e-02
4.755051534626570514e-02
6.655067208379852883e-02
3.436420414578040400e-02
4.907147571493969407e-02
1.020820994162636997e-01
1.124645082345084868e-01
1.041153298290366097e-01
1.007545366920055141e-01
7.557285206661226717e-02
1.664151854975660094e-01
9.020336400038241054e-02
6.756177976616685454e-02
5.493289016815856157e-02
1.527664271512313710e-01
1.359406558470052095e-01
8.175740434862682759e-02
1.476318483825092565e-01
1.376748349934152071e-01
1.306917826765435220e-01
9.836657082805010111e-02
1.756061178115686239e-01
1.654831637112980369e-01
1.270071381324072435e-01
1.325265004113084510e-01
1.827677478986484416e-01
1.706472520271399840e-01
2.091664984707168884e-01
2.356802943717954957e-01
1.928591168045875326e-01
1.674939843403140949e-01
1.657507870533027061e-01
1.550488680906627892e-01
2.205382029304543134e-01
1.914478723203210941e-01
1.677545288036954019e-01
1.381054302555830282e-01
1.861690455470823846e-01
1.562410547499221147e-01
2.153028304149146033e-01
1.828311091706628921e-01
1.444651227767147494e-01
9.943866428447281636e-02
1.567781691140582856e-01
1.768983242391343469e-01
2.287543715678096445e-01
1.484891831035485277e-01
1.460820299444847425e-01
1.744071488966345007e-01
1.951116969127758560e-01
2.308247389816952544e-01
2.223478863153353913e-01
2.199850499639613433e-01
2.726865875763390679e-01
3.014907196947057555e-01
3.890652842828353775e-01
4.587251844812419432e-01
4.930798661559683271e-01
4.987584562129105392e-01
5.549961711354609584e-01
6.958007314291776435e-01
7.508089627366261176e-01
7.878053628863254110e-01
8.775896585802014371e-01
9.131476066074906139e-01
9.450713271220041456e-01
1.009679773380959711e+00
1.027476461664487140e+00
1.105608823403829488e+00
1.041937836889828883e+00
1.063819479819642089e+00
1.057224089720937288e+00
9.836585173530788540e-01
9.024779716187359968e-01
8.881939040557306209e-01
8.574994381067102545e-01
7.878293364095393381e-01
7.605086536839806843e-01
6.284798603474067713e-01
4.951366637388139313e-01
5.196895201339183368e-01
4.799836189955222210e-01
3.787245173901452322e-01
3.246646222106722712e-01
2.900666607212084580e-01
2.633626229820811293e-01
2.297834192682979282e-01
2.108290918187864238e-01
1.719523655357561298e-01
1.661869701080690431e-01
1.486954360157592692e-01
1.341554539562322956e-01
1.629633604257686996e-01
1.216069542557846744e-01
9.790784632847884805e-02
8.947388151941279566e-02
1.275431582359780325e-01
1.222864193877768596e-01
1.115901944933483381e-01
9.869622303364176952e-02
1.287869949816442261e-01
1.287952253685337167e-01
1.284332820328204783e-01
1.013147228347666406e-01
1.728165920343815720e-01
1.890107312798394723e-01
1.304124800114256078e-01
8.742289771402719789e-02
1.731444792333677873e-01
1.404711029262289967e-01
1.597136935844696848e-01
1.891004120001633371e-01
2.195933101427833822e-01
1.781511514757904424e-01
2.043520559361652056e-01
1.940633414868838669e-01
2.274889983868078336e-01
2.164256934182375303e-01
2.240283707151910775e-01
2.183130377295289803e-01
2.230439629884059805e-01
2.723429517146791490e-01
2.241358188292188192e-01
2.421640825723695434e-01
2.244176848177653893e-01
2.154328944914520316e-01
2.769399535681829061e-01
2.034184043046969037e-01
2.532488272343997315e-01
2.544200773260172910e-01
2.482053306349993604e-01
2.444986916995570414e-01
2.691726173194106120e-01
2.628063318290678185e-01
2.678595332302852183e-01
2.396210997351267413e-01
3.026258877200334596e-01
2.633780563211057246e-01
2.256485013765746062e-01
2.245846699139796843e-01
2.212317053083945051e-01
2.340304785833544343e-01
1.970041553995603156e-01
2.405321110942896246e-01
2.179393830609493155e-01
1.918707470409860283e-01
1.823124549093413371e-01
2.139138143664565950e-01
1.828759293958609478e-01
2.104053164666208897e-01
2.164814861438884297e-01
1.710915152858688004e-01
1.426005736239706889e-01
2.122357166444547583e-01
2.214915142751551491e-01
1.318790406166720497e-01
1.868149460085145042e-01
1.903290658947758840e-01
1.663492485485615902e-01
1.225067521630640449e-01
1.009744868234178916e-01
1.341729270890270054e-01
1.579977544686454738e-01
1.062488367653509069e-01
1.605320416660583061e-01
1.879172439560547747e-01
1.433649490571817231e-01
9.201971064415566393e-02
4.482269285386798752e-02
4.597024764407138531e-02
6.612329707498663944e-02
3.776046608096279150e-02
4.072477473018452226e-02
6.158776645012729173e-02
8.004340457784427099e-02
-3.853897890824754119e-02
2.037031574543544943e-02
9.784524757905782577e-03
3.705384890036324957e-02
4.581057250825985167e-02
-8.477940133323647043e-03
-1.178643830707651677e-02
-1.027345070629404056e-02
-2.730023461889127812e-02
3.732856963160263025e-03
-1.156883566645766637e-02
-1.587484335878414088e-02
4.098983656582338986e-02
-4.860695530603312275e-02
9.635839884871627570e-03
3.376487335291333824e-02
3.759631307359467128e-02
-9.978886624618621762e-03
1.254919505410189567e-03
-3.137004563473148877e-02
-2.308838636871324290e-02
9.603679871073043939e-03
-2.461510478971809524e-02
-1.562603748792991756e-02
-3.293239377396611767e-02
-5.013229742947874351e-03
-8.176891865922571861e-03
3.296287585956732269e-02
8.014308015732982127e-03
2.653977419225323278e-02
1.864894113151333715e-02
2.166299110175875370e-02
-4.634631746098195892e-02
-1.635667453396785764e-03
1.230731044730838317e-02
3.570210594444390290e-03
-7.412472719914277308e-03
-4.715011247497696845e-02
4.431134248197386022e-03
-4.350508704967935569e-02
2.452971252821952580e-03
-3.430755697854229180e-02
1.722934037037802957e-02
2.544822392393468469e-02
1.701956529004471086e-02
6.554918618902702554e-02
4.917300780695046253e-02
3.696559326986682825e-04
4.071683866804316765e-02
2.867131248793060305e-02
6.400814242245053687e-02
1.235801945713813077e-02
5.972822068529252959e-02
7.905564921024224589e-02
1.892862952646157115e-02
1.165599844434373270e-02
8.809006283668005532e-02
1.065065410230375681e-01
8.796538849982948882e-02
5.306309983199603703e-02
7.758644404931630545e-02
4.883291978339021622e-02
2.003795877037961026e-01
4.795339781919379096e-02
3.053883316957711758e-02
9.716751943352937293e-02
7.653006965873070111e-02
1.385883095638171802e-01
1.199674984659905852e-01
1.409141880529259927e-01
7.334417388739761234e-02
1.838771022913353592e-01
1.478854779082683646e-01
1.327332500108343583e-01
1.429418859504729133e-01
1.220408371893891702e-01
1.345506218949690247e-01
9.396913790850457138e-02
1.346113031220758649e-01
1.287471203091841709e-01
1.411138519241253997e-01
9.923168853265001976e-02
1.388058384751613694e-01
1.416117637605215918e-01
1.204571683771619162e-01
9.278247115549058399e-02
9.347905047799021094e-02
1.028233745999473647e-01
7.865349951779795901e-02
1.492641121607782284e-01
7.838239509851614717e-02
1.616128776394264166e-01
1.251591138800936531e-01
1.775894706067783213e-01
2.034374674693744667e-01
1.848574907765083153e-01
2.410292043256500871e-01
3.480532731825596859e-01
3.635992411334943442e-01
4.391310213745330815e-01
4.644183343126025987e-01
5.623200525622403800e-01
5.751627057204996563e-01
7.142760927933263781e-01
7.241476037814412736e-01
7.883061285550302388e-01
9.217484033073312100e-01
8.947334450600884503e-01
9.082029746687203531e-01
9.671842420502355653e-01
9.817663263871276857e-01
9.947360033169332372e-01
1.030787737873681831e+00
9.440046316990279296e-01
9.599137099136955120e-01
8.188676507158116902e-01
8.725416324441030991e-01
8.067687001565257976e-01
7.295375329153578337e-01
6.499831310131247708e-01
6.486343358942355808e-01
5.193392239288125989e-01
4.689591700553600861e-01
4.442495774131819952e-01
3.242021632563371059e-01
2.724841036273165651e-01
2.079953555963012790e-01
1.969687872744275148e-01
1.613037645718001512e-01
1.453556362833628435e-01
1.488144135326491813e-01
1.654467289220259152e-01
2.467076983194409906e-02
5.820081856613197602e-02
1.147320979626264836e-01
4.948272759085148992e-02
1.099093677314944006e-01
1.041933300809777807e-01
7.244331027160971770e-02
1.022041910067494064e-01
1.069573799802426839e-01
8.140412148561640415e-02
7.287727758097722885e-02
6.640697168322384769e-02
1.242041683969972166e-01
6.923263167628831982e-02
1.609924375916950423e-01
9.277606484194533820e-02
1.386841240784184581e-01
9.408999065685885732e-02
1.495351940279475988e-01
1.025751157775563194e-01
1.470168718829318599e-01
1.433224933046112204e-01
9.999988430198734901e-02
1.920107635535860391e-01
1.388045571670971645e-01
1.472439783234005817e-01
2.127778851509663782e-01
1.737191662293919303e-01
1.965993473501904121e-01
1.304472560328203690e-01
1.626623558082075094e-01
1.720841710912889289e-01
1.851872071104607165e-01
1.968393608448295307e-01
2.495588930977415409e-01
2.217694908545827237e-01
1.910812949220396240e-01
2.393061415171292283e-01
2.236709658924541377e-01
2.177200234841571158e-01
2.128744871986679998e-01
2.120485804680330988e-01
1.800278970800488210e-01
2.074731695593627079e-01
2.025279651608988540e-01
1.962466286097910018e-01
2.054724888566513141e-01
1.967561223648036373e-01
1.748368888450501368e-01
1.769716683263506951e-01
1.782367054869963552e-01
1.987242747543854493e-01
2.255404104539230903e-01
1.509597264236957337e-01
1.974853717083617233e-01
1.801560294947729957e-01
1.678358160766878771e-01
1.791691523799189278e-01
1.613604017689370951e-01
1.501838015388961833e-01
1.558795767380090624e-01
1.072126883619992921e-01
9.816740686936320515e-02
1.285763718738297534e-01
1.563179804782212912e-01
8.295516296666091693e-02
9.188842533633484466e-02
1.207613831689640649e-01
9.902509671176769335e-02
1.007868033006808772e-01
8.601546898084769244e-02
8.498208772995918814e-02
1.136048398984722541e-01
1.197377424892013403e-01
7.363682116907380171e-02
4.824395787797745860e-03
4.690724041753908252e-02
5.088351265512910948e-02
3.964153677954034005e-02
7.468445602492951307e-02
5.653023591692094701e-02
2.946698700887446370e-02
3.073918552012190608e-02
2.986243228985870773e-02
6.902903337796226224e-02
-4.076315382854436842e-02
3.243568473986982448e-02
7.325188360504153451e-02
-2.707322294131644935e-02
-7.694001459393383369e-03
5.119526572939764320e-03
1.010128363155768372e-02
-3.698206714885060586e-02
-4.093657302007405741e-03
-3.552791120882738130e-02
1.350898948148736289e-03
2.815696337610071320e-03
-1.095630877703508005e-02
-3.211781045936989987e-02
1.422902848424396904e-02
-1.714008407130092337e-02
-2.537239604002236928e-02
-2.628404856429069486e-02
-1.305105896844721558e-02
-6.812586126461252223e-02
-4.855261545124003181e-02
-3.372339415520737849e-03
-2.287076888156385976e-02
-4.054924580180382931e-02
-1.071193017605533843e-02
-1.041207629178991789e-02
-2.816544251181697309e-02
-4.691734248000520302e-02
-5.780206834741236782e-02
-5.741340284463325450e-02
-1.404666060981263342e-02
5.531925218277555789e-03
7.461904169163834089e-03
-4.450125690754039298e-02
-1.128077536428277738e-02
-7.245212595597054495e-02
-3.748022067442638439e-02
-2.517765363081071739e-02
-2.427264875402327521e-02
-5.341689197425807112e-02
-6.107961663101492411e-02
-1.935560117530528770e-02
-1.433206980259031649e-02
2.622196194495804433e-02
-2.106350358115913896e-02
1.100480789660017444e-02
-8.774699504402357075e-03
-1.253047888221825445e-02
3.485865323944519617e-02
2.489453982488658984e-02
5.763015958339302164e-02
7.280423679158300188e-03
-8.958946264886184785e-03
6.359233435895096653e-03
2.407236807093286746e-02
1.369012789986577550e-02
2.791953087704630160e-02
1.673877915419498541e-02
8.605810823281349886e-02
1.984661103320378012e-02
5.070738907568929366e-02
7.654562090260025320e-02
8.020240089044479437e-02
5.020017224510023301e-02
5.470518921905255516e-02
1.049641448005164679e-01
8.173551077599497394e-02
4.769157940724122469e-02
6.835613136607189555e-02
1.313567439937733672e-01
9.532162545345523874e-02
6.664495889606794621e-02
8.698213566493623317e-02
1.033867700810978396e-01
1.011100871729463530e-01
7.993123071271826530e-02
6.580701948769526743e-02
1.681393323992761146e-01
5.620901891607088530e-02
1.164416785303676177e-01
1.229657881740641723e-01
1.294957612438404626e-01
9.350766394477133536e-02
9.292936274938132235e-02
7.272305921579162724e-02
9.140258417221482079e-02
5.897845055473947135e-02
1.183488460950727766e-01
9.664623003191677442e-02
1.125735996768827130e-01
1.192886521054965510e-01
1.458290313244997305e-01
1.766252974649411556e-01
1.919064921823438463e-01
2.319496510243342358e-01
1.787966110150430166e-01
2.521931998521398377e-01
2.798411688204646142e-01
3.486283423746138199e-01
4.049663620634386674e-01
5.066637441730985625e-01
5.245493895337191015e-01
5.897168165397594919e-01
6.461088761378135370e-01
7.732232100480574966e-01
7.272120545556505222e-01
8.342874975136969073e-01
9.057476692521857498e-01
9.546303262739487261e-01
9.715648850966626116e-01
9.728834576204581364e-01
9.952425933752311327e-01
9.463286363742245966e-01
9.243180869629200602e-01
9.228748045145942491e-01
9.161952059018151351e-01
8.514890673216929384e-01
7.733262481001516031e-01
7.265343674834218168e-01
7.004074031047855531e-01
6.116567505626275825e-01
4.887625175046854675e-01
4.030225850163028367e-01
3.872761132903617121e-01
3.851422661567498462e-01
3.033478159311104871e-01
2.758385186754871432e-01
1.738694168601294388e-01
1.811655675404489074e-01
1.247870590305737715e-01
1.089877910871709932e-01
1.218487958626153778e-01
9.724540323545149967e-02
8.761772071967408038e-02
4.768264986658234117e-02
1.978482389819544857e-02
3.298950246456087976e-02
8.224406804302150653e-02
3.322936293403070535e-02
6.911902764747039629e-02
1.009523901868504547e-01
6.389050871173873603e-02
8.467903062936829595e-02
5.400557431801195768e-02
4.774512086852945869e-02
6.920812626349256980e-02
1.203554464673338431e-01
9.909862314528469773e-02
1.060776573577968673e-01
9.949087117288668569e-02
1.379195176958903368e-01
1.613131555162544972e-01
1.889271493928326162e-01
1.605177383898236665e-01
1.535919787706261919e-01
1.467863499661681281e-01
1.234292531912941637e-01
1.640641581972391017e-01
1.265932192308440729e-01
1.560850166815921647e-01
1.238981069314117056e-01
2.011857539754907109e-01
1.712863502150900885e-01
1.979265918019318948e-01
2.156866708602314664e-01
1.726659090854364142e-01
1.872526701736199339e-01
2.381874050733103765e-01
2.453443808257019798e-01
2.205487079651461402e-01
2.074311483495897834e-01
1.917296969495493608e-01
2.075863898209742708e-01
1.729521902046132764e-01
2.821663947172688980e-01
2.437737695505836633e-01
2.269670362114304951e-01
2.242671125948711708e-01
1.949081569686247351e-01
2.222325054158422464e-01
2.403762598465750688e-01
1.288390537862073859e-01
2.055710477310649098e-01
2.066042287424023627e-01
1.491174128717371872e-01
1.669698425829522492e-01
2.305108697665032291e-01
1.668543728784373237e-01
2.359613762825303884e-01
1.920092654770341190e-01
1.858330563894570187e-01
1.290415129748931633e-01
1.657857979549821614e-01
1.431981199729138454e-01
1.420198072176659942e-01
1.558914460866420715e-01
1.458734404697951681e-01
7.656712110834071328e-02
1.446754592021607944e-01
1.247661443774737144e-01
1.049059627462789746e-01
1.757617699785828103e-01
1.047506820581817211e-01
1.432622747984994838e-01
7.110322549792399971e-02
7.148436017367451600e-02
1.054868283947782009e-01
8.650896988737288851e-02
6.977459085461282240e-02
4.323542232998140583e-02
1.049949014622065246e-01
4.076675618117998195e-02
2.821274026889562109e-02
7.947107760294773449e-02
4.675107348978343319e-02
5.422395161649773421e-03
3.501294958761145409e-02
3.876801008823883843e-02
-1.649483424661242481e-02
-8.838521150174593471e-03
3.778011009925855146e-02
3.890362848920288219e-02
2.879684239358634365e-02
2.115582243828515591e-02
4.204723584020303440e-02
1.739908962530939407e-02
1.092209953626802760e-02
-1.482652078614137003e-04
3.953288191016779418e-02
1.029394913955074264e-03
1.419046181437121079e-02
-4.286630206375903474e-02
-3.690715749893379305e-02
-2.185604255827729159e-02
-1.995970140058849623e-03
-6.472905653854951757e-02
-2.493443854026528711e-02
-4.180519368410815645e-02
-2.374191645131816172e-02
-7.505953957673432847e-03
-3.596211147535854913e-02
2.135019936471631297e-03
5.674329869674320237e-02
-2.315445870430480474e-03
-4.177630712158463683e-02
-8.039068396377106740e-02
3.915173515495997542e-03
-7.242778198927914135e-04
-2.212567540726927823e-02
-6.359593479308395247e-03
-3.335670220093745614e-02
-2.043412696546916679e-02
-1.586575160894211634e-02
-8.211839029378491250e-04
-4.119373102934308084e-02
1.930234617042132783e-02
-7.087104896663910802e-02
-3.041950019458239743e-02
3.223148322860994175e-02
7.199226523180904391e-03
-1.079591610767678678e-02
3.201986009795468324e-02
-3.347255745613760686e-02
3.456304103011827861e-02
-5.490795680363379921e-03
-3.296215906910826554e-02
3.200696387855955782e-02
4.367775518671611346e-02
3.897535679780090440e-03
2.934834833311972604e-02
7.218902546296936118e-02
-8.107419438670999956e-03
6.425156417793245756e-02
5.112221341265358460e-02
5.229293732875379963e-02
5.471482911604171051e-02
3.068118576014760429e-02
3.048416168020012806e-02
7.397639856507201572e-02
1.295107514054549269e-01
1.189170613571033236e-01
1.055009268606572209e-01
8.795785402903538719e-02
9.337358164736565824e-02
8.571580048849386513e-02
9.606815994080165899e-02
1.142462011725978860e-01
1.451161507593159983e-01
1.496588959785580264e-01
1.790981011851352778e-01
8.125231825716039413e-02
1.371955857394412948e-01
1.817937201067494624e-01
1.928050829779342501e-01
1.869602110904089176e-01
1.502030607902811454e-01
1.540569165422990827e-01
1.031835301558244322e-01
1.329857725637013655e-01
1.065689608785299891e-01
6.889876948244152977e-02
1.368904291520917083e-01
1.570897320101437289e-01
1.401109531740426795e-01
1.337425120453775429e-01
1.076062534972876544e-01
1.306064936246965624e-01
8.631348515417182343e-02
1.621612787620363150e-01
1.393455022396080101e-01
1.722711374264200845e-01
2.003746516867472571e-01
2.368748298502499627e-01
2.888428504828350341e-01
3.417074394925577185e-01
3.938398166988031912e-01
4.587387718610705378e-01
5.108483472474882880e-01
5.792231910983183241e-01
6.317812121530640423e-01
6.936217334083301100e-01
7.906803990264008597e-01
8.285049650531117749e-01
8.993599232128932641e-01
9.052789948717062662e-01
9.349646499606125705e-01
9.825417307846350257e-01
1.026116832666344125e+00
1.023829872790397610e+00
1.059931400615271357e+00
9.903402734379679329e-01
9.387315930063869773e-01
9.411774863565028904e-01
8.306315001629759331e-01
8.466391802317805304e-01
7.744073264366009290e-01
6.614054419674545438e-01
6.440966792896991588e-01
5.543801708744703349e-01
4.994407680422692231e-01
4.459919512972478906e-01
3.764425812902463253e-01
2.833317030691847038e-01
2.943897443793551116e-01
2.197988085778720957e-01
1.815003927509862280e-01
1.728605252038760975e-01
1.598346080503949829e-01
1.503055681438123792e-01
1.049554889560283394e-01
1.539817396960423135e-01
7.492016662607475785e-02
1.185727145958747897e-01
1.225471853914712056e-01
9.217106632431901203e-02
1.044475676020178434e-01
1.192315209849131030e-01
1.135558492646821654e-01
1.846213893555903318e-01
1.617420199155363558e-01
1.556737171565258093e-01
1.281825062630173873e-01
1.982225793658168866e-01
1.468519362575418652e-01
1.518858564800726618e-01
1.697704370224784598e-01
1.633809890504207274e-01
1.420579661341020428e-01
1.859948606266558779e-01
1.672628400486667610e-01
1.429096109271825177e-01
1.932449764187612606e-01
2.021802217961293779e-01
2.180054825394969753e-01
2.060050659802228068e-01
1.746938168265395053e-01
1.791559160277715057e-01
2.494405420832657427e-01
2.513635132025001662e-01
2.705332352081111780e-01
2.499984369718984134e-01
2.313668796398002936e-01
1.407206592108636301e-01
1.810272735245043452e-01
2.567174660442429479e-01
2.972269738639731762e-01
2.554032918633039051e-01
2.670576025593055514e-01
2.917843086095077143e-01
2.542505618248130372e-01
3.075917447256367732e-01
2.699043392412437958e-01
2.026962254343639691e-01
2.917035981554584323e-01
2.684520202922187071e-01
2.845213993302515565e-01
2.559314671077866366e-01
2.485088671422207018e-01
2.022012783714315642e-01
2.849752882781027008e-01
2.714222900347517120e-01
2.370127050195303953e-01
2.363186169046919693e-01
2.135229020191310723e-01
2.509266319214932817e-01
2.020930475230537371e-01
2.120264623368602330e-01
2.032603855526704806e-01
2.121283166442003432e-01
1.904218149146965355e-01
2.378555061596569487e-01
1.801523559888085213e-01
1.976636612742058152e-01
1.772058247165123612e-01
1.930375974265789996e-01
1.823451462777155307e-01
1.781682224121558245e-01
2.336923981593630462e-01
1.842471333270697675e-01
1.042859497239944228e-01
1.040500446133373197e-01
1.352029671544285050e-01
2.254449407999691291e-01
1.535692716109917366e-01
7.064022297047126142e-02
1.432096409179980934e-01
1.612126220241321684e-01
1.084676583668499478e-01
7.173513318805618821e-02
8.048699213159909993e-02
9.992900845797081377e-02
1.066161840920368808e-01
5.006374594809254175e-02
1.063418789065617848e-01
7.949045355506234589e-02
6.262513635344925389e-02
9.089105979880751640e-02
5.599314465405690056e-02
8.123325975540467148e-02
5.440979285193511816e-02
1.198769826068337846e-01
8.473686575334106463e-02
6.268546789355100568e-02
1.077469209683316331e-01
4.394529031534577523e-02
6.186066226285812097e-02
5.643802685611044867e-02
4.797507467331518782e-02
6.415225953126429959e-02
4.598913568384969952e-02
6.762306703281439901e-02
4.806959974222757559e-02
2.785105939478050435e-03
2.018162865598359043e-02
3.941463539010741507e-02
3.234201224306104683e-02
4.948548614077308283e-02
6.068889156693390435e-02
7.183476887299126978e-02
4.211907637212272681e-02
5.519705582400120936e-02
9.580518086710006209e-02
8.013299933173222145e-02
5.515559181859536197e-02
1.636979224354642021e-02
5.977819551534180320e-02
7.880560242581478858e-02
1.143733435502419793e-02
5.270732324157686305e-02
4.419138062541089207e-02
4.015418831477302053e-02
6.806018024110324638e-02
8.390669666554279038e-02
5.978561411822942012e-02
6.030769889924660759e-02
8.569794567082469894e-02
4.745988548114745548e-02
5.357316652286629732e-02
6.670536675679283878e-02
4.422833199193132447e-02
9.446496320677855163e-02
4.608520666997339976e-02
8.376582600905660425e-02
5.810660562709742127e-02
8.623365756139220184e-02
7.010628778563131325e-02
9.096328698613057040e-02
1.338327479908759943e-01
1.274449048007520457e-01
1.001816146252948458e-01
1.612407244604254775e-01
1.670902202104142253e-01
1.131176437206836694e-01
9.892490943747250798e-02
1.339602930641207168e-01
1.270351562717792482e-01
1.533399090942153820e-01
1.689655462093476446e-01
2.183940321909116911e-01
1.654395996090696763e-01
1.432740281238469027e-01
2.113349470487237980e-01
1.549220060806980603e-01
1.540232468313813552e-01
1.582807294441118950e-01
2.081842985549549885e-01
1.904995181914867497e-01
1.864447849307919181e-01
1.427338426727230158e-01
1.882381277590329527e-01
2.572606640636564412e-01
1.931152027073929078e-01
1.796001273424033817e-01
1.589317985920405962e-01
1.290809848598128973e-01
1.615530379110596826e-01
1.867551252237434900e-01
1.839663576092236963e-01
1.763176206944306323e-01
1.284233886182679363e-01
1.986032294796973852e-01
1.417899986624411857e-01
1.708943219224105525e-01
1.852888856018040376e-01
2.157806071209265319e-01
1.722435581909236291e-01
1.768196396299061557e-01
2.171850965365765829e-01
2.769989617456013464e-01
3.053868865983670466e-01
3.415904060856489455e-01
3.577769751080148164e-01
3.854349766974040081e-01
5.175827994904178553e-01
6.000498738758041073e-01
5.849251054003727912e-01
7.227039379347890424e-01
7.932836636883380255e-01
8.236525845196472906e-01
8.521503975657463981e-01
9.231860427091340693e-01
1.015677109795866562e+00
1.049314202928863127e+00
1.088981487317137065e+00
1.095366109846380720e+00
1.061928981354910650e+00
1.034557376235797133e+00
1.034078840432722579e+00
1.009445595814932428e+00
9.541931768364105837e-01
9.646023240160565004e-01
8.631030460345450184e-01
8.157987792962396734e-01
7.655814015711712717e-01
6.584613828989873685e-01
6.216680653998731820e-01
5.605859212539245906e-01
4.328936370987570559e-01
4.472854765651212983e-01
4.170552858910801519e-01
3.729834879058473440e-01
2.533461054813953006e-01
2.697295752136866231e-01
2.042271138016243937e-01
1.978399197090586481e-01
2.096097416228611954e-01
2.049141887026655340e-01
1.579748521225518565e-01
1.285739452587472131e-01
1.348910417533004669e-01
2.035349138051446016e-01
1.720811225477216211e-01
9.330500889308725176e-02
1.581225829710611874e-01
1.732952440710003872e-01
1.450906711057760035e-01
1.974977190889952439e-01
2.319995115058312574e-01
1.208984851968781249e-01
2.175320231756864564e-01
1.616680538451018001e-01
2.047600911534796231e-01
1.740432701885694655e-01
1.853609098861303817e-01
1.841283527662749275e-01
1.860073298665760322e-01
2.291723050706233888e-01
1.945794176934938224e-01
1.950263421771119832e-01
2.084469406263858293e-01
2.143861066950946970e-01
2.736244860274104629e-01
2.365807542367521776e-01
1.769333352238769974e-01
2.897125235654068875e-01
3.372183687953858033e-01
2.968382262558800222e-01
2.998012526423634028e-01
2.743838718530269838e-01
3.600494918954477708e-01
3.125185177635255163e-01
2.768036897012486341e-01
3.303034239100948177e-01
2.966831445023110914e-01
3.075150521122756997e-01
3.338387256000768799e-01
3.167060748553186533e-01
3.173503179786518746e-01
2.807623828099325425e-01
2.742564669013389800e-01
3.290264199758266561e-01
3.346505293712932483e-01
3.224009625084503505e-01
2.406855519336243421e-01
2.527075151722826263e-01
2.570566336916308980e-01
3.016132356651068935e-01
3.141569945697922916e-01
3.543009396191323934e-01
2.357492323432780756e-01
2.396471178598779950e-01
2.492231721860540261e-01
2.798629883383342287e-01
2.252555327559603859e-01
2.512512439492478045e-01
2.698986225129705319e-01
2.660700125006369432e-01
2.280212491587497170e-01
2.581914155186263438e-01
1.902172738953204489e-01
2.588007178859604296e-01
1.429118275702720986e-01
2.157469113468467592e-01
2.368116513413955626e-01
2.200992600904436436e-01
1.976494758639192328e-01
1.892209692684256317e-01
1.853758080480612802e-01
1.804074574533085507e-01
1.725742548060626158e-01
1.528467590479016813e-01
1.956937989505135589e-01
1.391174715437423215e-01
1.217645303195007411e-01
1.642600991418536049e-01
1.486967869828176858e-01
1.587102355370702267e-01
1.296850913623350254e-01
1.445962661181450504e-01
1.383039632120871831e-01
1.056370276637849104e-01
8.747084739807159393e-02
9.241929242634958075e-02
1.012168901071462263e-01
1.115674396544286406e-01
1.508663232626238360e-01
8.611392047626331703e-02
9.863021857342574306e-02
6.171227255570110176e-02
1.250893250390200939e-01
1.243653556549631917e-01
4.771863916715629594e-02
1.252504262448670691e-01
4.315962148788009961e-02
5.089107653299704270e-02
6.231866981523666305e-02
2.714491144684844787e-02
3.391216506465927205e-02
8.248516850376949594e-02
8.213682846725278708e-02
-5.270425985871227126e-04
1.102325675141952038e-01
6.695230983741166930e-02
7.253538206836752933e-02
5.752611869940252309e-02
5.870151224057731931e-02
7.263259336758465246e-02
1.231423865435981591e-01
3.180794833202559707e-02
6.343399342788699768e-02
5.163116205399002900e-02
1.431318836071368561e-01
3.359691050523444522e-02
5.287425529101490163e-02
1.061141221706185522e-01
5.708679696843470264e-02
3.023727001908236428e-02
4.878626263441686317e-02
2.502890735325734653e-02
8.337462313823097715e-02
7.213324677032630083e-02
9.851457428680940320e-02
7.408522450050561425e-02
1.185539872240089221e-01
9.473893905579026942e-02
1.009447514533263340e-01
9.782702144228794250e-02
6.385147505608727847e-02
1.634821927799439134e-01
7.811516485359759621e-02
1.071125050841751913e-01
9.773852385678936938e-02
1.008978133248868148e-01
9.939801588309604696e-02
1.381959928154389561e-01
9.485521966421119056e-02
7.357266892899284871e-02
1.255072816658932278e-01
1.274811799637361742e-01
1.940281864049615557e-01
1.534635805725577673e-01
1.699628553646733431e-01
1.445604943917214724e-01
1.876192152062572116e-01
1.794604077967525968e-01
1.892884563487524097e-01
1.561670196364065566e-01
1.625961617073830856e-01
2.159913939587292941e-01
2.016715857981851989e-01
1.928915228000641635e-01
2.012674671854869646e-01
2.206827473340099155e-01
2.009928187092659135e-01
1.777259772664791238e-01
1.742245892351941827e-01
2.263764514006325057e-01
1.730362463834375919e-01
2.047929369353656548e-01
1.707822857364358349e-01
2.375231505898105500e-01
1.465442474099105385e-01
2.235182085625040393e-01
2.422568901396494057e-01
1.853351834374827867e-01
1.850297647335820139e-01
1.799839595229595635e-01
2.304544856217125570e-01
1.491488835875061369e-01
1.708125355159551551e-01
1.593233088439956480e-01
2.170282080687309656e-01
1.743246843595593343e-01
2.182767456945155227e-01
2.297294135694583628e-01
2.796158928522141096e-01
3.274215250845476932e-01
3.737973524056730779e-01
3.441363728087188933e-01
4.234781914527822044e-01
4.919992675702589136e-01
5.730613893880710519e-01
6.335014908146821000e-01
6.656908731705682980e-01
7.881676707760463252e-01
8.118655853087636265e-01
8.797710491353298856e-01
9.868924737567243977e-01
9.876468240613928140e-01
1.031368192065470257e+00
1.077960371735170009e+00
1.045293949373104603e+00
1.095736637295556370e+00
1.024044503897453939e+00
1.008716202881773549e+00
1.036617537378299980e+00
1.030643010026390138e+00
9.663030571577326810e-01
8.547693399792632984e-01
8.021450924781313718e-01
7.215921467410756351e-01
6.648968530282223233e-01
6.347372793014347536e-01
5.903158299322811553e-01
4.998279482315822753e-01
3.651360814733509152e-01
3.602100139431825276e-01
3.425932417275998620e-01
2.284647871270197306e-01
2.333779623683409910e-01
2.360585852823949560e-01
1.871742320028597917e-01
2.313862521434154884e-01
1.941206128721828517e-01
2.091619192865586396e-01
1.967211336652201215e-01
1.546888886876374436e-01
1.072234788793514360e-01
1.800855372423628420e-01
1.274131165990022574e-01
1.381847352076520374e-01
2.298093371910402694e-01
1.878158090164023797e-01
1.249278978335260637e-01
1.730700585314159656e-01
9.984270361616308376e-02
1.457487526512411535e-01
2.202203085687156336e-01
1.843027743489702164e-01
1.936566342482467507e-01
2.095305839517735413e-01
2.403681603259595900e-01
1.976660466079714629e-01
1.947870848493909735e-01
2.175834626072088995e-01
2.056313654446675354e-01
2.296746757316617260e-01
2.406534271654058033e-01
2.308276611985708160e-01
2.683771223713846132e-01
2.866563833337242850e-01
2.879388204305405319e-01
2.880221451214739492e-01
3.131468286408060075e-01
3.132109670777619148e-01
2.777308409028599323e-01
2.944995162775525532e-01
2.265386083120466409e-01
2.738723588312803603e-01
2.329185206731499980e-01
3.044697254476240733e-01
2.802003422616525241e-01
2.894118072103796790e-01
2.662309991430906742e-01
2.794778085653929489e-01
2.191416257517982691e-01
2.876148070536010959e-01
2.811586567306285644e-01
3.045121039582116551e-01
3.541147128453775994e-01
2.998194562213751801e-01
2.311509668376347526e-01
3.039684252581694723e-01
2.981865786624333103e-01
2.422409863534821794e-01
2.962577412456100512e-01
2.936227303129859134e-01
2.114803850596826684e-01
2.639846445255461527e-01
2.514348404602560483e-01
2.540788348033507504e-01
2.615474812326252785e-01
2.224774202955574209e-01
2.300244997507289446e-01
2.655353041385246082e-01
2.064992266155986356e-01
2.061590372286175865e-01
2.050279648495765827e-01
1.233235399918320568e-01
2.322115701494576190e-01
1.964505059406309595e-01
2.115865165893128230e-01
1.108103823473047395e-01
2.049303758044127011e-01
1.918710068152034709e-01
2.182014250499561825e-01
1.401856493432751538e-01
1.595912831779669749e-01
1.081473395700918855e-01
1.742070436597482619e-01
9.151696520525762213e-02
1.056996876112851202e-01
9.373744014950770309e-02
1.117419054256394984e-01
8.581827613064374471e-02
1.262099138604856619e-01
9.228658897474067979e-02
6.648876292644433084e-02
9.006943631793172533e-02
1.441830983860234450e-01
9.695019621519017361e-02
1.037645188019109682e-01
-5.252282920113801601e-03
7.163561734699919192e-02
7.736435999055971124e-02
1.984324168495223140e-02
6.548089436224893700e-02
8.874744364872860780e-02
2.411388310197798771e-02
1.042561615616693360e-01
2.795089711476440864e-02
7.267707038870271918e-02
5.901424282910462671e-02
7.338024398490020084e-02
6.208304193600350240e-02
7.950087548676096350e-02
4.278517391784678048e-02
5.689332239937756192e-02
8.731046719831289660e-02
6.464637869156904249e-02
9.273507180654191884e-02
1.718538681906946197e-02
3.959161226248170129e-02
8.590834962247320683e-02
3.851890897606635722e-02
1.865517545445741221e-02
6.273695328018505379e-02
7.406703302994054050e-02
8.653918358262712926e-03
1.942069546939588498e-03
-1.618350488425752270e-03
4.216023781841614360e-02
9.910858117075507789e-02
5.546447586718460110e-02
-1.945580172949711376e-02
5.426368288822427943e-02
2.236992757238738527e-02
7.938056522695417783e-02
3.629981992566201632e-02
-1.162190343954225616e-02
-1.284125904787480899e-02
5.496036730964291850e-02
8.443410598446746129e-02
8.792730502152433514e-02
3.760774806389556579e-02
7.057818618316549775e-02
8.644538336761020680e-02
7.662567124502481231e-02
7.703105427945745876e-02
5.998634919993368897e-02
6.416532359779096584e-02
3.088205150617781558e-02
6.943928702579166279e-02
1.204513148991820937e-01
5.253226256786334286e-02
1.082617682621302285e-01
1.764807598818362577e-01
6.328497776497685190e-02
1.162342163561505270e-01
1.600602287004150581e-01
1.196556384756853886e-01
1.224962873136200420e-01
1.515265050554881476e-01
1.791898766884928718e-01
1.725389342073287147e-01
1.518829730852672144e-01
1.902880784706560136e-01
1.522433729450398954e-01
1.680683700626771915e-01
1.603519360636085356e-01
1.351454655377799519e-01
1.597956360394261199e-01
1.337387206789631966e-01
1.363509059869820739e-01
1.164642835241821855e-01
1.396508951588176506e-01
1.598348563609353623e-01
1.005080012129248024e-01
1.593676344720674765e-01
1.797224598136792084e-01
1.479051073286046791e-01
1.690878759571151912e-01
9.997115630348463178e-02
1.401332087882647959e-01
2.247107223488472305e-01
1.132277287038474800e-01
1.686035361364309759e-01
1.586348969883329407e-01
1.971491237108289329e-01
1.592382041454777908e-01
1.527497628361819682e-01
2.248305597184264981e-01
2.341804196583616438e-01
2.643351810334959029e-01
3.187677050111238919e-01
3.348487642689116917e-01
4.117898638173978498e-01
4.776870676691798989e-01
5.215786568929137168e-01
6.310020337777387800e-01
6.593031659586982007e-01
6.887359806305010101e-01
7.314575998246447552e-01
8.229275444059062083e-01
9.064650700563116059e-01
9.238220590213170880e-01
1.017780238958988503e+00
1.037868797303310942e+00
1.034198938185073802e+00
1.027245634404730268e+00
1.009445651347857353e+00
1.030687100097843922e+00
1.014032800555485503e+00
8.983241592723618663e-01
9.022369815749642363e-01
7.816087227152365147e-01
7.437084530761297607e-01
6.926436704205511941e-01
6.814499653341596908e-01
5.810037728361773235e-01
5.173352558392514400e-01
3.864142756582152338e-01
3.242693871700066399e-01
3.355588649203447571e-01
2.922989939663664383e-01
2.475796036443649595e-01
2.075686941858251311e-01
1.612385131228622481e-01
1.509025367411761243e-01
1.752393020529741385e-01
1.399988201385448106e-01
1.357513987089943308e-01
1.137424454887817488e-01
6.491946328359635143e-02
1.237088218294563058e-01
1.158710489971676028e-01
8.315097393301210116e-02
1.307784753188457605e-01
1.047876090077317357e-01
1.021230083370474606e-01
1.035175900945724675e-01
1.455880790847334239e-01
1.403272588572568591e-01
1.347883053557907829e-01
1.501225433000463461e-01
1.242588620550590939e-01
1.613011831646765371e-01
1.933736088369940043e-01
1.659107487738159248e-01
1.089200895902985300e-01
1.293060298160900179e-01
1.735716045377742600e-01
1.597788065406959557e-01
1.528900204274539210e-01
2.285552871241239292e-01
2.188923198919175417e-01
2.082364852081538265e-01
2.695089246753387124e-01
2.300606407262902608e-01
1.957371630362336190e-01
2.398506076470809933e-01
2.433391414843533163e-01
2.484400251265443949e-01
1.873632777859076393e-01
2.426549831232980015e-01
2.709508794549387867e-01
2.344193819935437573e-01
1.881019994224727432e-01
2.588699320011215166e-01
2.558240587572716551e-01
2.222206666786268325e-01
2.086580521118778231e-01
2.337702658489034246e-01
1.935575325088024212e-01
2.140768108801805736e-01
2.267360999252469589e-01
1.522075755347535864e-01
1.960688774042406435e-01
2.327362371440976074e-01
2.384837099625451429e-01
2.017685457161086104e-01
1.895709741267207760e-01
2.418084502723081564e-01
1.969233538099000314e-01
2.207975107863867636e-01
2.247819670345466148e-01
2.073963093339620811e-01
2.326191173741076756e-01
2.022793038700151091e-01
1.650700526430100568e-01
1.584384328028325961e-01
1.724382120912597571e-01
2.093714801233514666e-01
1.822736813617141793e-01
7.720506819930805786e-02
1.463440474632687893e-01
1.477514949554477597e-01
1.095599435867352783e-01
8.467041903410543746e-02
1.296952814004479204e-01
1.550727555841289740e-01
1.005104473585209796e-01
7.256984455779541543e-02
8.425535817776644287e-02
1.015971208435839102e-01
5.640706127659884939e-02
2.045444401062546450e-02
7.440620750122160787e-02
5.595000097638777592e-02
1.277657845875430562e-02
6.567132217596244326e-02
5.447052057637619127e-02
6.240894328417398440e-02
4.271119373778577144e-02
4.749366236622767912e-02
7.618205147782264319e-02
-1.768420468783558561e-02
-1.260248741099056352e-02
4.519810720903141843e-03
5.985243628479076927e-02
2.266283182403728419e-02
-7.499043066172869643e-03
