9.737412782319291304e-01
9.161589866415906780e-01
1.005561180141394617e+00
9.085114199061267160e-01
8.658247626757302751e-01
8.155422354569824561e-01
7.483636348104159008e-01
7.113798446606121040e-01
6.446598436637644980e-01
5.394085935606827142e-01
5.355192750398348744e-01
5.230953624636398569e-01
3.655568582277612388e-01
2.648072036768233106e-01
2.694561486825587937e-01
2.263986321023650494e-01
2.449315276433348953e-01
1.549240938820318769e-01
1.836921451116244330e-01
1.292984778941159152e-01
1.244390432236999466e-01
6.147248978645079159e-02
4.306899683133549178e-02
7.860243059691786327e-02
8.096521908434958781e-02
8.203633578689292771e-02
1.024419065005228724e-01
8.606739379312111637e-02
6.781667406251769281e-02
2.783583847865812866e-02
7.221096234490176347e-02
1.201574170855673751e-02
5.581132866942893622e-02
7.266650825796443225e-02
1.084060874666919611e-01
1.072244863076266680e-01
9.992698976558725410e-02
1.278002437009861936e-01
1.468586862539997817e-01
1.702408880934570268e-01
1.666419338312124798e-01
1.360570082064447295e-01
1.291068654519716974e-01
1.428670453990046330e-01
1.879478996696121729e-01
1.660729915144462387e-01
1.798738327565131967e-01
1.328637831107485345e-01
1.988180568098598944e-01
2.298394866431930916e-01
1.755546592909511816e-01
1.943703637159610864e-01
2.128328844282909305e-01
1.335202263852476312e-01
1.937964241225115236e-01
2.301274652288154976e-01
2.046539625956953212e-01
2.406615834792915631e-01
1.894681175027255193e-01
2.211278567618844282e-01
1.506136257798724454e-01
2.056812876675977453e-01
1.622176176469336262e-01
2.014719255835491496e-01
2.057031165095866976e-01
2.242913196271540399e-01
2.310091420838819298e-01
2.190797658180419494e-01
2.400135954464819865e-01
1.968011148066255434e-01
2.527861626874972067e-01
1.838769197179462300e-01
1.999719070620674666e-01
1.870568840381938158e-01
2.056157458094821089e-01
1.117320407545255301e-01
1.657088922545510989e-01
1.298961301570587257e-01
2.070365100935612213e-01
1.873375670601507836e-01
1.330732830494042174e-01
1.160520562501254488e-01
1.403650841916876668e-01
8.349603902484810380e-02
1.134015212381271343e-01
1.598392961835272685e-01
2.039647601934773680e-01
1.618225376779887648e-01
1.287047549201001673e-01
8.641366467313132960e-02
1.063416898455953469e-01
1.085651388916551718e-01
8.861929128538872935e-02
7.055591947147762943e-02
7.461424033282101909e-02
1.216993708964442533e-01
6.092796305929162881e-02
8.164220874624730784e-02
2.502364137828275159e-02
6.473242583731274313e-02
6.311597922953898765e-02
1.646592354163228800e-04
1.606651094899659571e-02
9.874305899750281112e-03
2.157555081279270009e-02
3.659938444455144990e-02
-2.553275757147631386e-02
-2.215794526986235996e-02
4.196959807149047011e-02
3.555166712728978495e-03
-1.967255814320660601e-03
-4.808261561152972485e-03
-5.908213664181219404e-03
-1.263026285008334720e-02
1.483201092055420195e-02
9.652194875453261325e-03
-2.933107564321415020e-02
-3.985408203545013489e-02
3.244175586209941536e-02
-2.969852033669405020e-02
-2.584267009758968447e-02
9.729497344094055478e-03
-5.309628440625240031e-02
2.273653614141486062e-02
-6.063729447233114772e-02
2.973180263870073975e-02
-5.077866249321061343e-02
-4.287102474782523293e-02
-8.298217139118724273e-02
-2.889459854374610420e-02
-5.036022448804503698e-02
-5.919352676167319305e-03
-9.264327415419444656e-03
-2.152280221842216290e-02
-4.046427668177309672e-02
-1.380486028226812073e-02
-1.569918272473146831e-02
-1.511095843003504302e-03
-5.842165094498597000e-02
-6.894964437944868518e-02
-3.606943919091470940e-03
-8.691963412446367110e-02
-4.366435423699789597e-02
-6.070488543080238691e-02
-3.948460803537448549e-02
-9.778492837864730114e-02
-2.320402107065659345e-02
-3.181208157739748299e-02
-5.790153894921590966e-02
-1.011621415043327532e-01
-5.611470856023711984e-02
-8.146755888494286446e-02
-3.749540345602991875e-02
-3.202281129335132759e-02
-1.220557150565289295e-02
-8.982052771922953427e-03
-6.658183639235427942e-02
-1.689684085754793175e-02
-1.249890755848524770e-02
2.534037799829073900e-02
-4.608042164637483895e-02
3.806892642085175915e-03
-1.072752148292936691e-03
-2.918224665010382343e-02
3.347511309544794200e-02
-1.959235398101085920e-02
-6.593357418709526463e-03
-1.068386112645010322e-02
-5.257701076943926966e-03
2.063340721488955698e-02
1.828240399394501919e-02
1.532743849026413363e-02
2.326322552273039912e-02
-3.998823173994893454e-03
5.202261576208012939e-02
5.519584145121313873e-02
5.610187753714140912e-02
8.970543481508769235e-02
9.708026678086228989e-02
6.927748506209774337e-02
9.862724408098050288e-02
9.570941749126785081e-02
1.093778729536919181e-01
1.224209263258026897e-01
7.937253272039707097e-02
9.841562680295454224e-02
1.045006068944612787e-01
5.576409951032152562e-02
7.191476900825985452e-02
1.152657115474065574e-01
1.509342628351094118e-01
9.806550839975544664e-02
7.705929749378545579e-02
1.318795926660700779e-01
8.521231143922447515e-02
1.181611217438276462e-01
1.100729556129334402e-01
1.135669654682040230e-01
8.575594698198391042e-02
7.588314117373762269e-02
1.112120684502130585e-01
1.165684234814250153e-01
5.797906811406645239e-02
1.085567893407382578e-01
7.799147458064845106e-02
6.425285143140412047e-02
7.886963954276760003e-02
1.085167364207529211e-01
1.727587500793190955e-01
1.317695331849204621e-01
2.007158526700012491e-01
1.725536860361348290e-01
3.194394079686148080e-01
2.668483649541975589e-01
3.001612133599794174e-01
3.600097531728470579e-01
4.705061308266417219e-01
4.433971050270851255e-01
5.398763259506788037e-01
6.159918894739011552e-01
6.378046350397985620e-01
7.351340586780159558e-01
8.665257632350779060e-01
8.236560720743328901e-01
8.653182425524332810e-01
9.045984362637210507e-01
8.954734006548157321e-01
9.169747427130199302e-01
9.027985779691122259e-01
8.897208904216781233e-01
8.277154543749561943e-01
8.624412691429350630e-01
7.845894387864820185e-01
6.964650190881574998e-01
7.223536900951904594e-01
6.032047516332808001e-01
5.008476605344809318e-01
4.782257773159970249e-01
4.734299213350975366e-01
3.839925082118725297e-01
2.751502639540372996e-01
2.582990018275460598e-01
2.637433338906176594e-01
1.851818568311861535e-01
1.638807953065257728e-01
1.182780449542484569e-01
1.246978956391879556e-01
9.115266334845423257e-02
9.808026177443304738e-02
3.818572468703478051e-02
8.885565219210747601e-02
8.957868552832599918e-02
3.509991981891631002e-02
4.969846367322270503e-02
5.900667540356516888e-02
5.749911945686518588e-02
5.721441565183509048e-02
1.675609796173914423e-02
7.432882704921593697e-02
5.587233226529442903e-02
1.137649314457963579e-01
2.620774390471793808e-02
1.055276514336171700e-01
1.384554971299725157e-01
1.116707921331905606e-01
9.600875196938316036e-02
1.061877786657855760e-01
1.474947744570976327e-01
6.919192218297470776e-02
1.106968866394928974e-01
1.631186838810876061e-01
1.468822192614102629e-01
1.516388051981047980e-01
1.466522336012936190e-01
1.729614764596217880e-01
1.739394399681476466e-01
1.274367047131888531e-01
2.138118630711121904e-01
1.947464512954364679e-01
1.775311808529591029e-01
1.493003229621592542e-01
2.228122523991748483e-01
1.509656675620775768e-01
2.004313175044710738e-01
1.496498729172681952e-01
2.605321924067963701e-01
1.809252792439105251e-01
1.693369623688384396e-01
2.931296634103451870e-01
2.089924108044452500e-01
1.888571476733759691e-01
3.057418671357812201e-01
1.862304701664547479e-01
2.395206280543775434e-01
1.837279431799408169e-01
2.566872464451553926e-01
2.619048027300056036e-01
1.912008647518546878e-01
2.142396807652926505e-01
1.840754418463018127e-01
1.727176444635418195e-01
2.277809932174802987e-01
1.425501259920120278e-01
2.267812490443993356e-01
1.714606752907231746e-01
1.574083929856593678e-01
1.818375643880915382e-01
1.418379902020614203e-01
1.379185021534646838e-01
1.177144483959408072e-01
1.702684524697291590e-01
1.410281092885426191e-01
1.116100029226862467e-01
1.287067903160074300e-01
9.675607560892020287e-02
1.211067308550353716e-01
9.597133027395152172e-02
1.151807084282292226e-01
1.263871302072707703e-01
7.118610759090786277e-02
8.266083557283783467e-02
1.111879768862813200e-01
8.843859914912019504e-02
4.173387068965715013e-02
7.023683778708933456e-02
7.071727234927956129e-02
3.234252346840847669e-02
4.651586881847126487e-02
4.290071911395957477e-02
5.696295741684590658e-02
3.146119850796957884e-02
7.433191030892843942e-02
1.361631168150165272e-02
6.842185735062913943e-04
1.379107075387759479e-02
3.624095514834717313e-03
3.850814931542974329e-02
-2.695174171245656725e-02
7.652796058120170386e-02
-1.372101029104877759e-02
2.546701236696481685e-02
-3.244365858798965024e-02
2.186593800767529239e-02
-3.604759368199657310e-03
-5.283104553075206045e-02
-3.995346052092889344e-02
3.963998812288489770e-03
3.315809568712142080e-02
-2.397550753957146050e-02
6.366886852012372533e-03
2.418090677880256611e-03
1.229675710463735278e-02
-8.489034598847489121e-02
-6.806496798535739690e-03
-7.752279163972074227e-02
-6.413092381335695757e-02
-4.319573129819617024e-02
-4.476599009504812765e-02
-2.855066771141093543e-02
1.431208717244600304e-04
-5.815688089429670721e-02
-7.357996946593514664e-02
-1.193112961260469479e-02
-1.323578196585959224e-02
-3.226257292776622126e-02
-3.468025019371719087e-03
-3.020068005329204497e-02
-2.991988048419683480e-02
-4.117840799781176397e-02
1.697604069792057330e-02
4.764912503100656588e-02
-6.846422912270937189e-03
-2.268898584491415432e-02
-1.038602806932607120e-03
-7.360253376126982272e-02
-1.986012477016137201e-03
-7.573173666744502375e-03
1.522233898564955348e-02
-2.703357513559263847e-02
-3.422308424966295781e-02
2.499006896006502818e-02
2.597582727357880886e-02
1.834687031871217247e-02
-8.062551157993015638e-02
-1.389234129966297401e-02
1.734172272463591069e-02
-2.499487294312660243e-02
3.585656335831728658e-02
5.295758560248553515e-02
4.118246245353858470e-02
2.226709318103337054e-02
-2.151795519608612137e-02
-1.447241276511628330e-02
5.946999391792362477e-02
6.122171207461898912e-02
1.317774262948559483e-02
6.463124811272361048e-02
6.514694445100457920e-02
8.127168905318907233e-02
7.434839176034352404e-02
6.590501233684381566e-02
1.385799220549977506e-01
1.325243951955463184e-01
8.143924074048557171e-02
1.094890580508318945e-01
1.319232165358921183e-01
7.883913521592669782e-02
1.404819972896250713e-01
9.594568146996984570e-02
1.118545536334989571e-01
6.799117686625050228e-02
1.267434428358646947e-01
1.398261887253340607e-01
1.443460253786287006e-01
1.536579225114100278e-01
1.376379839721125764e-01
1.653280260483063202e-01
1.731579027785776215e-01
1.575984977521016073e-01
1.193814143966292346e-01
1.465682177329883373e-01
9.473008486349515644e-02
1.601474457080618863e-01
6.809311805173839938e-02
1.087443178442686897e-01
1.190286094893010099e-01
1.258763767436437142e-01
1.279051688621011262e-01
1.432270390133626448e-01
1.420825095784024605e-01
9.080680690239734121e-02
8.675649331722679047e-02
1.216950445942585474e-01
1.483949530525782989e-01
2.060908775113912128e-01
1.510173923298978038e-01
1.248005200083148331e-01
2.463476220970791108e-01
2.748879382249935777e-01
2.558956873556592071e-01
3.367814879941651851e-01
3.781019224939120571e-01
3.594078151023221146e-01
4.673233480591763578e-01
5.280438771364153183e-01
6.037024657805420969e-01
6.016936336110977335e-01
7.681661721061775472e-01
7.984821676405955415e-01
8.876711921145982176e-01
8.429476293481503735e-01
9.142902764888015676e-01
9.758814756815754610e-01
9.326358306514360708e-01
1.001423239227948514e+00
9.885547004327324139e-01
9.605854509429831989e-01
9.500910700508059525e-01
9.247609387864360597e-01
8.292923432247335525e-01
7.668889204802821213e-01
7.619558693447445741e-01
6.431976596883034469e-01
5.812923255729374183e-01
5.730620815871780849e-01
4.852597283767863812e-01
3.909309870883657112e-01
3.332308271545560974e-01
3.463392254657278735e-01
2.709338484937671154e-01
2.136709612913955392e-01
1.185101457358017363e-01
1.647541234797920418e-01
2.063776250414733615e-01
1.300851924699881756e-01
7.671461734232082330e-02
6.969902517050925728e-02
9.272589286245151718e-02
6.118351943290115114e-02
8.682828106930395862e-02
9.420658024000075348e-02
9.650963963752935693e-02
6.548146810117072558e-02
1.012929415852359405e-01
1.259395081372153835e-01
8.984348682262155439e-02
1.266625655718415788e-01
9.469023916847807421e-02
8.999235625790621973e-02
1.373007643888633778e-01
1.957399142948233750e-01
2.090138747593656976e-01
1.332218238167897084e-01
1.729683342852776917e-01
1.480664665742845165e-01
1.845660339418345453e-01
1.897341275776294189e-01
1.691860496688723514e-01
1.421548164005824177e-01
1.724509536989831393e-01
2.135973847431509032e-01
1.840513171849672835e-01
2.554012334578766308e-01
1.666186179590371241e-01
2.149677318750701505e-01
2.530651125705967175e-01
1.207903074115215247e-01
2.630191092774275541e-01
2.363649552247092389e-01
2.401632537843944593e-01
2.327475593839184453e-01
2.793844161197923115e-01
2.364240971720015239e-01
2.897350200225992656e-01
2.559805299018625413e-01
2.627855133860961256e-01
2.881916149094053692e-01
2.306946985297866348e-01
2.239307685722324026e-01
2.554972219772913000e-01
1.954250553442615224e-01
2.004783894897139152e-01
2.697693312456536097e-01
2.296214070812602759e-01
2.804741220044861261e-01
2.600478289287487810e-01
2.092209765515345710e-01
2.320776173347195437e-01
2.176708612094329920e-01
2.315889715080186040e-01
2.292862297508489189e-01
2.733793878833434277e-01
2.076360388814680324e-01
2.112549555148550973e-01
2.938101465197623385e-01
2.856128594618436711e-01
2.418023484737360229e-01
2.169412319480268914e-01
1.747357260316429461e-01
2.048211593935400643e-01
1.888394940758697793e-01
1.992238143853891363e-01
2.178559422181016170e-01
1.722160074880087210e-01
2.019368878692647529e-01
1.372315615758734064e-01
1.145065327632830282e-01
9.732367827469445842e-02
1.613627020414617752e-01
1.320610055975870167e-01
1.193784796761022948e-01
1.068737069385298222e-01
8.821367176707856084e-02
1.268622110812528958e-01
7.108512753978803167e-02
9.441775379009276215e-02
1.269654724176932925e-01
1.106470318562013944e-01
1.338219494992007597e-01
3.295252013918718165e-02
8.882746356590637271e-02
6.308877824300249126e-02
8.097307086070192061e-02
6.141110368818603060e-02
5.402708331579342965e-02
9.116726378950687493e-02
2.288369838294795205e-02
2.178446813604160287e-03
5.780909024367266585e-02
5.955725964053003307e-02
6.203572061717805425e-02
4.081994482345589065e-02
3.110017521500556964e-02
7.696636945213637671e-02
1.276712626495262945e-02
5.186434445892561251e-02
8.569712063230930377e-02
8.136814281908499175e-03
2.884666395213575374e-02
2.298219777071008885e-02
5.760111072326501436e-02
1.008632621043280414e-01
-9.477100516502069000e-03
-5.004015238252609160e-03
4.368281226907487491e-03
-1.248520326686184193e-02
6.154030294885065588e-02
3.904024593047152047e-02
-6.400108013513476635e-03
-4.384337614770628805e-03
4.664663195990897959e-02
5.018856949797176337e-02
7.103379415001126462e-02
2.016144117615112363e-02
5.995579840451174120e-02
2.240655962424386097e-02
1.376299329507932670e-02
3.497091254932135213e-02
3.242064537815024516e-02
4.001224920838866717e-02
2.672184498739892458e-02
3.533112454398501523e-02
5.002980224326850772e-02
-3.665078935723574405e-02
7.545037400532635108e-02
3.429454651940266885e-02
1.179274579921833765e-02
5.647024673740681788e-02
-3.076475521618823178e-03
5.098597545029585898e-02
2.495498828543333408e-02
5.959618236486006332e-02
4.969471397305552651e-03
7.377447479424766030e-02
3.176565380635410635e-02
3.193729037894142003e-02
7.953650150509375405e-02
6.303296191106537438e-02
5.912645669049523822e-02
7.190904456309221704e-02
8.811359711174816811e-02
1.262491949014444836e-01
1.324800599180294691e-01
9.963065711082477738e-02
1.352597234527899983e-01
9.494248716505257479e-02
1.546670070301472411e-01
2.043650111320732266e-01
1.022835819073408536e-01
1.295601931731008849e-01
1.018307811450200606e-01
1.181028179396998168e-01
1.456618501255384501e-01
1.842191602521596749e-01
1.364106653789797508e-01
1.707090162370940578e-01
1.299679217038001433e-01
2.149634073111798549e-01
2.104955341556280224e-01
1.480927203554482652e-01
2.096535606902208138e-01
2.181056870808700532e-01
1.527792738071396261e-01
1.835324475212784523e-01
2.536697825278778073e-01
1.431448768859722720e-01
1.963582913642294980e-01
1.107884254339443347e-01
1.949942719208203057e-01
1.765228360907538097e-01
1.189708423430642231e-01
1.429187297720228289e-01
2.162099302077664653e-01
1.447024233443133245e-01
2.091118395145753206e-01
1.526621727164470255e-01
1.490700778842829199e-01
1.973945182793324926e-01
1.450648483606135075e-01
2.028792301047209201e-01
1.759804947198507774e-01
2.499480464325433693e-01
1.860055378371349155e-01
2.312478814453550191e-01
2.679648063231282462e-01
2.821279924920901960e-01
2.716631165965866512e-01
4.068487740497165328e-01
4.630724819383931767e-01
4.822927359749196174e-01
5.790206287998476142e-01
5.817769313803449194e-01
6.429637942728259059e-01
6.613811549213570729e-01
7.567109413630055403e-01
8.313938823020728952e-01
8.959819369296712077e-01
9.142869708164429454e-01
9.649949002465291192e-01
1.026759965455527945e+00
1.041405989454050163e+00
1.046925527517096999e+00
1.014782542492889128e+00
9.524786967458293008e-01
9.639118800308343893e-01
9.575153957731293852e-01
8.345341547838470708e-01
7.933993486914856508e-01
7.842411155575508275e-01
7.686679154972029249e-01
6.754304668493895658e-01
5.683186162920799145e-01
5.220681736890058211e-01
4.728658735811626102e-01
4.043241972773672366e-01
3.375375944018972896e-01
3.245094468470630655e-01
2.062743230179875098e-01
2.806371139528696657e-01
2.061252237846510904e-01
1.659371410617654918e-01
2.190164892967415011e-01
2.111610923469552925e-01
1.711223935449354694e-01
1.365054466493654250e-01
1.221409880117532015e-01
2.060335826755257949e-01
1.350688609677006546e-01
1.962886812616728149e-01
1.742659332609555467e-01
1.419882106639920039e-01
1.729855330181989670e-01
1.505049748913805385e-01
1.740667799617232059e-01
1.747598159674051133e-01
1.113213906698383160e-01
1.561606948213415946e-01
2.314991001008467886e-01
1.675404145667493960e-01
1.772458405283889871e-01
1.542237646693185305e-01
1.732230301214445767e-01
2.064426393545689686e-01
2.412287433837171369e-01
2.611476438992807458e-01
2.239273594420005120e-01
2.482901773240038246e-01
2.120684120386095994e-01
2.903845592510203577e-01
2.564340999290699585e-01
3.123379179406681194e-01
2.517314702528745674e-01
2.873480150353322493e-01
2.805709515837614410e-01
2.674199642024640555e-01
2.971004945058158819e-01
3.134955330443316979e-01
2.710358377536923880e-01
2.786967140292646028e-01
3.177230897473004023e-01
2.783790564260504308e-01
2.849157943538191962e-01
3.390155860419066247e-01
2.898640986112107631e-01
2.909899239568582430e-01
2.904372234356238369e-01
2.401406867207254714e-01
2.868630520474780843e-01
3.427830820057950478e-01
2.407166212629177349e-01
3.069497237897361175e-01
2.581044655913827812e-01
2.609077216508822739e-01
2.767481197210157617e-01
2.551411706411037539e-01
2.454503487097943193e-01
3.304068558440135250e-01
2.605934249959057647e-01
2.920620139798373316e-01
2.420548485918537218e-01
2.559691429643151661e-01
2.274874766986451913e-01
2.314859511007667237e-01
2.566480267824112205e-01
2.683603602538902066e-01
2.259430970023773022e-01
1.849415840232321584e-01
2.462011623641539304e-01
2.078035561180394952e-01
2.030381815405292723e-01
1.633924994025893751e-01
1.717899923451074451e-01
2.220363348682844185e-01
1.982634996910684622e-01
1.440266558951372178e-01
1.916193774065117483e-01
1.528131968443258715e-01
1.485814065284401242e-01
1.855507178505432786e-01
1.312106155404987873e-01
1.272147570465592681e-01
6.804343640008930771e-02
9.460318383483794225e-02
1.233958434863309805e-01
2.021201962248659334e-01
1.155889785678933246e-01
1.447480657582096986e-01
1.335899092490733242e-01
9.992415528794479362e-02
1.656444162143560772e-01
1.193322518372656876e-01
1.045430186860000221e-01
1.052587746738407881e-01
5.403287670068903509e-02
9.830659532782726195e-02
8.631761881060057151e-02
1.017764495666063918e-01
4.728038399126998498e-02
7.867658654000438123e-02
2.457579324206011703e-02
1.435162689478797909e-02
8.399158897948577618e-02
5.113645477062628286e-02
8.048454573978146287e-02
9.968133404388809793e-02
4.651007111504387725e-02
2.183160322685688895e-02
6.767278754669506236e-02
8.257183787383673423e-02
4.095582906031753484e-02
5.307077585042468265e-02
5.979299047396711975e-02
1.347914380996195760e-01
4.344549145953242875e-02
6.542665533646442599e-02
6.700881846042855416e-02
5.004320857544732742e-02
5.951934883730075621e-02
2.021027710928803567e-03
9.230995901435781748e-02
1.026372810849768002e-01
4.863450766274295817e-02
4.872296370853077679e-02
1.437108626645226817e-02
2.911513501856408462e-02
8.528477679564527847e-02
5.093388505663617311e-02
7.677880399011961787e-02
9.508986843390351829e-02
6.974315309884440706e-02
3.767841475490992659e-02
5.390385759263924270e-02
1.048511473951474482e-01
6.533462065683658115e-02
7.826033260462725294e-02
6.210562868252778729e-02
8.091262449667414869e-02
6.275944265752138318e-02
7.704178823666292530e-02
5.048331118890822533e-02
7.086584806703447037e-02
9.944229736270296383e-02
3.875618641155911814e-02
9.228184319911794664e-02
7.205905961738144627e-02
1.117021039575926966e-01
7.068872816954716032e-02
1.202752028594267636e-01
9.133480780750562189e-02
1.096781351841452923e-01
1.559425286120992293e-01
1.595468389135937803e-01
1.432506472858641466e-01
1.297913972113940995e-01
1.743846788056181984e-01
1.141704847491993857e-01
1.602297981618970302e-01
1.777467137067147707e-01
1.618394588383397503e-01
1.714448227007943082e-01
1.591796374233827305e-01
1.646621543256793774e-01
1.833079328815236386e-01
1.817458990950952813e-01
1.679685811182593247e-01
1.985720105094576082e-01
1.675168047001362459e-01
1.713470631751639051e-01
1.798851071235628707e-01
1.801659004381789830e-01
2.329389912801990148e-01
1.966202018530311124e-01
2.280053597451279501e-01
2.073507734952431403e-01
1.912682327651201164e-01
1.351660357202831009e-01
1.657583278098718471e-01
2.364328811055333712e-01
2.305609804278726527e-01
1.888743056748704574e-01
1.458015454585059878e-01
2.080550674224753149e-01
1.937224822134352153e-01
2.174693723230683162e-01
1.961669670904687690e-01
2.077237730365995294e-01
2.537921842069648104e-01
2.081940315907400141e-01
2.030906225559301614e-01
2.845793054909671049e-01
2.469118136801882468e-01
2.803772454322490670e-01
2.792941391668863904e-01
3.578312159120079494e-01
3.563889090402856397e-01
4.288329033657792833e-01
4.741816246874437923e-01
5.262927382653844743e-01
6.014742994200019677e-01
6.940879404196523828e-01
7.238273722484579453e-01
7.459969501649130752e-01
8.133699254101813825e-01
1.006864131090962289e+00
9.034855589314683133e-01
9.530744834205610028e-01
9.767460824595933788e-01
1.041809797900311585e+00
1.016148014381712983e+00
1.050053199266473669e+00
9.899627158868594679e-01
9.722409591105656279e-01
9.622882065586461087e-01
9.260079424451255203e-01
8.857305292493447002e-01
7.810281546266663044e-01
6.988900379583201650e-01
5.979182434849702465e-01
5.819675535445397729e-01
4.839069541189345847e-01
4.871448188693477954e-01
4.397043334469540321e-01
3.689343072175156335e-01
3.274842117567663413e-01
2.658353907244433434e-01
2.553933603456801649e-01
2.000249399531155436e-01
1.695926739580252141e-01
1.759018996316681072e-01
1.699113321163061019e-01
1.658053359746479716e-01
1.595281385764703297e-01
1.746917551739378960e-01
1.278963602137689337e-01
1.370828498208758739e-01
1.527835709911386231e-01
1.348785256807186195e-01
8.867019989142618797e-02
2.035699412123982699e-01
1.514612340669913015e-01
1.785348760327507001e-01
1.151137278158178567e-01
1.648139023678011073e-01
1.764599973110227149e-01
1.901064085351209521e-01
2.242597572795679839e-01
2.259585466898507145e-01
2.012049470782947547e-01
2.296205094351342624e-01
1.902336597037745658e-01
2.029765862237357110e-01
2.371809206165075568e-01
2.901651563503804820e-01
2.499930492360855905e-01
2.254558493660790142e-01
2.369143343435805571e-01
2.655284401221617019e-01
2.832435545208030758e-01
2.158425030999652772e-01
2.799200524406132429e-01
2.277037344682384945e-01
3.111366822166880541e-01
2.691944623235396072e-01
2.858475594088526472e-01
2.435154962523172761e-01
3.052324686466721393e-01
2.757175160987740403e-01
2.519973326427883409e-01
2.567072569531143045e-01
2.756860302199596324e-01
2.318047189156074994e-01
2.868487744620982771e-01
3.200197944981546527e-01
2.838302241859638197e-01
2.766171197306781515e-01
3.050230607938761995e-01
2.411292318145194791e-01
2.910147970415994934e-01
2.559923644205875926e-01
3.053619467405622734e-01
2.391882004221151936e-01
2.507080788967248064e-01
2.817210372146686237e-01
2.548248427542786909e-01
2.402057190433909140e-01
2.276763759551614363e-01
2.398739689605867975e-01
2.038441321348939683e-01
2.279822140833633604e-01
2.686379160650272935e-01
2.050834514852682144e-01
1.761595234082105887e-01
2.033600002349585933e-01
2.557447677817594744e-01
2.284976302301706952e-01
2.147333317752337378e-01
2.113538283446366739e-01
2.149357685821501884e-01
1.784341559183949266e-01
1.263815618638550464e-01
1.399073060949361513e-01
1.639267864436877442e-01
1.377160979705199240e-01
1.724939204697600870e-01
1.641993914759043438e-01
9.895382321997384101e-02
1.091680495099821568e-01
1.484980117756645734e-01
1.317745483244788518e-01
1.328550308506395994e-01
1.474288325828778667e-01
3.153824213536589316e-02
6.215150638697505836e-02
1.046221740561880525e-01
8.471666612865608181e-02
8.939540588111415109e-02
8.071994355349734751e-02
9.968683460385791006e-02
4.586140352331757875e-02
1.122718408149268876e-01
5.334071906517075246e-02
3.451072661997842128e-02
8.726569280214692415e-02
9.111587268767851189e-02
5.382404190429864593e-02
-8.883502439439479315e-03
4.891591431151023905e-02
1.995406518388877226e-02
3.735655873978775687e-02
3.017398330783867960e-02
8.592293753141493073e-02
7.723429481999112556e-02
-3.203671614594587325e-02
2.120342363832929122e-02
2.272155906273445880e-02
4.032115874174795056e-02
3.757997059028110598e-02
4.802131074342369521e-02
7.354322233409119058e-02
1.507510578485404817e-02
2.071846553909256761e-02
1.932962050164884621e-02
2.927796695153465911e-02
2.346837500342876040e-02
4.781966438084888499e-02
5.089958057116511503e-02
6.380946233407522317e-02
4.101189325036579819e-02
6.621603736252655581e-02
-1.291601424058798006e-02
4.541485771164596730e-02
3.708769128285719502e-02
-2.584721543972721622e-02
3.488663303158608120e-02
7.307384143841941931e-03
7.265191777882072655e-02
-6.210197844914680521e-03
5.988850217332583603e-02
2.483863411166339560e-02
4.313048112426716429e-02
-2.537978681022530492e-02
5.987560475542950955e-02
2.526303683512911430e-02
4.242935141181636283e-02
5.822832001080363584e-02
4.769870704187884058e-02
4.267876841154168155e-02
5.542679933009173748e-02
3.941129525800786404e-02
1.019813746451291303e-01
1.066777556754333056e-01
6.188622604382203185e-02
1.210062217510660537e-01
7.073583777289586816e-02
9.447794139968417049e-02
7.970770333017036802e-02
1.264329277195743451e-01
5.189477359748034813e-02
1.446488425554320889e-01
1.611826749671264880e-02
5.099840208866805724e-02
1.133881630134601637e-01
9.071237706495717534e-02
1.487573390908642768e-01
9.451842786104693028e-02
1.499174220787516665e-01
8.847057868954413817e-02
1.007449975125642716e-01
1.231625477220777420e-01
1.029364048509308904e-01
9.300468084453014650e-02
1.369098702268601586e-01
1.399674531372161190e-01
1.540996558022879048e-01
1.685217675378213320e-01
2.085260204371700565e-01
1.837308815489694380e-01
1.378835539878870975e-01
1.073703987735972476e-01
1.650207823388496198e-01
1.005518271501027183e-01
1.576697166221803503e-01
1.450561981405112388e-01
1.599495038936090407e-01
1.703328807673334111e-01
1.545083454799312528e-01
1.659779323158207254e-01
8.252373839235399577e-02
1.062390748620160169e-01
1.523043544048841569e-01
1.481339322507218559e-01
8.078953144272918441e-02
1.367466028625675956e-01
9.753892254062963840e-02
1.204898244228502641e-01
2.086578141300661493e-01
1.912512677008151307e-01
1.947782731384359867e-01
2.397666241047345936e-01
3.020409108956786937e-01
3.045218632855591356e-01
3.527299987480498888e-01
3.684667512448169813e-01
4.068570003717904560e-01
5.075539936493880244e-01
5.448300057449840805e-01
6.059921209427857614e-01
6.563139568554721137e-01
6.981411658246586827e-01
8.026758330734942160e-01
9.015584065842776607e-01
9.201758284807338706e-01
9.552579368423422812e-01
9.569012523822930660e-01
9.657541537483719241e-01
9.886832441757041900e-01
1.000689224022633717e+00
9.650305321765874078e-01
9.068979289491321261e-01
9.248433448831299142e-01
8.174388892274614404e-01
7.863958245548237080e-01
7.165996028094997472e-01
6.446039151744044071e-01
6.103417766850895987e-01
5.685825681033206402e-01
4.780090962200373439e-01
4.537576454098949386e-01
3.415669723310699180e-01
3.277786396507696987e-01
2.857199262846856769e-01
2.766449326394141983e-01
2.149729592475269901e-01
1.695066477767157853e-01
1.704558017306015416e-01
1.394498889242901385e-01
1.455408860632461110e-01
1.447452605876331511e-01
8.053380970111705117e-02
1.123786993065218898e-01
1.381089226331755071e-01
1.272694375883124673e-01
1.082732802361464214e-01
1.182786755668435441e-01
6.714470952890612410e-02
9.876201577554458155e-02
1.124517277808654847e-01
1.247362549413738864e-01
1.490033266602545370e-01
1.047885460484257319e-01
1.569429591556631420e-01
1.566315209650905316e-01
1.585171531609175510e-01
1.369355580782870563e-01
1.195175372093074811e-01
1.360318006096974952e-01
1.565265024554345352e-01
1.690882354026479739e-01
1.777435928752172656e-01
2.051742725431795755e-01
1.838153072503614927e-01
2.224160957554657814e-01
1.756521399379180892e-01
2.778509164109806417e-01
2.612034593175404096e-01
1.890067051730147107e-01
1.778604546047907464e-01
2.016169151044455987e-01
1.726943249367773880e-01
1.969266504633802872e-01
2.116680012518116771e-01
2.134430033709632801e-01
2.797954672916270202e-01
2.033827271896906652e-01
2.213323880100786512e-01
2.718222978255404043e-01
2.461009461625026928e-01
2.258631751396883991e-01
2.266966132301707071e-01
2.451673458365550284e-01
2.535632588719183844e-01
1.788111610623017156e-01
2.270831897931011867e-01
2.521130525580122517e-01
2.566069461206910152e-01
2.401441182356735260e-01
2.029741645900761116e-01
1.867550802457611792e-01
1.997210471947545030e-01
2.446218675744307181e-01
2.291353056879348871e-01
2.106926577581485771e-01
1.901462328075703145e-01
1.730830327577158323e-01
2.121137230125505757e-01
1.762286846415900554e-01
1.779989301210243013e-01
1.519894867291589347e-01
1.290738996679484107e-01
1.298717235247598412e-01
1.490373679946901120e-01
1.039602563593790968e-01
1.200621762733657949e-01
1.230974097722793148e-01
1.288443343753771786e-01
1.538768878142659779e-01
1.301717092506041729e-01
1.135850755047787403e-01
6.215736484491131419e-02
8.873852618410529858e-02
1.095383319391696614e-01
1.014938460277453880e-01
1.068279685613870295e-01
1.262216506730093890e-01
1.003458097764332035e-01
3.083932678585329934e-02
6.732415763639826300e-02
5.664230431403433769e-02
4.304167944520963240e-02
9.809195219001068389e-02
3.027465243875782086e-02
2.915325851982372360e-02
3.878244082788377678e-02
4.431277910232912787e-02
3.356606654958625702e-02
-5.745570239240545968e-03
-5.521786110650638707e-03
5.683824065412796528e-02
2.264981093680287078e-02
6.906565601592963566e-02
9.907385114806301074e-04
2.853061833932347274e-03
-9.882360979592150207e-03
-3.687943210648952225e-03
-2.842813172880108777e-02
-4.051852693906994596e-02
-3.022044947464982978e-02
-7.426581496580979269e-03
-2.126559499554873250e-03
-8.824728473213427210e-03
1.577771454092192355e-02
-8.677090361002472857e-03
-4.308943031231764198e-02
8.366892679156769791e-03
-3.683428978152140931e-02
-2.506412230511434469e-02
-8.485426991985456358e-03
6.578603473513012362e-03
-3.475203454249693041e-03
-3.328048008652072232e-02
-4.888995857851131249e-02
-9.240729162499877747e-03
-5.640233622641563360e-02
-7.046682098412486439e-02
-6.254731906040542078e-02
2.766577656943700059e-02
8.295760173791522085e-03
-4.487095662950439656e-02
-2.305619362496443697e-02
-3.204308823730710187e-02
2.234725835827162249e-02
-2.604606573134884279e-02
5.267317059353943121e-02
-6.734481610317363809e-02
-4.387455232393958071e-02
2.430631768515673780e-02
-4.828099562909941855e-02
-5.751666038240703382e-02
-6.735035243478448841e-02
-4.204137610667199598e-02
-4.361180802607846074e-02
2.485054040855882301e-02
-7.162778529638532538e-03
-3.599351009260941259e-02
7.205234990492713487e-03
5.147682562650475468e-03
5.061972957339373053e-02
1.626120290978062127e-02
3.706866671715886713e-02
7.442363903050233653e-02
-2.183917142540559714e-02
3.022671539802460061e-02
8.225145230721436773e-02
-1.356313467233194459e-02
1.059176282622040222e-01
3.087937230701039149e-02
4.059656720917755035e-02
4.848365860801605309e-02
6.504656928506857838e-02
1.368569485958398002e-01
8.888647618251019344e-02
3.816055355883360423e-02
8.858907441569718877e-02
5.666287776161058054e-02
1.163420700764673521e-01
1.195986150416728372e-01
6.288270274186819053e-02
1.170900597649288943e-01
1.152367788899624629e-01
9.081540253476835800e-02
1.046047549369140128e-01
1.278582946344645477e-01
1.297456758085170636e-01
1.309646401794296589e-01
1.092210775746654400e-01
9.251325957556197355e-02
1.284208605951502047e-01
1.302254500511949020e-01
1.117087916692079130e-01
1.034280510138907705e-01
1.191675700990227904e-01
1.349989525454214356e-01
1.195110231027239345e-01
8.109997333821256094e-02
8.052914401916458353e-02
5.105768595364330864e-02
6.374111465231420415e-02
1.141087038153144606e-01
8.544632405838387124e-02
8.063626121356710919e-02
1.327706104719470759e-01
1.057755546657178636e-01
1.292720473736765074e-01
1.358567988055169873e-01
1.912165513180393572e-01
1.786508055608042600e-01
2.132286879591515083e-01
2.227012458712131493e-01
3.172119477014899158e-01
3.355572141824962884e-01
3.772123322260274580e-01
4.314858093208809309e-01
5.450397211914816964e-01
6.134425760360283642e-01
6.405226246868741535e-01
7.227339457957474567e-01
7.756302676342159419e-01
8.451655510749507272e-01
8.593456934355042653e-01
8.841191200497037217e-01
9.966003710468713805e-01
9.437213970613141933e-01
9.173951959212809371e-01
9.285293135212075999e-01
9.211131929445721678e-01
9.075230252535974040e-01
8.496732761232942410e-01
8.457445049371312695e-01
7.678013119422852917e-01
6.799101870112328472e-01
6.556324382551562691e-01
5.679278181682998472e-01
4.933365947013368946e-01
4.458095370488311948e-01
3.515054372855924147e-01
3.063219606493992608e-01
2.714619969020813928e-01
2.412054816806402102e-01
1.467553705644548123e-01
1.241756604636825023e-01
1.046685721452029622e-01
9.732716473387925671e-02
7.262166295119754089e-02
1.074294507641036789e-01
9.971967294020445127e-02
1.214493843080963476e-01
7.513968774766274783e-02
3.681965710226835220e-02
5.722168333105483867e-02
9.203645189078996092e-02
9.974093492741351041e-02
8.758105336670680974e-02
6.664140322684608542e-02
1.169247117206575481e-01
1.066564338580263116e-01
3.989281159668957993e-02
7.362403860243038611e-02
9.045932281750099224e-02
1.381877786158062782e-01
7.304593505272041765e-02
1.308644687563612075e-01
1.361484548051144494e-01
9.022253205710661916e-02
1.544981473165210339e-01
1.114514980410499512e-01
1.392131019995653807e-01
1.207733668290182638e-01
1.868145439628482174e-01
1.970541352370082377e-01
1.861172637270784025e-01
1.968796273336804736e-01
1.542024032142896017e-01
1.829559879991118354e-01
1.973430357648019995e-01
2.013436244059648439e-01
1.274262855276243056e-01
1.451258450334431682e-01
1.819465909649897739e-01
2.296296974546613856e-01
2.018145080309947659e-01
1.917505171912242401e-01
2.167282337106704593e-01
1.537795025005682659e-01
1.933958016920868384e-01
2.167002824427704810e-01
2.011076587099384361e-01
2.117074237574035067e-01
1.972691825512983832e-01
2.040416224904591513e-01
1.737349611262127280e-01
2.039399818866022007e-01
2.199165145253305920e-01
1.814317958401080455e-01
2.385860101859917648e-01
1.646794867594266742e-01
1.726429118290341291e-01
1.368141054970376802e-01
1.619573192670424877e-01
2.029858379308369376e-01
1.540827161718733851e-01
1.653683590161727224e-01
1.470083112059058505e-01
1.578533960844691608e-01
1.503633572651852934e-01
1.252083830265905973e-01
8.813235031458618862e-02
1.000835165776996077e-01
1.420435760407974535e-01
8.799340380401202144e-02
1.331867923761237971e-01
1.252200439537244914e-01
4.815246774268730490e-02
1.144597746369706293e-01
5.529171234811525865e-02
8.934393068357884826e-02
8.357817635475520146e-02
5.315821025012344020e-02
7.644179552125465738e-02
8.155392876666248125e-02
7.532235982780929873e-02
1.320243628912254330e-03
4.207298417107596666e-02
6.225807916839923295e-02
4.137287393526052626e-02
4.083671489622547890e-03
-1.731988965180886186e-02
1.220973272945243687e-02
-2.634991228976947542e-02
-3.222709347281825509e-03
-8.011013066788544301e-04
1.785550081280769252e-02
3.461167040375343062e-03
2.162019862396717673e-02
9.454778755668691304e-05
-1.747445024584907969e-02
-3.200620152320049483e-02
-1.383382905968944671e-02
-1.338869971409985954e-02
-5.328977522429668989e-02
-5.105650938207875744e-03
-4.338011963596236087e-02
-4.748349663205405496e-02
-7.595080022790794139e-02
2.852932350118075888e-03
-2.726757287176290873e-02
-2.166015586761348144e-02
-6.453271779650585072e-02
1.688111482382764761e-02
-4.533640101978367309e-02
-9.890948792313593307e-03
-8.438308172301413335e-02
-3.171379478132529961e-02
-5.777824142379846262e-02
-5.929190416182023027e-02
-2.457156849768076315e-02
-6.817943528334369230e-02
2.365226382184702769e-02
-1.149649846843380091e-01
-6.641471869238577130e-02
-1.001993557438175253e-01
-6.741845980203677036e-02
-1.148475409791285123e-02
-8.549401103045631278e-02
-1.866567226993971068e-02
-5.373687580921142348e-02
-3.236778370710782782e-02
-4.058867477132786783e-02
-6.693194881811806440e-02
-3.134414732887168265e-02
8.394832691441700412e-03
-7.559997367266042823e-03
-1.963459911224080603e-02
-1.353533448680933199e-02
-5.028506887629967392e-02
-2.362999546451192978e-02
2.376466108998801646e-02
1.752111976532648441e-02
-2.167794382670997985e-02
6.205704732133998647e-03
-1.034122192755263653e-02
-3.196237409704022481e-02
-3.390885469910295824e-02
-1.925964027707877113e-02
1.536247126573148797e-02
-4.313204321890014292e-02
7.940237884060105666e-03
-1.569000215031809628e-02
3.242185827361161732e-02
-4.009873931363185096e-03
3.941673007867949052e-03
3.179758411511755117e-02
1.967975885910722839e-02
6.380791062494547972e-02
5.710579276457336539e-02
7.005237686804048625e-03
-1.050971045760924760e-02
7.702823147069837173e-02
5.296465784825491602e-02
3.794694806338614473e-02
8.554326634722544953e-02
8.201239996284684364e-02
1.209341961689652523e-01
1.099085695867625806e-01
1.231472115497479758e-01
4.865685431548755213e-02
8.025531868123120249e-02
9.985396393610479482e-02
8.026446780402129999e-02
1.164228783194532491e-01
1.139821318366299741e-01
8.104744410598702098e-02
9.257518111482315737e-02
1.228663287000006377e-01
1.065241381880125959e-01
8.429417263568356189e-02
1.238905955139064929e-01
1.210878419935264294e-01
8.108558322251442629e-02
1.941446874770960673e-02
4.518201042530992084e-02
9.492963258003872529e-02
1.223534679742909193e-01
5.415290904155540402e-02
7.723515496413667358e-02
8.576564045940621162e-02
6.180523835531251398e-02
1.131963476612943276e-01
1.229305449374317183e-01
7.096969297939545451e-02
9.186470185543464673e-02
9.230908621680225523e-02
1.641496366288013320e-01
1.671219035710204692e-01
1.916161443846203793e-01
2.530929585270725868e-01
3.101592709830259254e-01
3.200437872568596132e-01
3.513551365983625385e-01
4.252529482905694769e-01
5.027895918178912904e-01
5.823866301520476130e-01
6.157617068658615134e-01
6.954054167369823070e-01
7.228953101803596848e-01
8.001692232042189046e-01
8.680235071931157176e-01
8.931987124052461757e-01
9.245431298174509038e-01
9.803489071483610928e-01
9.721908273547148482e-01
9.729611293164490693e-01
9.622522764713266064e-01
8.506258035706422138e-01
7.755992338580923739e-01
8.252894149256557732e-01
7.149274923746984367e-01
6.896484696930498259e-01
6.128841462088430170e-01
5.377024253642997964e-01
4.480874092490495508e-01
4.317713397428087352e-01
4.047747556753564235e-01
3.366259379772584270e-01
1.961023194017378068e-01
2.140281969799434636e-01
1.703326996579666852e-01
1.318771112325274886e-01
1.387840210880027791e-01
1.482842382337939968e-01
4.883125425547423654e-02
8.823379108491882783e-02
1.027890759964454059e-01
1.053579393172961731e-01
4.954470636996938931e-02
2.196280925674434781e-03
8.617247862637913980e-02
3.235145518322766339e-02
5.990201890752747810e-02
7.765940261570866698e-02
1.058723404544057722e-01
6.691568843652553888e-02
7.810628479663342394e-02
1.100021802909170177e-01
1.761008448557242478e-01
1.156551457233765678e-01
9.329111434245894452e-02
8.474210169294019157e-02
1.212365401884960975e-01
1.303639687152889637e-01
9.397180618192478574e-02
1.729978581369633894e-01
1.355890428113364354e-01
1.336017862752073293e-01
1.579914880989845005e-01
1.492370388986555829e-01
1.418435370472846402e-01
1.372827761286614379e-01
1.938501237959962820e-01
1.108211488272485834e-01
2.021716602978629318e-01
1.779408260328461389e-01
1.838333563262169734e-01
2.513371161585856717e-01
2.523597435680179912e-01
2.041408205403769105e-01
1.901832482425788451e-01
2.614498982061874699e-01
1.793020433074024589e-01
2.288358262215602623e-01
2.382419659352245089e-01
2.908752810270756606e-01
2.167710601561986805e-01
2.252000779496801663e-01
2.208796695176429570e-01
2.331014008689008543e-01
2.432889082824806759e-01
2.415370826562667217e-01
2.083997024091357730e-01
1.820784622075886650e-01
1.893922908746759615e-01
2.374807506659778467e-01
1.418954964837768062e-01
1.428608059220049242e-01
2.411819739820499353e-01
1.774463137422422898e-01
1.857304246601926279e-01
2.738379050365313816e-01
1.942811635424567807e-01
1.877194005878769778e-01
1.815896366726206246e-01
1.363752503235723390e-01
1.901935283268036958e-01
1.727809308260608856e-01
1.873873317528123583e-01
1.743983617739721104e-01
1.545400039121461733e-01
8.543956089141890864e-02
1.183851377676524708e-01
1.316059825163851671e-01
2.045007554038870967e-01
1.305731528157962895e-01
1.050756047228280365e-01
8.496798887076593976e-02
1.892248895043939227e-01
1.348451157259153155e-01
4.825805402848070552e-02
1.022816605402767920e-01
6.863389363753635841e-02
4.571556735385907955e-02
1.089809260901860449e-01
7.191709526298453725e-02
6.909972744908950137e-02
3.659009016844141926e-02
8.168470917769682371e-02
6.329218517508193587e-02
4.324434118998359000e-02
1.204497980879320612e-01
7.871806336551888383e-02
5.657036224211570846e-02
6.912415398042925929e-02
6.338197813899673627e-02
1.310989661717389121e-02
3.965741015309556111e-02
-1.562171925272710232e-02
2.371174022831326958e-02
2.193831943492528108e-02
-6.603143403730672711e-03
3.182692886190237325e-02
2.188460064948974035e-02
2.596707779132273464e-02
1.395406887244995432e-02
-2.596803284125636171e-03
-1.794135442450621454e-02
-1.048660178943503114e-02
-1.112922512823030785e-02
-7.796537339942783210e-03
-2.860693276228242626e-02
-2.812141138649222605e-02
-5.061155080049711819e-02
-7.625600648516316776e-03
-6.439763308208185794e-03
-1.287133820716755347e-02
-3.733002252632833251e-02
2.118372061010493496e-02
-2.847015987747346377e-02
-2.352812972503027893e-03
1.358148351418307469e-02
2.957650221500317603e-02
-2.737175190125614582e-02
-4.302584653373270340e-02
-2.684195178267979182e-02
2.210291159782844933e-02
3.484083521997100030e-02
-1.918293479516849573e-03
2.221088281353026869e-02
-6.335155821892360026e-03
4.646430765006036821e-03
-3.334284080720235043e-03
5.509418312313558302e-02
2.543306327594743385e-02
2.085051515551466714e-02
1.600732957846261531e-02
3.020260520911568700e-02
8.698570322529599469e-03
9.661897707335106306e-03
2.801921937096849002e-02
-8.340796778101920717e-03
2.847503640703095973e-02
4.877715755505746681e-02
3.289296080686307522e-02
6.146598650039314382e-02
7.291535311903277194e-02
3.381952057670988693e-02
8.609522040636424789e-02
2.936093044534527491e-02
9.121699809928293656e-02
2.517743621744869195e-02
6.596049702878670207e-02
6.693952961340668417e-02
1.032685733080092039e-01
9.163367319996347515e-02
8.711670623342535058e-02
8.420433573438002028e-02
1.089778523852457937e-01
9.377815242172318766e-02
9.220065224755512323e-02
9.994156675726807715e-02
8.360582899184892947e-02
1.177384098126111195e-01
1.699454320865449730e-01
1.658587866987083770e-01
1.979813755457205393e-01
1.671424522428190673e-01
9.912954444933055886e-02
1.649382382122769053e-01
1.352434940208946390e-01
1.856095490773120860e-01
1.056904666089989314e-01
9.733104320125365860e-02
1.366819411814346741e-01
1.749295300899918748e-01
1.446513417328011142e-01
1.389939478076832879e-01
1.396124731922465112e-01
1.557300733892297839e-01
1.453574686061004650e-01
1.342589516883361256e-01
8.503340061859265830e-02
1.584712221666949861e-01
1.591145749674957866e-01
1.102511961299225685e-01
1.369552028940100585e-01
9.823735704444910843e-02
1.421844738369940631e-01
1.128810928056621643e-01
1.311686267932526961e-01
1.537273410803976503e-01
1.948632999619532014e-01
2.232463496315716944e-01
2.233518925230036922e-01
2.476679536662832470e-01
2.156823419993484647e-01
3.287105738706688762e-01
4.097152257658228103e-01
4.324285847033657038e-01
4.594275317795005753e-01
5.829563816026701595e-01
5.785150271226685570e-01
6.894973146860498003e-01
7.802351055112167755e-01
7.812574429621843564e-01
8.871253627420004895e-01
8.548137916680732529e-01
9.173147371806054107e-01
1.010067072415387734e+00
9.700111390949085477e-01
9.605909253369452339e-01
9.979856978742669416e-01
9.894606519049593540e-01
9.237945262172071459e-01
9.477076034018079298e-01
8.427798566111912582e-01
8.603436976966705174e-01
7.905659792165911082e-01
7.428641746616668762e-01
6.192855732597992713e-01
4.443980153849845238e-01
5.635056560969207151e-01
4.584519542067366782e-01
4.099313591826302949e-01
3.424947653241615653e-01
3.171743313138936093e-01
2.834384521550008529e-01
2.108166046248338699e-01
2.208939116358272226e-01
1.584980901419313637e-01
1.673320439258806080e-01
1.962155947239652420e-01
1.547342506695818243e-01
1.086367041754902202e-01
1.264995256414297442e-01
1.176442993994289560e-01
1.302259930281593203e-01
1.783350954577789249e-01
9.485195501504348203e-02
1.040009146122269357e-01
1.571530846952100269e-01
1.181208802979202277e-01
1.653964415669875732e-01
1.622910958715332030e-01
1.255354854117026187e-01
2.160066467033400772e-01
1.995643605896629535e-01
1.693800162118922203e-01
1.611224096698468389e-01
2.031797876321624619e-01
1.673527907995301101e-01
1.922017091024680324e-01
2.387779554896001522e-01
1.970223584822231866e-01
2.390575608820503239e-01
2.840194869514018339e-01
2.132229332973317459e-01
2.190741323859778655e-01
1.754943686145312709e-01
2.665697105059111616e-01
2.428354176770884387e-01
3.157351535607845761e-01
2.677914039526090306e-01
2.572579277539582820e-01
2.611980267836971348e-01
2.323705877985985935e-01
2.691820519790880661e-01
2.864291595004315738e-01
2.495627414368196129e-01
3.464558418950056673e-01
2.355411079307605515e-01
2.620698438370185901e-01
1.992944178772396990e-01
2.419321316867978355e-01
3.255241417338620713e-01
2.598509034171972432e-01
2.500277489870907921e-01
2.861693892637869330e-01
2.799436348964262633e-01
2.795507447102528742e-01
2.397636023244893444e-01
2.909828934015953883e-01
2.146248614217911577e-01
2.294398064560045913e-01
2.303142215819093397e-01
2.755911180905962765e-01
2.519833169109808590e-01
2.555831494661091607e-01
1.720608441233536512e-01
2.265859665145968094e-01
2.183680120107434341e-01
1.889680092293665736e-01
2.568472123157545806e-01
2.090333949566623439e-01
1.866351132444094285e-01
1.809240056371152761e-01
1.877237052455277277e-01
1.396466460312781599e-01
2.483369892212697883e-01
1.976457370818825443e-01
1.708932072432151061e-01
1.768603376011589345e-01
1.303747907498240821e-01
1.306261282303440019e-01
2.029785093247551686e-01
1.719202120986368654e-01
1.636193727143678278e-01
1.565741984628523376e-01
1.281480616957951513e-01
1.099344011132153964e-01
1.454835816961137507e-01
1.311551854301415687e-01
1.279192975968751478e-01
1.285903563599226362e-01
1.197155174161843721e-01
6.432480755755318191e-02
1.833516134310783641e-01
6.622274726686046276e-02
4.731878083483732206e-02
9.258203874279888335e-02
9.687412912619705607e-02
6.985336364019453792e-02
4.238163890069639173e-02
1.006665175100317916e-02
6.867249524822663376e-02
3.579227694560055406e-02
9.705576443938507269e-02
3.965842493367982557e-02
6.409064798777089345e-02
1.005190431904279952e-01
5.543219215576699471e-02
1.142296860208925208e-02
5.177683726050991142e-02
3.279677631069719684e-02
7.942570488884637125e-02
4.146092723269709235e-02
5.513837685774612696e-02
2.208567016951847733e-02
9.110771592224567450e-02
5.050599852577924292e-02
7.930100835853265417e-02
1.772780631553252939e-02
6.359012648784134747e-02
-1.432816431175402971e-02
4.900719000592965863e-02
3.107492046282973527e-02
8.948393206074754802e-02
-1.898656546440303378e-02
4.484563702567569837e-02
-1.532515704466790030e-02
2.323851251220974967e-02
6.161416085350285288e-02
8.844185557295944355e-02
6.018664750757268117e-02
4.567419984447215059e-02
-9.616430285735007299e-03
5.247850777993373628e-02
7.535784990279589812e-02
8.476901826509208870e-02
2.314755298350760354e-02
7.160226381661929929e-02
7.464903960058134891e-02
5.980531224262638362e-02
4.391239165008128942e-02
3.544953058492261028e-02
5.699801914574566947e-02
6.801475516071356364e-02
1.528588181627002496e-03
1.039851639723754773e-01
1.004614365509598761e-01
5.429880674015180597e-02
4.809186692126494328e-02
9.033692123860666279e-02
9.401139863281930686e-02
1.067984589275595420e-01
9.907574593892853887e-02
1.112687743752081293e-01
9.833635108318058982e-02
1.054793760479910691e-01
1.095101415549261520e-01
1.275367064949915752e-01
6.426253233567133516e-02
1.251712002403009005e-01
1.245580288881026204e-01
1.373743240852347558e-01
1.547768898883026545e-01
1.407714458573935956e-01
1.455638519099348993e-01
1.162619572387094125e-01
1.993050093016508206e-01
1.447164318012345574e-01
1.874321753668573565e-01
1.450557874341749931e-01
2.116931292959833288e-01
1.894372438255093050e-01
1.940024731679864944e-01
2.609933711471580930e-01
1.825869082480182093e-01
1.739171084555851676e-01
2.179800833732594978e-01
2.219444601831733754e-01
1.961120076824229841e-01
2.053797728407877887e-01
1.678331755024795591e-01
1.974904811704444041e-01
2.300457851127402087e-01
1.977934317419158539e-01
2.138428761283698576e-01
1.932343835389531417e-01
1.672394647365747500e-01
1.800906616931593485e-01
1.514696767652480014e-01
1.727138277662734756e-01
1.673130444268522699e-01
1.600838077698280015e-01
1.911843500588510936e-01
1.578428837587247113e-01
2.165296575831393011e-01
2.314203817686986409e-01
2.525267942849291902e-01
2.729518576604840763e-01
3.077428897300776289e-01
3.865028583475346169e-01
3.724565959293519302e-01
4.736043002333727436e-01
4.554940568009485102e-01
5.374684018900203197e-01
6.004286998632659689e-01
6.685054570640612814e-01
7.438864366379120963e-01
8.057266289962310424e-01
8.082468851714047497e-01
9.629204906402701880e-01
9.968099092875443157e-01
1.017884412749061385e+00
1.029304519706898180e+00
1.051879630603973936e+00
1.003330953137305137e+00
1.066040144396249723e+00
9.623021766502242169e-01
9.882808414460122481e-01
9.348902365079441168e-01
8.909414239705707450e-01
8.220070470195336432e-01
8.346070586880605102e-01
7.580851623918994919e-01
6.316782376683777178e-01
5.823793270738988337e-01
4.896717255492562537e-01
4.720988415576118369e-01
4.610145677920040597e-01
3.513077700297964068e-01
3.124309084720201524e-01
2.897875976713537027e-01
2.799820530212144276e-01
2.563292862097008573e-01
2.558622085975245097e-01
2.153870447948156575e-01
1.955696404337222971e-01
2.084509648662825343e-01
1.774479522076845561e-01
1.277776504848900929e-01
1.000459502778095755e-01
1.155420224512953564e-01
1.406477173088992172e-01
1.369710587765239629e-01
1.436323330980103230e-01
1.889583643947929936e-01
1.533291317502527562e-01
1.642505156067604888e-01
2.399422811466720151e-01
2.063594756656565721e-01
2.271131323986912143e-01
1.631094353570425315e-01
1.154456493595066857e-01
2.063560888393426440e-01
2.396621207058123870e-01
2.159462142445248700e-01
2.460231438709298279e-01
2.504007285746321920e-01
2.274633667923991187e-01
2.330179361165043705e-01
2.631445634116526544e-01
2.087705682654553696e-01
2.168745820591574391e-01
2.370872039955736199e-01
2.187314157482999344e-01
2.735330462426825426e-01
2.996523754404147866e-01
2.688783901715851576e-01
2.896572482378118041e-01
2.666111652471726545e-01
2.836145246913648332e-01
2.765816185260076554e-01
2.908253523814001151e-01
2.757953417686035413e-01
2.883317150925943650e-01
3.064002480433450915e-01
2.932399655515568471e-01
3.124165084996309294e-01
3.056221144165336412e-01
3.164237920859081510e-01
2.697564172038199870e-01
2.810165531886944512e-01
3.053883631288119016e-01
3.311507305592950590e-01
3.231586027510983672e-01
2.823092138462378609e-01
2.662226573345611857e-01
2.650259882077244944e-01
2.806356727844951937e-01
2.873991893428096134e-01
3.222934580439416052e-01
2.688467252038018174e-01
2.597032422119250894e-01
2.701119585532133494e-01
3.255006746312317789e-01
2.264948356053233525e-01
2.804358189648317179e-01
2.228433078243650667e-01
2.630237937925145042e-01
2.286399550504624179e-01
2.082653459742875302e-01
2.540829030245979059e-01
2.157519471226818919e-01
2.392412994079313182e-01
1.883194992970289028e-01
1.739569536824664420e-01
1.775749389643737075e-01
1.739955171620957697e-01
1.693137713599917604e-01
2.090879544187743966e-01
9.361011564769147753e-02
1.436801634472039957e-01
2.035677008556258660e-01
1.313405597754503940e-01
1.051189405963167123e-01
1.907540044206080809e-01
1.572639456098288147e-01
1.284010093060568569e-01
1.330782503537470962e-01
1.297806679539708630e-01
1.241980199292621045e-01
9.683116108752454210e-02
4.925577621025533509e-02
1.101352497063295965e-01
1.227099338372352189e-01
9.714482880682961952e-02
-6.172970067649996562e-03
8.312339369851985682e-02
1.330352241560933957e-01
8.235526512932897503e-02
6.403571966508961322e-02
5.667352504032445448e-02
5.376385910531107648e-02
1.033024351925741213e-01
9.385350352643834215e-02
3.583492691545839270e-02
6.602602600233743735e-02
7.503616718968048049e-02
3.891038056132894996e-02
5.526658350886562432e-02
4.179964491651703279e-02
6.920774213360102178e-02
3.001254609635391549e-02
1.545203993195304326e-02
6.038221119741812165e-02
6.469549400320161181e-02
5.869142110327829620e-02
1.090115283751122571e-01
5.995282691054042157e-02
3.883453709896705908e-02
7.389078244923782957e-02
1.355755065111869384e-01
3.494409374937265667e-02
7.823983026522855766e-02
-6.852365884759605008e-03
3.107592894721778604e-02
2.131410985963549942e-02
6.454361677010875264e-02
1.824327283459992177e-02
3.876403883808592771e-02
1.331737533806288259e-02
4.149027351009398207e-02
6.892658932363358859e-02
7.789673617147266360e-02
9.545638814051300713e-02
7.426350840437768996e-02
3.956707326936953484e-02
5.723404809029219997e-03
1.001630304949441413e-01
8.510091471409747532e-02
4.701385447564575271e-02
1.056251741780318554e-01
3.499299393089921190e-02
6.931002453711126998e-02
8.431333153738451713e-02
6.586598999092041495e-02
5.173372549944996179e-02
7.210015221942416008e-02
7.206348606444915039e-02
1.061512973822465733e-01
1.103517455634433486e-01
5.571993198709659922e-02
8.371169184183097078e-02
1.941398636105566566e-01
9.983624312923532196e-02
1.484526688630267155e-01
1.194398849498955889e-01
2.121805623809129571e-01
1.477089548960759391e-01
1.278592512914861479e-01
1.888753714703694242e-01
1.141674249514934292e-01
1.390747984390296454e-01
1.710707492992015466e-01
1.576374136877899401e-01
1.441668797974755833e-01
1.572385612910180697e-01
1.605194914027953113e-01
1.820047308454418866e-01
1.518848482648989529e-01
1.879098111587487185e-01
1.939167657057679350e-01
1.809489973394083351e-01
1.582240345644007062e-01
1.415893584370363223e-01
1.820399009902536336e-01
1.845289702914850727e-01
2.350842045077956299e-01
2.112243588659219462e-01
2.095749793631889457e-01
1.342589282811356144e-01
1.729021098036274129e-01
2.105004969959882732e-01
1.906661014662922593e-01
1.523777136594354764e-01
1.738553420612048150e-01
1.312964751797723317e-01
1.021906921551363756e-01
1.484477257791027294e-01
1.421389667348943731e-01
1.734670344892010330e-01
1.620048636808678610e-01
2.094393087683990295e-01
2.021365917804434087e-01
2.416539169705808343e-01
2.516591869430991890e-01
3.050545840339909387e-01
2.983116128926668331e-01
3.542598911625375879e-01
3.827137719939727734e-01
4.314612711480226293e-01
4.891372880921470157e-01
5.639808620079751478e-01
6.363618988714625502e-01
7.295460060022356252e-01
7.885520636586721421e-01
8.468622193367789652e-01
8.545948414763527845e-01
8.638622821130664819e-01
9.959743926483959342e-01
9.746924330596631325e-01
9.898884363000467479e-01
1.085165494472052572e+00
1.003937009481718157e+00
9.728504587758679545e-01
9.572497806033869461e-01
9.595543813596842941e-01
8.950644577236732680e-01
7.790844797463449822e-01
8.136150269285641334e-01
6.901173778347968746e-01
6.000114972858858753e-01
5.612059939518088125e-01
5.263839367917888534e-01
4.438011799368772881e-01
3.781464961334342623e-01
3.148201338680688965e-01
3.380043104942627719e-01
2.733983214560008479e-01
2.222257021851563319e-01
1.999756530467813598e-01
2.139778793142046442e-01
1.984912857748675485e-01
1.390796846327114200e-01
1.495117809690223176e-01
1.513079270010075916e-01
1.518454665297563899e-01
1.271533480375297287e-01
1.801117234409484735e-01
1.203293131390882897e-01
1.666625850114547003e-01
1.658307592781742557e-01
1.391539755884872442e-01
1.522392115617167974e-01
1.482842463096324670e-01
1.379938626019726888e-01
1.830266258820638647e-01
1.666755324638369840e-01
1.889345854954914972e-01
1.237884863032798766e-01
2.172515202622809227e-01
1.711489741949190901e-01
1.293591072143154275e-01
2.115026067704398605e-01
2.276937295087605173e-01
1.889118877961961929e-01
2.305065866262187013e-01
2.502359324006974139e-01
2.509537516904108978e-01
2.565345599366204432e-01
2.659849198846644391e-01
1.966200432367941620e-01
2.150338360704326934e-01
2.258830058907592975e-01
2.075434622105757632e-01
2.389688482327333996e-01
2.889179829445018832e-01
2.652295860576984188e-01
2.719593442912709436e-01
1.989164511521242240e-01
2.980779806859584768e-01
2.893849903955544312e-01
2.410854416717243265e-01
2.542604062041664559e-01
2.505480004143620931e-01
2.679765417381685388e-01
2.910570604335233069e-01
2.924873859456577629e-01
2.539384401234795474e-01
2.269781706814930078e-01
2.381668852951907556e-01
2.783803687388595183e-01
2.510943285849083773e-01
1.990997939332737887e-01
2.382888113356859960e-01
2.775675117819390580e-01
2.274495345361248200e-01
2.614869555481995067e-01
2.581428350848414266e-01
2.407316016145540361e-01
2.173930128993298294e-01
1.861023643709957820e-01
1.871816278287997681e-01
2.131259871778543591e-01
2.083672237456080656e-01
2.202346746954353951e-01
1.713131563993466611e-01
1.591019779394675371e-01
1.994940057332291738e-01
1.487522408713578825e-01
1.770722145193518449e-01
1.186540724796384949e-01
1.521902083838467534e-01
1.495108979273408190e-01
1.028550040448714675e-01
1.356603506142551041e-01
1.300332332227806531e-01
2.002664237853120921e-01
8.956441648708707293e-02
1.557717797742751986e-01
8.536669178744964170e-02
1.313289044910457282e-01
7.775896501575930986e-02
1.317782458881824603e-01
9.774817314126300893e-02
6.322896929781743336e-02
6.168540373297576318e-02
6.973590069567321692e-02
1.325149720709409840e-01
2.947834090497902446e-02
5.767552933336062004e-02
7.034377052646934025e-02
4.723136333597482278e-02
2.266432054065825250e-02
6.050822667552289980e-02
1.720786075355123027e-02
-3.014462225945065826e-02
6.487621820025434027e-02
4.491875729582128079e-02
6.308333932116491627e-02
6.427957306525500236e-02
-7.666062426770251480e-03
-3.639738655533004269e-02
-3.402562153875081548e-03
-2.106569646545101634e-02
4.761619040450754646e-04
2.001291125676863888e-02
7.043077739352614219e-02
1.231051048493640027e-02
1.661082183885413677e-02
3.915358447268531272e-02
2.537147035198231149e-02
-9.448127368801342504e-03
-1.654177563491440392e-02
3.283839133297480894e-02
5.467210284378372538e-03
3.539565481504423905e-02
2.638750312311429272e-02
-1.491100521494705122e-02
-5.255262558790298015e-03
-9.386581882852376019e-03
-1.164729915290353343e-02
5.946668148955424824e-03
-2.658409943918084092e-02
1.558471705980826044e-02
-1.205234555757753873e-02
-5.491303632697054626e-02
-7.855063821168861010e-03
-4.128474880595545300e-03
-1.278932648671404770e-03
5.076490220312514234e-02
3.797064569140759516e-02
8.736994102590702957e-03
3.402127899217775864e-02
8.799393130320916356e-03
-4.305136440577852358e-02
3.287263793602961115e-02
-2.338278238053851862e-03
3.327757453491623357e-02
-3.821573449181450699e-03
8.353395512291654848e-03
2.153513103007270030e-02
5.563761585196295295e-02
2.470130802588540314e-02
-6.274033265731953843e-03
1.943240016637753226e-02
4.324758800319597474e-02
-2.164829420301005863e-02
2.806571116684553405e-03
4.813218770894304999e-02
5.836050239416652047e-02
3.947107057216127368e-02
7.505723050604271029e-02
6.329080448607768417e-02
6.159198504439616917e-02
9.248808639564101708e-02
8.880180085880866325e-02
8.830810394920467210e-02
6.151505190721953675e-02
1.162597138344813180e-01
1.400605438607641084e-01
9.272064844740116052e-02
9.437123286862131311e-02
7.255453433052513890e-02
1.432835067793747086e-01
1.212024328920153632e-01
1.714367098499108566e-01
1.562427875671557331e-01
1.451218231303839923e-01
1.352231323650187611e-01
1.478048674301332688e-01
1.591262366852567445e-01
1.829803316930221080e-01
1.353631390915064625e-01
1.188978686313907768e-01
1.362001393348633016e-01
1.055644421299016117e-01
1.304655665335881787e-01
1.248867752614051252e-01
9.781380032029338145e-02
9.043170014000276313e-02
1.062406135475726376e-01
1.123436159308623949e-01
1.154139337684955274e-01
1.014742576335784935e-01
1.187610134249910271e-01
1.356684414372594516e-01
1.121036337318288140e-01
7.931739008777327626e-02
6.927922996242380504e-02
1.498445935672460538e-01
1.769758434813464287e-01
2.381216828266816965e-01
2.348852283819405640e-01
2.797005666331739970e-01
3.146539900620036190e-01
3.631573061829665439e-01
4.124480368884343995e-01
5.299731695435609957e-01
4.609070110177808655e-01
6.144874520041778698e-01
6.359314889524182446e-01
7.112462578979062977e-01
7.617223472313848776e-01
8.354098276060453188e-01
8.927133935757373129e-01
9.023052151622554806e-01
9.576753639630259940e-01
1.002826197988404555e+00
9.188832371680092370e-01
9.786914378085420640e-01
9.095041086136166353e-01
