9.301332600294734965e-01
8.982238651209746294e-01
9.432567054453739885e-01
8.554779138514874148e-01
7.728321910267713646e-01
7.665388321670818517e-01
7.124118638574159501e-01
6.062613573699221492e-01
5.931176028811409040e-01
5.792800480794242368e-01
4.637188566947796908e-01
3.503991251675591112e-01
4.006238023706606421e-01
3.111502401540411356e-01
3.303172289651452043e-01
2.657819948612544225e-01
2.146865341382542536e-01
1.510336832127435747e-01
1.044832360381970360e-01
1.571686575784365658e-01
1.218752069009474692e-01
7.630266534817087276e-02
5.126954208360328530e-02
1.586208726998313279e-01
8.442446320565910600e-02
6.831391696984275008e-03
2.111771123136821360e-02
1.068453766773116154e-01
1.143150319687953054e-01
5.515670385377702961e-02
8.946244334290623379e-02
1.128101709471490688e-01
8.144570314088173113e-02
1.319969309205528130e-01
1.321425445410855937e-01
1.045050309082055512e-01
8.661346245463413807e-02
9.563225965501537251e-02
1.223821340806477975e-01
1.370818152718066008e-01
1.088886620406665229e-01
1.167500439792632794e-01
1.422912220737109767e-01
1.302210689172728642e-01
1.883342224640154050e-01
1.716265239527005604e-01
1.706667889698356699e-01
1.928569321171072215e-01
1.841202734247844031e-01
1.865225484669015277e-01
2.121963387447953209e-01
1.870804406000372566e-01
2.193051110980146490e-01
2.152802252146571726e-01
2.124554620525618831e-01
2.078294438717058767e-01
1.604561760829366635e-01
2.422877891085465918e-01
1.761478873450645910e-01
2.701023617473486405e-01
1.980304792902972399e-01
2.324992963311238170e-01
2.676267569691870296e-01
1.932744458534340071e-01
1.977191139778055051e-01
1.949651541810116240e-01
1.805253989314581087e-01
1.953338498409023238e-01
1.268018729121471733e-01
2.042056169897050744e-01
2.643263585864944476e-01
1.458049148135188156e-01
1.656327313195454787e-01
1.948585851799112811e-01
1.304206710857024054e-01
1.994691838421995267e-01
1.273094015585785332e-01
1.769822061714576289e-01
2.013960579963361142e-01
1.944552885754570748e-01
1.405009202799222534e-01
1.581099064305117041e-01
1.218341515478507664e-01
2.030325517559617987e-01
1.504275137719458810e-01
1.600370146656275860e-01
1.238105753992068125e-01
7.926326244019565870e-02
1.195794119817368550e-01
8.286976154992481414e-02
1.163558950795070129e-01
9.878335232798704513e-02
6.367659534580663583e-02
1.288029851246059732e-01
5.991311321648899735e-02
8.793510507960355937e-02
1.430184559712652237e-01
1.052092138892744833e-01
7.954140095165379565e-02
2.270704720733428272e-02
1.988429686161467119e-02
1.689178024867413197e-02
1.015014992379485032e-02
-1.411464353891460355e-02
6.219103685533951958e-02
2.588574698221667025e-02
1.935662163307352857e-02
-3.894614043816763127e-02
3.235073620520944465e-02
-1.381825034165004573e-02
-1.794461583007568584e-02
-7.662947427619917762e-02
2.310028879006538471e-02
2.346641918693293666e-02
2.308481054500553104e-02
-1.226725532916627531e-02
-3.226985327636130996e-02
1.787164385286218321e-02
-8.775941701298189956e-02
-2.551544736229504132e-02
-7.050523268800019949e-03
2.940633158506885531e-02
-1.084729738030335011e-02
-4.081230300908886277e-03
-1.485993472091032275e-02
-3.780316720543924758e-02
1.137676433347306615e-02
-1.736709668990485053e-02
1.370876636705071344e-02
-1.892626818189342350e-02
-1.324711182944332544e-02
-5.406447841951998734e-02
-6.434870630719247142e-02
-9.208176330684503252e-02
-5.817730260834137745e-02
-8.798116663070336407e-03
-3.623715166287918427e-02
-4.426454239167299659e-02
3.238261219920240963e-03
-1.981641859626202817e-02
-6.311403669220044810e-02
-3.767054843955654209e-02
-3.012339049743181785e-02
-9.111987353244231647e-02
-2.451486693452749679e-02
-2.066503008315629178e-02
-1.312787769199725424e-02
-1.731528053816962925e-02
-3.703553912716228691e-02
-3.400520595166743598e-02
1.639678273411477455e-02
-5.472791158372090903e-03
-5.879848532107753711e-03
-1.527260627885423244e-02
-1.997189601898744296e-02
-6.300853354625428338e-03
5.322636981441759146e-02
8.155304582215819331e-03
-4.379719150101941960e-03
4.873758252259971502e-02
2.031021323510186910e-02
1.449496501965456818e-02
2.051274408267767663e-02
4.929929715000862245e-02
4.448841083238455618e-02
3.238696709209341884e-02
4.040687368029579479e-02
6.027638316662702056e-02
6.403224339856557201e-02
9.208317901226917290e-02
1.327904388142538694e-01
4.906573276644274340e-02
5.831520273958162859e-02
9.449239664883571366e-02
7.476160527377230525e-02
1.093316436291115745e-01
1.606587151294133486e-01
1.008816614868398853e-01
6.248638790509033342e-02
7.605011153081936426e-02
9.005653569293600724e-02
7.633367696826062754e-02
1.235639996627123094e-01
1.213168361834348480e-01
1.191843497736001789e-01
1.289310212956699953e-01
9.321523955640176329e-02
8.653912695536683519e-02
7.712591169708060690e-02
1.118394147295037333e-01
1.319592570639327722e-01
9.259709643747157659e-02
1.100293223494634154e-01
5.075180737281870247e-02
9.793858200110422407e-02
8.117919348444932459e-02
4.431951921374803482e-02
8.700728877233876446e-02
1.575835568371231343e-01
1.334391902847407441e-01
1.405229328862256100e-01
1.918772773697578204e-01
2.219747826047616390e-01
1.946453411339040263e-01
2.480157328930272798e-01
2.881517839245366641e-01
3.521675933641202905e-01
4.400037890123358331e-01
4.693523006727367552e-01
5.183745241439700058e-01
6.097040809684566298e-01
6.446116471465793696e-01
7.185895660202211710e-01
7.606548760643330187e-01
8.256936273110770941e-01
8.889400559811329039e-01
8.418926785900184839e-01
8.660025615490278827e-01
9.042253396593269432e-01
8.810142952309827358e-01
8.855502939406550977e-01
8.452246001791232644e-01
8.457934470924157733e-01
7.167700491366950644e-01
7.685619246161863316e-01
6.564215373378204932e-01
6.381466536162014869e-01
5.793744791408413919e-01
4.998855738890622957e-01
4.565429504376875558e-01
3.348344594781024197e-01
3.107776048662325152e-01
2.673377356510275860e-01
1.896400262767648781e-01
1.776524113943822036e-01
1.701131421264203136e-01
1.153322847560387943e-01
9.483793945691774974e-02
8.064874975315891592e-02
8.407639777587211372e-02
2.461412468134549503e-02
4.321740683789244974e-02
3.352369647133846692e-02
1.020543073557267783e-01
5.065603198118784345e-02
3.209158922808945380e-02
3.503590433182167396e-02
5.338096485167708599e-02
1.239929901004689916e-01
7.994484693283733512e-02
7.721157213298449062e-02
9.337537940460703678e-02
7.044062244642765314e-02
4.426466216062052011e-02
9.859805758348683113e-02
7.750799389917735482e-02
1.447614728312641708e-01
9.010670340493602548e-02
1.041285927036359471e-01
1.257507309321995725e-01
1.416414419033288630e-01
1.454379598619978953e-01
2.156972910921115261e-01
1.871544465529804691e-01
1.212482418178196242e-01
1.269187123055441624e-01
1.905900218179638339e-01
1.677746128344351773e-01
1.714879442993683945e-01
1.907800871342325844e-01
1.701512527751684878e-01
1.525908097991425239e-01
2.008011286699594167e-01
1.852844233256680240e-01
2.143726431546690014e-01
1.576572221902887427e-01
2.186786262381554546e-01
1.606155374995398843e-01
1.927284874194631625e-01
2.590941211397099209e-01
1.857412851597036174e-01
1.855428503400444740e-01
1.973282711731040306e-01
2.364503686613686484e-01
2.251200438998269271e-01
1.976413884364214280e-01
2.241433797374045855e-01
2.110237520555260093e-01
2.025824114048292435e-01
1.570825247130257507e-01
1.394163219484153560e-01
2.329227134064549010e-01
1.640993898092354408e-01
1.522784414499405437e-01
1.313594840194007851e-01
1.827116310153273915e-01
1.785705975714388938e-01
1.804609416427181978e-01
1.930956914355828891e-01
2.190069299871972575e-01
1.152000673419740495e-01
1.462405628652006517e-01
1.776257091334196292e-01
1.859764664983623583e-01
2.142119607459767039e-01
1.469998358174528785e-01
1.510370373576117309e-01
5.359103794398544646e-02
1.655450074292623697e-01
1.052166784276189482e-01
9.226966200361251536e-02
9.125822388749088576e-02
8.938846188516572089e-02
7.052737330482904132e-02
-1.019561919328004773e-03
1.101592620086737639e-01
3.991828813581047020e-02
8.129861752936412556e-02
7.968329729403128558e-02
5.865059063131221329e-02
3.620668591481651655e-02
5.855625451694023570e-02
4.353441024073764765e-02
3.925269262250011965e-02
1.369827899543608896e-02
2.851742517303643143e-02
2.922417005963075243e-02
5.271189055476931118e-02
7.916253528879736712e-03
9.260702459213482340e-03
-1.206294897674447739e-02
9.513093852602724776e-04
-5.899757413749850965e-02
3.062452605879603662e-02
-2.639914183285808208e-02
-7.488401464041959804e-03
1.633997429611837304e-03
-4.503434078548307351e-03
-1.226420635579449775e-02
-3.333054881461202518e-02
-5.406324681782592734e-02
-1.677527825901764177e-02
-1.993797534087586240e-02
1.637912014394116156e-03
-5.607720849307664540e-02
-4.344791280062727107e-02
-4.296940162634265564e-02
-2.827643661893662272e-02
4.809431711803861809e-03
-9.830548120822062141e-03
-9.498868101211585535e-02
-5.886949931305308914e-02
-4.270260190972046538e-02
-2.314963756735174266e-02
-1.376523856926804845e-03
4.227366931130881883e-02
-2.627873906947411284e-02
-2.921363536444042050e-02
-3.876479682803974508e-02
-5.360385233169011332e-02
1.124626274602928688e-02
2.600149113232664427e-02
7.747384580551512634e-03
-4.492653908064705992e-03
-1.980811913283804515e-02
1.539138119089464990e-02
-3.398377169442218237e-02
-9.066681199201190311e-03
3.984534180848713775e-02
-1.181807530160591813e-02
8.426616328873204331e-04
7.984132368308263783e-03
-4.213561350941589373e-02
5.302656423391187424e-02
6.161164081268048764e-02
4.255154446365698451e-02
-1.402122447864508764e-02
-2.541431574605971730e-02
6.416454855231533416e-02
4.113406810272816905e-02
5.442733957103725040e-02
5.855136107756117592e-02
6.367574548688215152e-02
7.016116952144241248e-02
1.166878177542854389e-02
6.658456883301738793e-02
2.490865900277623723e-02
1.313390582099890624e-01
1.146568796826919201e-01
1.509046581128640485e-01
8.530346656925300031e-02
9.613271314079739616e-02
1.067371944205945250e-01
1.017531020083357607e-01
1.343177825870117970e-01
1.410005932488588021e-01
9.518280941271285711e-02
9.336194787372366355e-02
9.451963657563357268e-02
1.100468036166852015e-01
1.299653167273335241e-01
1.969188181853280262e-01
1.166261240473062816e-01
1.262880938788243923e-01
1.233557780286884675e-01
8.003738020342224257e-02
9.603834046780201916e-02
1.068165327604472942e-01
1.151726587400549312e-01
1.044260280488156917e-01
1.111090604990886410e-01
5.917957006942863030e-02
1.333386796293895837e-01
7.831909821426635832e-02
9.537875555061174626e-02
1.648142868788853577e-01
1.737843168152367612e-01
1.072925961121857230e-01
2.197261401614216125e-01
1.846130778906436842e-01
2.322744724115861636e-01
2.310201013034377526e-01
2.387023823521992605e-01
3.860143886440547401e-01
3.177914158036003744e-01
3.577949513722647468e-01
4.916658615000183974e-01
5.137633882414094355e-01
5.737643924877915413e-01
6.581217244544937950e-01
7.215310944476001076e-01
7.476223409576296941e-01
8.084918433905933233e-01
8.781508002458411344e-01
8.836136206074097776e-01
8.510667512315657213e-01
8.923591907335033380e-01
9.728575178423592984e-01
9.319416685134397360e-01
8.777264229914328864e-01
8.695262839007349420e-01
8.208658998307137855e-01
8.504297407796116426e-01
6.960627848110646498e-01
7.611981017188815812e-01
5.750543995278590836e-01
5.451006667289866048e-01
5.063688795112734065e-01
4.275402768444241386e-01
3.783533225522937582e-01
3.594921750171590213e-01
2.664127930030817937e-01
2.211219220678551645e-01
1.920846443819282934e-01
1.835900360573751167e-01
2.122028406948940626e-01
1.317679497530879762e-01
1.182856557288569366e-01
1.178519291778876987e-01
6.368522831908347837e-02
8.566241574770139255e-02
7.243814301443228520e-02
1.513778946956120808e-01
6.931398368686919609e-02
1.066298433570067039e-01
7.823263770861205169e-02
1.368586608723346143e-01
8.881200731448371521e-02
9.996678033227537896e-02
1.032182460410150660e-01
1.211192716142904802e-01
7.376130963994526057e-02
1.375244511914403833e-01
1.017827824187592933e-01
1.387481926134545296e-01
1.585315798051450953e-01
1.632675102934336708e-01
2.019285830013592686e-01
1.656216609282671892e-01
1.364982048836608508e-01
1.990784028752124457e-01
2.848773475633796792e-01
2.008324624280540260e-01
2.400427877087078499e-01
1.775946930758401376e-01
1.911264163533233362e-01
2.367617538641080266e-01
2.170843389423905423e-01
2.301603856088704769e-01
2.484108776222622439e-01
2.191053597439343859e-01
2.705792121005459738e-01
2.610520879374085279e-01
2.294723090205669502e-01
2.475412188427293936e-01
2.292332956457484305e-01
2.883604591181996302e-01
2.365219374012288434e-01
2.293943377852838972e-01
2.831603560618383697e-01
2.232647724602144501e-01
2.306088611487541462e-01
1.976933728456519435e-01
2.932837901292965621e-01
1.919373769280476871e-01
2.613454092877433577e-01
2.295571533530737507e-01
2.330822739510206298e-01
2.752265123931922908e-01
2.911379358067981982e-01
1.726604192547951944e-01
2.501517952511631560e-01
2.110517595023979898e-01
2.663321632620464507e-01
2.314537421366313352e-01
1.902868017886837071e-01
2.344841387488142692e-01
1.434710274245235007e-01
2.373134386879954816e-01
1.577735673177605435e-01
1.502160571699113489e-01
1.301148652004321948e-01
1.164989550907104959e-01
1.493675051450168711e-01
1.883261364032502161e-01
1.861160458815842300e-01
2.017195788727952632e-01
1.788818780063793079e-01
1.583772808241446228e-01
1.487179033543091500e-01
8.728984237024481341e-02
1.217177455057974478e-01
1.370221163485886018e-01
1.022026337365889714e-01
1.033731870148221488e-01
1.042190287988849773e-01
8.428039390788559515e-02
9.801310885608695289e-02
8.423754281634240892e-02
7.615154816800018267e-02
6.991392592269583817e-02
1.012071510047547473e-01
5.231156758750844793e-02
3.330018821667175138e-02
6.881421315692065610e-02
2.348392420164281680e-02
6.632393868421095073e-02
1.097164768907821358e-01
1.561044431072134038e-02
8.147442142210760407e-02
2.303525257213213245e-02
9.541342422409640478e-02
5.714669827689052711e-02
9.922136242626138081e-02
-6.676012895319917428e-02
6.583969123688307445e-02
6.070778321021221002e-02
-2.547580998714038536e-02
3.650928245299382702e-03
6.551887636584126373e-02
-1.307110061128317555e-02
-3.800951480233229207e-02
2.231567494168137933e-02
1.127874403595617581e-02
2.445933420599993857e-02
1.104719342651180325e-01
3.664365245317418446e-02
5.518179297774539194e-02
5.482020251487051965e-02
-6.919270180065759113e-03
3.239194645418972535e-02
9.072965550271255841e-02
4.885098982009545426e-02
-1.007766217725884934e-02
4.670280007620302570e-02
-1.080391044825701474e-02
4.903006586773531184e-02
4.076619746135111411e-02
2.318300569429541241e-02
4.815732421120600543e-02
4.459578865864153446e-02
6.798180133343814657e-02
8.210374805348202853e-02
2.238361783684487266e-02
5.220662787805284422e-02
4.085697682761309235e-02
6.974552456693788871e-02
5.860056745284311641e-02
7.984698251376072531e-02
6.965127753914449049e-02
7.302075215979061951e-02
8.486253567979727686e-02
9.599774666245078358e-02
7.547814585300832713e-02
5.573868390291105562e-02
8.233484614332720053e-02
1.266516885636732870e-01
1.059004278038641889e-01
8.512978643522339794e-02
1.108069251351697093e-01
1.327427776798904557e-01
1.351083356098723987e-01
1.082966576356894778e-01
1.420360629810735187e-01
1.345321167873431423e-01
1.739423650938852484e-01
1.349777268723845181e-01
1.355118162819556049e-01
1.564599089411752575e-01
1.324244430403211659e-01
1.768567853600191975e-01
8.679461481054946692e-02
1.770552715924185727e-01
1.882454474251736565e-01
1.460793014419586588e-01
1.605552278429295265e-01
1.729153017602495790e-01
1.645596063903686235e-01
1.950493295709281316e-01
1.613482908946660133e-01
1.692244413742053089e-01
1.634975887091855151e-01
1.323757878319493098e-01
1.579037814801761974e-01
1.426053988285641005e-01
1.431268965778139113e-01
1.732805700099657176e-01
1.791901040969356429e-01
1.610621594506858323e-01
1.838280470189358751e-01
1.256950322569508061e-01
1.226404153296176275e-01
1.332776401316245474e-01
1.563894670629249750e-01
1.882843841257135775e-01
2.074832675418966932e-01
1.998939989009613505e-01
2.027572345485464389e-01
2.342498159923841472e-01
2.504157778535728296e-01
3.080716971037211760e-01
2.701241846461345242e-01
4.230820654869879571e-01
4.479475288950087175e-01
4.689183609661393137e-01
5.108474297827316768e-01
6.362743999847071397e-01
6.710898590891427595e-01
7.247038810306344336e-01
7.613967360623088432e-01
7.784729278033314381e-01
8.740198249968388344e-01
9.214545868015726615e-01
9.311526076762938198e-01
9.895211230679020753e-01
9.730570135351653827e-01
9.666936117964721742e-01
9.121978194733710854e-01
9.272911160004759790e-01
9.104374867863247456e-01
8.589683168151767134e-01
8.163267443956668812e-01
7.313730901529010842e-01
6.868315908968734007e-01
6.157344450158759308e-01
5.673157280455779494e-01
5.342886119391243582e-01
4.403967138582804419e-01
3.772933534863616156e-01
3.662120476906681743e-01
3.030980329728027445e-01
3.330161998684219027e-01
2.280626655398678704e-01
1.891585612905734570e-01
2.566501251376246961e-01
1.433305579846060052e-01
1.549884416679811472e-01
1.941659666113393357e-01
1.053359786223013322e-01
9.398794533388729611e-02
1.231795580287145808e-01
1.491686402137846201e-01
7.572251074728242326e-02
1.408141353745270830e-01
1.410543092448655333e-01
1.545477209436459942e-01
1.763376545372488946e-01
1.819859973422210953e-01
1.980196558721496192e-01
1.912011456889816108e-01
1.542476384701219616e-01
1.974514243894270049e-01
1.765433637552673019e-01
1.853616355503758528e-01
1.492458428578870844e-01
1.848045387695651798e-01
2.092821103890056267e-01
2.412394060140687357e-01
1.782970797656747153e-01
2.754186582632745517e-01
2.431856040171492539e-01
2.554972563412449826e-01
2.700224365847543329e-01
2.114748225008117599e-01
2.469570760748940608e-01
2.393208079523853338e-01
2.855656276502486213e-01
2.664420727326309857e-01
2.822049370943185975e-01
3.171928612808135317e-01
2.228921631300831430e-01
2.786163130198324178e-01
2.985541301160182237e-01
3.311429546182484418e-01
2.628211651651290448e-01
2.742365774875804019e-01
2.695233330877160882e-01
2.724384150698415663e-01
3.224492671534668897e-01
2.942940532758779870e-01
2.786783430763140612e-01
3.026338462323166500e-01
2.840162223518032381e-01
2.871117065370079602e-01
2.885232790423252203e-01
2.501921184865767978e-01
3.025705448571819334e-01
2.643275737851904506e-01
3.088849954611182502e-01
3.262109642725365410e-01
2.498960568152326644e-01
2.765221646928813226e-01
2.685738102682109774e-01
2.416530096715484022e-01
2.482058696145368615e-01
2.463301528815581565e-01
2.439611664867585572e-01
2.475679865792760614e-01
2.215832004244394637e-01
2.134073622817792004e-01
2.270271433761915925e-01
1.954570332334114313e-01
2.064450386409935889e-01
2.204825353720398784e-01
2.251594398806742725e-01
2.073952115685314956e-01
1.677826778135441399e-01
1.645214942827295246e-01
1.757219499477282454e-01
2.129550593488284127e-01
1.888881317757591660e-01
1.672456383641827971e-01
2.122264345169401767e-01
1.861347309695917385e-01
7.316063522201682323e-02
1.694029215768568797e-01
1.098301755927954815e-01
9.958946585575684241e-02
2.035128537471340426e-01
9.832722763158215085e-02
1.210151618205457802e-01
9.927125024209046411e-02
1.079712275644872238e-01
6.020113118983748401e-02
1.100262674322352030e-01
3.485905113182411613e-02
1.087931150578638900e-01
1.281991063976301304e-01
9.463767838454255343e-02
7.576432783507483504e-02
3.425970475058907894e-02
7.767814428707747743e-02
6.024145426627936645e-02
8.082333555361140287e-02
8.031268241404176944e-02
8.518988087694813471e-02
6.574003640991907260e-02
2.997058859131231101e-02
1.125122458751315890e-01
1.562409958015576472e-01
7.591491049121437684e-02
4.957880123777972520e-02
7.768897674355387806e-02
7.747283859638041947e-03
3.643851464020662900e-02
7.192436202652634225e-02
5.542742125835995598e-02
4.029183761921029117e-02
8.451677244067444528e-02
1.763565922391266416e-02
9.766358819810520842e-02
5.854444372015285558e-02
1.034266842668843389e-01
7.259708159866708199e-02
1.820590975558931957e-02
8.848622437833372767e-02
7.153384817942978757e-02
6.753975118298566338e-02
1.076220818302760784e-01
9.096217913116663722e-02
6.450883634226962926e-02
3.027110650375052642e-02
6.135518876005724431e-02
1.260428310744027558e-01
1.069816798204344388e-01
9.392357222254664462e-02
7.450876310405826763e-02
1.093945782519200605e-01
6.687002868724022109e-02
1.381667925751795534e-01
8.246824084344904493e-02
1.522581782884653567e-01
1.507801698769224430e-01
1.720844341727323645e-01
1.193728968335447393e-01
1.689533863247687229e-01
1.378336692027336552e-01
1.455778677015724665e-01
1.162247088541562418e-01
1.265109410366547227e-01
1.641025102209572872e-01
1.505416364177672717e-01
1.397639644805313275e-01
2.028280114651365151e-01
1.759422065882372266e-01
1.770265242974031761e-01
1.907019904500174834e-01
1.549359671635018032e-01
1.557738335839644606e-01
2.497985282168372623e-01
1.916777655740009301e-01
1.657572627906467866e-01
2.366921831794103204e-01
2.085821355448929382e-01
2.117770094710344775e-01
2.402677824889200009e-01
1.486056200434080210e-01
1.807675790440008701e-01
2.008230089114458883e-01
1.919226760921224073e-01
1.431858240143235039e-01
2.064149910304169389e-01
2.302423822807299347e-01
1.904213195995092534e-01
1.667490547648431409e-01
2.263723143209653288e-01
1.635155619880007960e-01
1.973322940783185930e-01
1.378654298304142489e-01
2.595214238021971709e-01
1.557304697447303710e-01
2.028718065430014650e-01
1.525346681850902331e-01
2.061534922701341033e-01
1.822312889004656378e-01
1.698240127212884976e-01
2.306335288136809603e-01
3.218659277934666219e-01
3.084753850674789577e-01
3.557764976594552930e-01
3.720835918418982091e-01
4.307331575642681099e-01
4.799456310554502947e-01
5.286094835398621461e-01
5.860618255339746785e-01
6.215585923794946233e-01
7.409037961822235729e-01
7.702844164611609701e-01
8.240738575894999141e-01
9.063405250933386226e-01
8.910754311024654539e-01
9.361791372676111500e-01
1.010165601503393518e+00
1.016937105868557456e+00
1.024168737125521256e+00
1.007310957771782922e+00
9.255543024184013090e-01
9.265908660511318340e-01
8.486999380241455615e-01
8.578164020336833673e-01
8.144358143821824880e-01
7.298243573902795100e-01
6.332277858440900076e-01
6.409194904960859862e-01
5.437660201243394997e-01
4.628893465654189132e-01
4.088615260501873849e-01
4.118912180726749250e-01
3.106637506090850764e-01
2.999777031302200969e-01
2.915660904761001593e-01
2.529505758799411863e-01
2.505943425106758049e-01
1.685572087730864699e-01
1.852490923519959920e-01
2.025776627747084280e-01
2.020879830066575344e-01
1.350380108383080480e-01
1.751911029040582046e-01
1.677380954566686511e-01
1.400457117405158325e-01
1.417888231876354710e-01
1.355331853739205339e-01
1.801135023173846272e-01
1.243541782868138601e-01
1.713628828523206804e-01
1.431481408284930590e-01
1.953124232855691922e-01
2.122028570904595512e-01
1.964390361641946969e-01
1.849239477032001977e-01
1.555354145816649492e-01
2.496349306121507516e-01
1.894849355163901738e-01
2.238558106912953427e-01
2.073523715849770466e-01
2.223061955746724050e-01
2.425085890526762489e-01
2.504866189973364299e-01
2.057999093809373958e-01
3.156056062735023149e-01
2.776005768405660490e-01
2.804366262722428615e-01
2.705470738425384547e-01
2.195800797213867672e-01
2.637540147258252698e-01
2.485882514839368729e-01
3.470869843319684955e-01
3.129049259212084433e-01
2.495759437203184938e-01
2.838613308390862677e-01
2.552409148539053763e-01
3.068958867037899774e-01
2.835617695022126794e-01
3.104227480446969389e-01
2.927316452126494384e-01
3.548485155170216232e-01
2.968201046046122782e-01
3.183647856617148886e-01
2.799542685164629896e-01
2.537016812425368362e-01
3.062617254434031877e-01
2.557569092396340671e-01
2.844937397840512361e-01
2.698185733279400700e-01
2.991892430452640084e-01
2.841786131462422649e-01
2.907539982739858475e-01
2.310124988010558711e-01
2.664838274396547080e-01
2.329886519374499421e-01
2.939151526867508912e-01
2.116782259864171678e-01
2.334416692227453405e-01
1.743830364854041248e-01
2.759297243075871653e-01
2.313004054272857768e-01
2.429474667713786007e-01
1.927395254332523178e-01
2.406241635487280095e-01
2.616729102939618912e-01
2.537298647332051349e-01
1.406001391821875002e-01
1.869999749667535516e-01
2.006393826675451353e-01
1.668651309393534843e-01
1.682128390596882017e-01
1.576700721140553152e-01
1.231684640241482165e-01
1.336442341439703918e-01
1.679631613751625951e-01
1.181151884257894968e-01
1.570095881697731177e-01
1.491198093907348254e-01
7.638812528690348824e-02
1.257331117546880983e-01
1.350795527808372198e-01
1.228514308609549577e-01
1.428756404999195484e-01
1.354931146245770823e-01
8.155341114769161515e-02
4.705898156878034200e-02
5.455769061467952846e-02
7.070666132369352042e-02
1.595237787167256005e-01
1.116018991804712812e-01
8.166749413826818182e-02
5.509315645171077025e-02
8.772856384236060734e-02
1.040743706640022415e-01
2.201580873164558569e-02
1.051805993079592688e-01
8.184988729550843334e-02
6.404406358332162541e-02
3.805067849007578995e-02
5.768442048596759963e-02
4.386127472575425401e-02
1.048527656331914026e-01
-1.761881122731574073e-02
8.022614670961211725e-02
6.788469487634316013e-02
6.196175699531739078e-02
6.427117280753966155e-02
4.924858159594514700e-02
5.118236363152511847e-02
3.384228490962847002e-02
4.733128957837253598e-02
3.558246108605329222e-02
4.878675674768745418e-02
5.953505839632020069e-02
6.821828227682782964e-02
1.335219337720090424e-02
7.187736562351071390e-02
5.939703551242328516e-02
2.996611566163591769e-02
4.487603530773517230e-02
1.198219134016078810e-02
8.129748245074691626e-02
6.965615844817051039e-03
5.966353771825044783e-02
2.992670940642412972e-02
1.826227432183486279e-02
7.412782491133214358e-02
8.305035385259945668e-02
5.907701540098585224e-02
6.425595584036893071e-02
6.152031923463774366e-02
1.462762833740551272e-01
2.128410490960018844e-02
7.950272265587104981e-02
9.505541193371518094e-02
1.092145111931299706e-01
1.197452411900830349e-01
1.270683977799640374e-01
3.400484458946173572e-02
1.170581397075761976e-01
9.566694108226765636e-02
1.260590405858205698e-01
1.384067018188514797e-01
1.165365744674619064e-01
8.813326753338458774e-02
1.364018087579965677e-01
1.428540016516950950e-01
1.583950825344567770e-01
1.548798433921527717e-01
1.839932444135215506e-01
1.495119710182448713e-01
1.500715662469260248e-01
1.372255917623020904e-01
1.581215874448209380e-01
1.951981027669805469e-01
1.749016300636743182e-01
1.618546823864656647e-01
1.717686739262922480e-01
1.283159065361165196e-01
1.698551333276878406e-01
1.817777360286363109e-01
1.620767864201225206e-01
1.475185293226979333e-01
1.643048385604435890e-01
1.097983810361595342e-01
1.575249670966564763e-01
1.427403749430507240e-01
1.469675136049065356e-01
2.372130180435106928e-01
1.564651905876174864e-01
1.480804737930533632e-01
1.854788151060258461e-01
1.729697370321433281e-01
1.459291485332946392e-01
1.413918587371613966e-01
1.474580493542551884e-01
2.022357089309470002e-01
1.502234161382201283e-01
1.511756873665415224e-01
2.101654381921872206e-01
2.125899188236072546e-01
3.079250892414936436e-01
3.528906505276463990e-01
3.873221629548633249e-01
4.113410360794701459e-01
5.188439217776660284e-01
5.495848785850613316e-01
5.692892408250058711e-01
6.552989698370632610e-01
6.930647696921647949e-01
8.112036455452479311e-01
8.239452524164657676e-01
8.635594281522757099e-01
8.678360339457477091e-01
9.387594831674517248e-01
9.811905943637720950e-01
9.703945957036000936e-01
9.563968971150014209e-01
9.606543500916482348e-01
8.897913141985231977e-01
9.015793760677539570e-01
7.814116132449800967e-01
7.882374864718290075e-01
7.551775647890225374e-01
6.865220782377413622e-01
5.898235262629158981e-01
5.455985734223516292e-01
4.505319682480355414e-01
4.097845627358003284e-01
3.575858336895839096e-01
3.140071600777469829e-01
3.084287666704855768e-01
1.920404167899226744e-01
2.033773997047745863e-01
1.830382814201510222e-01
1.821814837663169040e-01
2.052150433770550120e-01
1.855992137439488598e-01
1.281289068211519944e-01
4.128419500530243480e-02
1.805718892323173452e-01
1.544305567623300013e-01
6.558010664240694620e-02
6.993124145209020370e-02
1.361478725896865805e-01
1.375495466439153602e-01
1.131841091942089872e-01
1.097429033651275976e-01
9.725411917221142566e-02
1.483324915076575379e-01
1.470998668191424719e-01
1.409995636979983202e-01
1.289854102972893268e-01
1.601343582386970943e-01
1.715861774072210966e-01
1.753661436656536177e-01
1.247324892768706672e-01
1.537738202343438831e-01
2.243320347809175108e-01
1.893130545103909324e-01
2.104901728449693754e-01
2.176556678337619732e-01
1.796958792468445754e-01
2.266744895764471468e-01
2.157991924596447397e-01
2.562282251906595754e-01
2.190875050356412279e-01
1.977030916801471028e-01
2.296266247894886425e-01
2.516952133662214153e-01
3.152906210377589002e-01
2.382441862309794267e-01
2.218953450436896013e-01
2.576730143368038406e-01
2.009472104271000092e-01
2.217063062427074571e-01
2.321026614435792168e-01
2.615664985309530954e-01
2.549811305708526987e-01
1.769760330357183775e-01
2.750406491188905345e-01
2.376940106491069737e-01
2.346630536149911794e-01
2.534366093457066649e-01
2.088734862095491529e-01
1.903903501586029501e-01
1.932733740888796792e-01
2.691960078182976668e-01
2.008514139332543691e-01
2.202520289272802967e-01
2.077741814894078221e-01
1.686690513633904709e-01
2.119778520736675942e-01
2.394699633162156172e-01
2.539290081732354376e-01
1.367798395892511898e-01
1.824300825342365928e-01
2.086884003545264321e-01
9.179496748491002001e-02
1.671523603837191951e-01
1.966154508248214028e-01
1.269106244075598744e-01
1.447095669746685520e-01
1.237696578555838867e-01
1.523813128545386253e-01
1.243554937447881592e-01
9.718172867818625216e-02
1.514864163864240720e-01
1.100871046299236183e-01
1.005960210157221674e-01
1.281867874027714516e-01
1.078905638598868094e-01
8.493728759370557102e-02
7.116734778743284695e-02
7.454967917244466336e-02
1.211676620519669401e-01
9.716688416714357179e-02
5.894778500710420865e-02
2.906540036844022790e-02
8.636358962364609759e-02
9.342884063176951082e-02
8.164193819456208590e-02
4.283333484381970924e-02
1.746340064878036669e-02
7.446201659885239021e-02
7.722381011864791478e-02
1.633637290559355332e-02
-1.667285980311980845e-02
2.992803942060094993e-02
4.427287705175052268e-02
5.895781139523871561e-02
2.062326992926379748e-02
-4.437102513103234613e-02
1.225861786004836876e-02
-1.050663405028800720e-02
3.895300671444387047e-03
-1.890090332421128644e-02
7.287497583127869327e-03
3.857152220872291787e-03
-6.270976293518215616e-02
4.335603915150269827e-02
-2.755702419537556236e-03
1.234504743917017380e-02
2.291052595292338012e-03
3.032398143192791343e-02
-3.030440904375506991e-02
-6.171284066440219096e-02
-2.102543755663425357e-02
3.326004371940667614e-02
-3.489755971456391659e-02
-8.338383609921649203e-03
-3.664716428761029959e-02
-3.329828265807903420e-02
-1.338697181790442052e-02
-3.551219911221226155e-02
-3.237790264090902731e-02
-6.230489833016876478e-04
-4.272227329853659633e-02
4.132240555057217768e-03
8.393138021517837499e-03
1.455096082964975335e-02
3.055580435253076044e-02
9.448348645711538568e-03
9.709811222542764214e-03
-2.800334991235190266e-02
4.908468834167845074e-03
7.827090925144560007e-03
2.057464211477139440e-02
-3.559589758158401840e-02
1.964414078211834669e-02
-1.849006817541867798e-03
-2.125237011210472093e-03
5.802971266222828328e-02
6.684879501129947776e-03
3.949975754366223668e-03
3.835358902429551048e-02
8.561825232603574587e-02
1.581571438223686871e-02
5.685093848191591359e-02
6.312107970811525748e-02
7.141475145822438753e-02
6.668752015569127944e-02
9.088507197749275124e-02
8.488533334425041321e-02
8.378352391460335002e-02
5.359501639350797847e-02
7.366496773592175196e-02
1.224945688932169013e-01
8.011642788111704439e-02
1.127515288924972464e-01
1.275351376351677168e-01
1.008391184195470275e-01
1.046720503914038702e-01
1.305084554283617027e-01
9.990155218388141467e-02
7.629452178683973629e-02
1.164576991425505248e-01
1.600780348344181814e-01
8.937700874803011786e-02
1.337985066971476567e-01
1.446254587333055674e-01
9.578862101662016793e-02
1.011500050139950424e-01
7.135453140341871392e-02
1.166278863181893499e-01
6.283661043270526159e-02
8.736451030241379478e-02
8.732129172230795877e-02
9.157497831002929523e-02
1.077754127133139228e-01
1.292273112684831360e-01
1.038131192753236620e-01
1.269761120696355494e-01
8.282638875275924462e-02
1.097748455239198340e-01
1.034226491732526676e-01
1.288355425060944415e-01
1.668151074405032630e-01
1.962211479389512903e-01
1.983676517672096073e-01
2.399934876292409980e-01
3.469814332693706427e-01
3.675779864550730580e-01
3.976416053271464301e-01
4.439658001914522090e-01
4.836287893226596801e-01
6.441278627994847517e-01
6.548005872424007556e-01
7.100226988476895373e-01
7.330130666091918545e-01
7.989896655820369897e-01
8.315410166254036950e-01
9.017826751333326563e-01
9.481362445672628647e-01
8.853784119550736076e-01
8.962420755011207829e-01
9.260112889957337057e-01
8.616715383975426246e-01
8.523484714575669807e-01
7.957359735274398549e-01
7.754566337306381119e-01
6.771504428498975603e-01
6.598031654679052949e-01
5.795274635989317025e-01
5.130888896420043865e-01
4.213639433210709107e-01
4.178089301524017252e-01
3.587644030353612234e-01
2.806066535545110874e-01
1.871206174669883815e-01
1.954623300050063461e-01
1.941507499261169445e-01
1.520780541698859289e-01
1.720649901594367981e-01
7.161025006129602410e-02
5.344494885311557031e-02
4.236303716508730416e-02
9.539965749266696160e-02
4.445376726597887601e-02
7.984018771761489108e-02
3.965266709912733389e-02
4.433688069299143025e-02
7.413524592067058383e-02
4.639106966878490945e-02
6.042509595202862765e-02
5.618813149750610803e-02
5.656873750903479436e-02
9.860350899905487299e-02
1.399352676473132051e-01
4.199388272090688601e-02
6.124885415321051213e-02
9.584335230215840218e-02
1.217022925358616364e-01
8.375408236821874075e-02
1.430463806386672032e-01
1.199424370934323719e-01
9.144405245248221625e-02
1.460338318567563076e-01
1.453457275740037136e-01
1.999283035285360499e-01
1.708450245509238186e-01
1.712900669633297124e-01
1.943675451894712747e-01
1.292571590577652196e-01
1.960901586397154617e-01
1.705109809085870731e-01
1.685084892394976830e-01
2.373419454802987161e-01
2.442857870443384538e-01
1.411458443687506337e-01
2.185349628703467106e-01
2.169757996282333234e-01
2.005266294605224930e-01
1.159998113536378633e-01
2.030685656814870121e-01
2.592186841125369012e-01
1.808510941120735349e-01
2.316567566885431306e-01
2.022584077272606695e-01
1.566391812858681232e-01
2.425958313956793622e-01
1.834133790577073264e-01
2.571617784680256813e-01
2.040169908837321244e-01
2.451215345636539866e-01
1.132729161072422719e-01
2.190237708075195855e-01
1.882072763965335904e-01
1.985609374375602587e-01
1.695470247426026367e-01
2.392615352929305383e-01
1.459509116291042297e-01
1.590104412655843902e-01
1.660075293880803327e-01
1.846214197849119498e-01
1.895755497530192679e-01
1.571739318364063775e-01
1.464440038446926107e-01
1.528250689317291189e-01
1.023817333372143701e-01
1.195504254303364350e-01
1.748609622955366316e-01
9.298962603969479490e-02
1.255697440521740815e-01
6.061419494056416446e-02
8.191769609296792320e-02
1.433843003476617528e-01
1.019350981463270078e-01
6.351989943496358371e-02
3.530379159986209159e-02
6.018267849548359499e-02
1.011424867400904232e-02
1.862394519481655464e-03
9.570237441302784087e-02
4.688059547323977089e-02
5.689411603800539896e-02
2.861221400090033229e-02
6.131559121260586609e-02
8.863201453846977773e-02
2.331276035427498616e-02
4.296971375961117917e-02
5.100011289779590729e-02
1.885723113073622947e-02
-1.513911535098858008e-02
1.295984710105917842e-02
2.683571837152452788e-02
2.271227139684285634e-02
2.488946137310682483e-02
9.112294616511390499e-03
-7.967197517266773332e-03
-3.853989091921458665e-03
4.382848331321853586e-05
-4.597483655490469667e-02
2.618482861100936837e-02
7.088529011134915570e-03
-3.603415140977248021e-02
-4.387527047437365935e-02
-4.415301539168735301e-02
-4.871271219032790450e-02
-5.849228136135298933e-02
-3.624722122795850238e-02
2.903134682972804970e-03
-4.483954524486265247e-03
-7.810002054660869497e-02
7.356807723304478741e-03
-4.538870700908485128e-02
-5.083942932020131533e-02
3.353441234032437934e-03
-7.163896948834297396e-02
-5.524904830340436612e-02
-2.693962960691084763e-02
-2.231015005492642186e-02
-4.777987911135778143e-02
-3.797810115165903971e-02
-2.214003010341622155e-02
-4.138360901162675687e-02
-2.456186069704670988e-02
-5.960457580215876294e-02
-1.892358337983929273e-03
2.011099845461879199e-02
-1.112881417653155403e-02
1.531369613994956053e-02
-3.456500901257844593e-02
-6.848934871151102222e-02
-6.346973886428852740e-02
1.887891212100527294e-02
-2.318596985391506785e-02
-4.122629542884684306e-02
-6.362174406019986683e-03
8.148718212241182202e-04
1.831223766799541797e-02
4.547929911017545290e-03
4.188014210440796359e-02
-1.120851126070656484e-02
-4.208856303894258077e-02
3.074865537241620872e-02
3.591493406718768155e-02
6.399348221851788865e-02
9.072051421484018940e-03
3.673625483968552541e-02
4.638635234653971928e-02
8.412466985859118340e-02
6.259877997375928871e-02
2.995031199467988736e-02
1.017329836965448486e-01
1.017213731999681570e-01
5.064710173307854224e-02
7.797871454638377609e-02
1.020437268233904127e-01
8.650867021857464034e-02
1.112931269688265390e-01
8.922243130642203146e-02
8.981692147758355005e-02
1.426695375558280077e-01
6.566596025004169113e-02
1.074778475695676860e-01
1.010760473371912216e-01
1.512504221960034867e-01
5.079690208094516518e-02
1.059687913871138337e-01
7.992797014823274648e-02
7.895654949563601921e-02
9.508759672736985524e-02
7.877263613664955977e-02
1.020930337752742612e-01
1.163282941231968126e-01
7.509360600330312885e-02
1.073215289406840994e-01
1.014522278051759596e-01
9.688662905321472618e-02
8.781642550192893248e-02
8.600687209622143170e-02
1.027913560613837873e-01
1.288835338466912672e-01
1.353875931842382085e-01
1.347359110985155706e-01
1.702066347760354537e-01
1.988352726309264018e-01
2.013399595273361598e-01
2.450342483880540434e-01
2.479621933542786594e-01
4.061175134814447585e-01
4.057338754739319153e-01
5.034777094541968978e-01
5.576873430022691869e-01
6.182466614479571465e-01
6.489634798544752226e-01
7.427444024775069487e-01
7.669896391284356518e-01
8.520561283405394537e-01
8.438073653203156388e-01
9.093330482924141256e-01
9.245645174248720011e-01
9.426251407154555562e-01
9.027783568584362150e-01
8.704520033013878333e-01
8.623046777483740488e-01
8.092661046947230430e-01
7.887562618031602746e-01
7.248685248158428518e-01
6.163161752788622882e-01
5.677673393315045836e-01
5.320986056825509625e-01
5.101114714410037720e-01
3.840791917319560378e-01
3.393508436148370833e-01
3.393329870752014865e-01
1.995083382920556370e-01
1.907882928708455328e-01
1.784938128409911950e-01
1.952590297580890644e-01
1.276816873407774500e-01
8.572409984177756237e-02
1.116878679789553575e-01
3.941575130163144786e-02
7.748087865995451073e-02
5.193244142723785206e-02
1.154055745664386845e-02
1.120657214670439661e-01
7.065066308464360012e-02
1.128022171025589160e-01
6.262383505277152596e-02
3.220250381107084281e-03
4.656451567882143039e-02
1.087039811757898045e-01
7.764188662328583290e-02
1.123800311574334465e-01
1.323129375646252825e-01
9.651273084823763782e-02
7.994841547947152682e-02
1.878580812029004010e-01
1.510515246201855621e-01
1.458411957820159033e-01
1.564982132824246919e-01
1.446723270721792243e-01
1.407046134950440952e-01
1.777893406277671340e-01
1.262885375024503376e-01
1.653312720236439215e-01
1.970120488502116740e-01
1.730314707796138385e-01
1.591906817075176561e-01
1.557555628731392139e-01
2.259000426730533861e-01
1.798431800937549396e-01
1.902883607401772148e-01
1.746197463062944544e-01
1.948491606299518897e-01
2.494653026323012668e-01
2.764186620302221398e-01
2.387065511938290252e-01
2.397296839459163997e-01
2.035902320528050202e-01
1.932887109052277563e-01
2.258277667202818473e-01
2.285754711739122202e-01
2.728687188376472950e-01
2.270669596029218362e-01
2.056974907167179734e-01
2.168645270921720769e-01
2.398726244035876976e-01
2.366056455098689559e-01
1.991567962229196798e-01
1.925617502206832254e-01
1.807937069141646591e-01
1.615590320089161647e-01
1.678292168593776834e-01
1.752132863609759117e-01
1.451796932196526280e-01
1.296548239173372363e-01
2.392358504944702147e-01
1.800477404381705671e-01
1.108544108331832867e-01
1.938065447726506907e-01
1.746636301530011537e-01
1.878412205080558506e-01
1.415505731811260159e-01
1.242638658404970620e-01
1.610198150228637770e-01
1.076892994583832919e-01
1.322378585959826935e-01
4.784039585298294900e-02
1.403577490506652259e-01
1.310438280515689724e-01
1.526037576092529324e-01
1.341759604417200880e-01
8.187390738011662839e-02
4.616926582164344872e-02
5.751003488958813387e-02
8.464828842475009829e-02
7.137802822985203632e-02
5.628593927052365220e-02
9.356073598416833614e-02
6.220380930831630184e-02
5.018877604614936649e-02
5.928063175017406899e-02
9.051134727718571082e-02
6.686511463819418133e-02
5.305073499499295131e-02
-4.775530481631616586e-03
3.472389612687168392e-02
9.161765091293301577e-04
1.918387593755782605e-02
4.749475508475589636e-02
3.172026830120294044e-02
3.429904644955215215e-03
1.326578267212077250e-02
-2.168858275396818094e-02
1.064670992606542299e-02
-4.726135167240606144e-02
-2.347258983164097340e-02
-1.272091305836258769e-02
-3.305947349691344683e-02
4.185491844647212800e-03
-8.838180145248245023e-03
-1.456488803044638652e-02
-2.249425165827446949e-02
9.515881096246809473e-03
-1.235746273591319458e-02
3.054960653966274850e-02
-4.680477429816892743e-03
3.384238057979366276e-02
-3.018007312334462094e-02
-3.169468745180151897e-02
3.071230548391448018e-03
-2.744943948290814312e-02
4.056478345834831772e-03
-3.871948987296466166e-02
-2.713333161645576849e-02
-3.598982262403388477e-02
-2.041851628089225851e-02
2.063191206708014230e-02
-1.506716193511641044e-02
1.309404098681329898e-02
-2.238904372082249281e-02
5.516823563852579770e-03
2.267457985535005147e-02
-1.585784905215082558e-02
-2.699362181791446769e-02
-3.556417072154451769e-02
-1.371889877299691668e-02
-4.259475619918061395e-02
1.381393834712333138e-02
7.570418885915283780e-02
-9.210208575015574328e-04
6.487454125981192976e-02
1.699816250079928467e-02
1.757126334866759843e-02
7.061353104341128173e-02
8.917375534459104358e-02
3.119500702861548874e-02
8.379434388311424176e-02
2.827402827061219204e-02
5.562630411811608777e-02
8.525781007037142034e-02
7.699677344856288574e-02
5.882210195895496568e-02
8.772017317742471232e-02
9.162108853091677219e-02
6.216913752733167764e-02
1.115772252814943716e-01
6.280361768416363455e-02
1.204591288222344458e-01
8.195200968695509625e-02
1.198395779821755380e-01
1.109502993910113644e-01
1.452419616394069468e-01
1.244466901841952133e-01
1.562295788631715698e-01
1.041063220517296772e-01
1.018990908796036099e-01
1.681898619759444324e-01
1.280441035430832653e-01
1.224461420696854597e-01
2.204348946856082569e-01
1.393988931727802028e-01
1.204001540240957069e-01
1.012831676542985532e-01
1.619871950119885218e-01
1.182841761083679027e-01
1.514637141173196533e-01
1.278738834837924720e-01
1.730359402703189331e-01
1.495296828767691544e-01
9.280357725081285480e-02
1.307968221358279115e-01
1.336458238140437460e-01
1.126894495103047678e-01
9.547542147140762603e-02
1.328864071500758803e-01
1.710662334280138586e-01
1.473900462862175187e-01
1.404072239314002879e-01
1.964664277372840384e-01
2.048403269001241034e-01
2.799520524389952914e-01
1.905960839808653051e-01
3.339567858869463279e-01
3.499072665631097201e-01
3.467859438623288049e-01
5.000565983354491317e-01
5.349783155481082630e-01
5.752008888630599781e-01
6.199647393043508092e-01
7.036394819996750760e-01
7.251690742364333975e-01
7.646842984888019279e-01
8.225118855508198878e-01
8.939992109696581757e-01
8.547183181259898621e-01
9.446551041526393133e-01
9.541943440365135976e-01
9.478206678681967423e-01
9.035092122436290119e-01
9.313800611912586014e-01
8.665904593512452347e-01
8.254709713289042350e-01
7.704514135663731444e-01
7.392141987624492039e-01
6.746923160220648086e-01
5.310809667741929196e-01
5.477710571185224753e-01
4.612788447576662287e-01
4.728871002578488025e-01
3.653836678727691578e-01
3.194934910241031822e-01
2.838486881619566304e-01
2.585451415537456388e-01
2.138915524790449829e-01
1.856296768340627013e-01
1.999438933870286150e-01
8.430562802333593786e-02
8.774112457437212298e-02
6.514763851517521576e-02
1.136018116014583662e-01
1.263985157472664600e-01
1.213975097506395096e-01
1.000090716986322403e-01
1.595267145201059722e-01
1.358942048883222675e-01
1.375370490148054570e-01
1.105119240169269157e-01
1.210573841302199638e-01
7.499211605892820709e-02
1.398984050676084223e-01
1.688095421176833422e-01
1.560202390519807303e-01
1.118923904731346231e-01
2.234969103689310455e-01
1.367648603995592904e-01
2.039173925592210890e-01
1.784692562737829613e-01
2.052698498190721477e-01
2.035781269486615641e-01
1.461975175927764381e-01
1.713695085292800402e-01
1.791754948125750257e-01
1.587335726414937087e-01
2.759021283975816030e-01
1.574048788081878480e-01
2.336779846281660522e-01
2.218118084459690664e-01
2.682394089352715394e-01
2.396333177815797577e-01
2.258456900745015594e-01
2.370458630638583586e-01
2.642993314928350213e-01
2.948858921110778519e-01
2.525356525938091679e-01
1.851849355239145456e-01
3.049665410166516599e-01
2.428435456521455538e-01
2.338393134174324428e-01
2.371057975405961027e-01
2.308552442510327374e-01
2.703347052367777725e-01
2.042855674207228189e-01
2.859940867059145297e-01
2.491999510372682192e-01
2.597486786976274109e-01
2.769045141652297648e-01
2.718780603248308059e-01
2.015446521607153485e-01
2.693216270801666035e-01
2.047915839240703750e-01
2.445005228568956634e-01
2.730110730753097514e-01
2.116985563993893371e-01
1.901941784394235724e-01
1.909472979768996881e-01
2.786908612257162354e-01
2.392104337466154362e-01
2.235332374761508090e-01
1.584310621627614823e-01
1.832975461613270407e-01
1.958115056065149184e-01
1.599463664069808444e-01
2.448015503469008203e-01
1.910437887448502847e-01
1.851912265268393365e-01
2.083763244602080955e-01
1.539852971446340757e-01
1.472874756663325735e-01
1.806412490002425042e-01
1.749201384898725620e-01
7.615063819052042549e-02
1.447771695207472065e-01
1.551763892300048187e-01
1.481250002846931368e-01
1.269309963014628173e-01
8.499878584079759158e-02
6.797373308946373649e-02
1.227829819991839433e-01
7.047677633657491170e-02
2.150044308530571491e-01
7.054495542119038065e-02
3.045750545597445541e-02
9.101862983710871935e-02
1.021734645776433692e-01
9.364926330739353766e-02
9.246526983954317380e-02
6.252281402447584790e-02
5.145797067061034374e-02
6.522240473438029040e-02
8.572103478957798783e-02
6.045088054589946303e-02
3.008922674607413320e-02
5.084940518887396538e-02
1.182871099186246916e-01
4.758375457362459121e-03
7.816685406737206021e-02
7.946796300479144759e-02
5.526714285451618525e-02
3.400743220357968499e-02
5.571488825454146143e-02
-1.959902737939569692e-02
1.554700649390268127e-02
1.021064128680816835e-01
3.451616361777026798e-02
6.172022982048066403e-02
9.033304757908368343e-02
2.433426220867455567e-02
2.931190171527069815e-02
6.384061444852619227e-02
8.730240545057990631e-02
1.836075792557900765e-03
-2.208828813019665660e-02
4.917994521357356430e-02
4.586962534478408737e-02
5.039443427024882516e-02
-2.122323058782597804e-02
4.623341010035107029e-02
4.815806390381124902e-02
3.442922612039787944e-02
5.633129255183377815e-02
7.306812421528308121e-02
4.516030775640888367e-02
5.910600759066442222e-02
5.711794683566588648e-02
1.356600405104749912e-02
5.024545768836568421e-02
4.623844449141716051e-02
3.002803669528689851e-02
3.945572839596130088e-02
4.154790593687707201e-02
1.094265800894192731e-01
5.142253868052355792e-02
7.533725365895500847e-02
6.979290004171803674e-02
7.078316112460902865e-02
1.162288799394726319e-01
1.533011747855516083e-01
8.146606021228633421e-02
1.322090044059932301e-01
1.681174565890316275e-01
1.351914982663074694e-01
1.181598241369078428e-01
1.830450888077775340e-01
1.123302146952228631e-01
1.625282026350044762e-01
1.240412891130921458e-01
1.576698811237045861e-01
1.109599643740870889e-01
1.705319133828741007e-01
1.593857641090135058e-01
1.277255019311580031e-01
1.819406576887682425e-01
1.660240471952680041e-01
1.780068215788810082e-01
1.738058287403584923e-01
2.389065043405529942e-01
1.872391406866387997e-01
1.991052860413647652e-01
1.891585298556913985e-01
1.894232299560539290e-01
1.593727617190821566e-01
2.160873383872877751e-01
1.533284470423437462e-01
1.645511305429122884e-01
1.094585678479307600e-01
1.730598048430693481e-01
1.837388671082171854e-01
1.874896416328792337e-01
1.478947041242473781e-01
1.122744822496938855e-01
2.168906296027397207e-01
1.508765738394330091e-01
1.558694279441383279e-01
2.214037208668798717e-01
2.152353725120462191e-01
2.059615900155400969e-01
2.376606564942975175e-01
2.358812641045859304e-01
2.173052263092165592e-01
3.041798157902994015e-01
3.617536089826367540e-01
3.289154723825185589e-01
4.444626992751687378e-01
4.583802477674086551e-01
5.227748019568535520e-01
5.749256990466434791e-01
6.287962060274441267e-01
7.613822849197530163e-01
7.195453878562620975e-01
8.450422455761676943e-01
8.507725886905457280e-01
9.577307014220207693e-01
9.153523509446073181e-01
9.888698710117703738e-01
9.848515981488694671e-01
1.012545208875219149e+00
9.951724861076863826e-01
9.194748948474887884e-01
9.179270235399078492e-01
8.534440073201767785e-01
8.710544168333916870e-01
7.435697187054781665e-01
7.723117751629293704e-01
6.446220325729603573e-01
5.917137735933001297e-01
5.588196413510280181e-01
5.110895067638623335e-01
4.392544157635526747e-01
3.951695720078088336e-01
2.969667979004373959e-01
2.206222255472246596e-01
2.658861265718431288e-01
2.470485545581067865e-01
1.900586329239320194e-01
2.099576335103864599e-01
2.078641026044978357e-01
1.416051031613118627e-01
1.993909829633544462e-01
1.904862363829392669e-01
1.614733994275265316e-01
1.127189231804929942e-01
8.188623249901255674e-02
1.843840468429604473e-01
1.351756469578768993e-01
2.316393753270483968e-01
1.986290590477586271e-01
1.612317609766533710e-01
1.720891596418290814e-01
1.685945303741759882e-01
2.210232689985457966e-01
2.253745979129450072e-01
2.062144918647240976e-01
1.681966400963686437e-01
2.212715215938931279e-01
1.542048829140038324e-01
2.144261281142091635e-01
1.598836793328044792e-01
2.522741525095046899e-01
2.082204647589759872e-01
2.730809079024295594e-01
2.495983185383279235e-01
2.477622487495692027e-01
3.321125564250115292e-01
2.346804920675758244e-01
3.118733787067733965e-01
3.309576903826366712e-01
2.905474850540804566e-01
2.996443243554315905e-01
3.087869337328933983e-01
3.035227850740425115e-01
3.243086148781325617e-01
2.688522808125350383e-01
2.908578440659370656e-01
2.909755191045768630e-01
3.258500799592343178e-01
3.018809414942100200e-01
3.410168031786983689e-01
3.323356993316306518e-01
2.883884548743601006e-01
3.432881395566035332e-01
2.823416107072387327e-01
3.072823650612655499e-01
2.640465567111980882e-01
2.586606424101241530e-01
2.834689533537592676e-01
2.458706679989211552e-01
2.528720232223180542e-01
2.551358911577273902e-01
3.105532097435509398e-01
2.496316264475639257e-01
2.498067323223723546e-01
2.512400671757391013e-01
2.726625603445042012e-01
2.786769452481792086e-01
2.598803439609117527e-01
2.436164137524086115e-01
2.933775245836863221e-01
2.857505366848654971e-01
1.717860166434627966e-01
1.807176200502592089e-01
2.354311059944725337e-01
2.239031275560963152e-01
2.117865974058278367e-01
2.488825711302939392e-01
1.571837800722842848e-01
1.722635374671104003e-01
1.690025610956038260e-01
2.088614901325827611e-01
2.038771751757365303e-01
1.534263737381984516e-01
1.937635426889345591e-01
1.541716017248233594e-01
1.522549972666804585e-01
1.831370175042287551e-01
1.721714571739547117e-01
1.662959448049803335e-01
1.577953730565653523e-01
9.815328751504207028e-02
1.875260024420030425e-01
8.184305848593011190e-02
1.074710447336540420e-01
1.298633596870278906e-01
1.253127544745656630e-01
5.522037511561071060e-02
1.104164023501121861e-01
8.739230596247386795e-02
6.346047190967232798e-02
1.174512234656123200e-01
1.518394263942011158e-01
7.951429433704473859e-02
9.442930469114158010e-02
8.045176648080611115e-03
1.019273146218948600e-01
9.206253244657544577e-02
4.450762184302575059e-02
8.543711456494058887e-02
5.144691491708520970e-02
1.175216710879369852e-01
-4.434643857846642945e-03
4.388760053367420089e-02
1.165074985900575733e-02
7.705507770602047779e-02
8.763422140689998419e-02
5.863528374112540742e-02
1.010376419521354791e-02
7.327816661150522715e-02
1.599037062866881520e-02
4.170422119500558078e-02
2.029929667488409445e-02
5.095711137020687148e-02
5.934108535540309759e-02
3.213557428445078940e-02
5.605181425990447136e-02
1.002041993061917463e-02
7.028991406394177743e-02
6.576778414473359591e-02
5.372285742739621450e-02
1.023170609436529765e-01
3.982601937112743851e-03
3.913979601956688037e-02
9.252597509269863685e-02
9.897008102050169898e-02
8.967497071987756696e-02
1.031412381463323868e-01
4.546929514847608544e-02
1.088270146438227726e-01
7.655830310161562680e-02
9.300998274681923639e-02
6.596491307771670809e-02
6.887364014849928218e-02
1.554777658590664191e-01
9.696848150816780865e-02
1.020457682494363694e-01
1.311380061532370356e-01
1.465677647539977424e-01
1.346936710204270082e-01
1.163385208488652289e-01
1.292049970186870400e-01
1.998872338213834865e-01
1.585267480336972901e-01
8.535821267009313651e-02
1.635095399001267324e-01
1.845113856612587422e-01
1.635087873829837446e-01
1.389665748110052723e-01
1.693682857014724430e-01
1.820596035469963236e-01
2.032612878225816821e-01
1.955603056573618492e-01
1.513323948805367636e-01
1.982214825174915540e-01
1.876224176095015739e-01
1.523562328492678031e-01
2.098540253086724761e-01
1.874803079969995789e-01
1.804158500265879150e-01
2.405978520517955133e-01
2.042017123287354075e-01
1.599975838527888106e-01
1.593699148424795320e-01
1.631429657737037131e-01
2.120809545840480204e-01
1.999005240925769422e-01
1.908875996569836531e-01
1.869304637237343969e-01
2.158549266393484378e-01
1.641467370728893760e-01
1.461136381144315655e-01
1.510842762134229633e-01
1.940575976929750368e-01
1.986757506958259090e-01
2.112797707435771499e-01
1.934672894126536202e-01
1.500338893203056190e-01
2.342761351844126760e-01
2.392883668252860363e-01
2.430795738186055099e-01
2.614762711111406346e-01
3.789653051881314294e-01
4.020603260287514691e-01
3.861714225926284882e-01
4.383587124796402001e-01
5.459967609785448817e-01
5.764507142072368140e-01
5.830406902055331742e-01
7.062294983597691145e-01
6.988959230769874464e-01
8.041620858411635542e-01
8.613057568852291457e-01
8.809971895283346122e-01
9.299184707438927777e-01
9.748176841200130172e-01
9.677923672068544647e-01
1.007596608505808122e+00
9.775618793744741408e-01
9.328527347931083735e-01
8.976782904967954835e-01
9.173967784867896880e-01
8.867849763189121770e-01
8.524591973758937069e-01
7.298271733149183094e-01
7.406960058536234959e-01
5.888908951718612172e-01
5.760663628280727755e-01
4.826644661468753594e-01
4.113085287753062147e-01
3.747705250923396014e-01
3.630111721268869385e-01
3.054476201509356281e-01
2.711162335414443181e-01
1.888233040908711413e-01
2.447635103006673141e-01
1.968745540675471695e-01
2.037147481914695912e-01
2.259780599773081600e-01
1.720024878844257366e-01
1.328457932327673507e-01
1.634931527444378196e-01
1.597080161714835855e-01
1.342994676291823786e-01
1.879659699598345002e-01
1.247056981632750083e-01
1.182167634320955008e-01
1.673492703255500258e-01
1.800685180730806911e-01
1.908107209317350950e-01
1.223029141713254941e-01
2.048338374300565645e-01
2.221128315050580893e-01
1.969007777863452380e-01
1.073757616555497396e-01
2.082686353579519534e-01
1.895398666359353057e-01
1.879538351860088607e-01
1.838760476339857952e-01
2.520853353631896110e-01
2.195822717506207278e-01
2.565444538595354484e-01
2.078299541159867037e-01
2.343288599917963677e-01
2.815095697679990128e-01
2.602104900624818140e-01
2.383836503029646003e-01
2.658331246898278932e-01
2.875044292586657613e-01
2.929637357026865230e-01
2.334437741528480326e-01
3.078021023961238223e-01
3.083505790621870468e-01
2.447645433279667104e-01
2.475540450740919551e-01
3.412489970290153996e-01
2.201680747504163593e-01
2.727608407560265791e-01
2.529622731800883484e-01
2.455282197523961929e-01
2.646602993117543878e-01
2.943810973934409825e-01
2.729571986291490782e-01
3.052575123126670120e-01
2.541552380847534320e-01
2.845794941438730685e-01
2.503268749905596113e-01
2.636756510679813537e-01
3.381685609119635672e-01
2.877544808313819980e-01
2.652494718258045503e-01
2.793366347247952519e-01
2.786307955431051586e-01
2.368040870375477391e-01
2.228071493620838450e-01
2.942732480657689886e-01
2.389013219575390756e-01
2.132923169786525297e-01
2.260262221307201003e-01
2.186111181517507163e-01
2.244926044770794160e-01
2.289490231045020197e-01
2.075951043104051208e-01
1.655363739587292216e-01
1.910785319178129882e-01
1.821858513075083619e-01
2.150799500856688251e-01
1.518205723192810053e-01
1.659907411861416271e-01
1.507446802080931736e-01
1.184572782564013438e-01
1.795496129775732697e-01
8.435598749416924058e-02
1.530597238489930234e-01
1.352525408943642815e-01
9.976991453810665766e-02
9.161059890173758880e-02
1.204723479502667338e-01
1.202780642626634089e-01
8.789399424070219735e-02
9.580828743057710761e-02
1.462200920723310815e-01
6.744155430712184263e-02
4.398852036993312203e-02
4.241896950575239911e-02
7.807008809320684084e-02
7.743331453999899305e-02
2.492638824831022726e-02
9.599303959253691065e-02
1.714115125399368750e-02
4.837625874791794123e-02
6.531774633667405960e-02
4.731673160842907178e-02
4.947629686074827421e-02
4.164650999001066889e-02
3.513628305642993443e-02
2.930157822294763431e-02
3.267858805414070728e-02
6.098580967382245810e-02
2.801972822371089772e-02
3.785909048161750778e-02
5.473387774574929587e-02
-3.626977262979043382e-02
-5.241129323036672338e-02
2.997690013645502860e-02
2.110243867088452269e-02
6.063626716505955694e-02
-6.098143846128222662e-02
-3.154213225820792776e-02
-7.411869991116763062e-03
4.636362493799666556e-02
3.030585044738202602e-02
6.856205434548380551e-02
5.483521560146985968e-02
1.013655419441598579e-02
2.856054989401810712e-03
1.896294005786399242e-02
2.742009502321854017e-02
3.657029136294276395e-02
2.402938822621483728e-02
1.446179722122194894e-02
4.573438887856168256e-02
-9.550478774967952056e-03
3.954915476201496111e-02
3.065543928639903951e-02
1.842511090022735248e-02
4.223961913553820474e-02
-1.509013949823821005e-02
9.924035502642943041e-02
3.727778634983922035e-02
5.437885021496528110e-02
-5.096228036740520911e-02
9.418219617000206378e-05
4.234836341166148266e-02
3.221459671236322209e-02
8.577361099269459332e-02
9.960580080760811361e-02
9.129857030924880268e-02
1.216711975373512972e-01
9.938579829745582128e-02
8.720162919483284703e-02
1.240483464211119685e-01
1.385147100075733162e-01
1.638422847935234461e-01
7.540258904078646351e-02
9.340890419554193080e-02
8.897482800796974178e-02
1.454963221517165117e-01
1.124322674039149039e-01
1.394121580833075913e-01
6.729857382469985050e-02
1.064717682615708705e-01
1.769670140661462887e-01
1.191356553990940148e-01
1.288048975255051687e-01
1.874536482009017679e-01
1.412137555575465331e-01
1.825084519128667149e-01
1.663426906472100508e-01
1.871734386732628597e-01
1.324589789278961260e-01
1.433235701950732743e-01
1.728683138733783098e-01
1.299819879704225412e-01
1.974791828507462266e-01
1.544914936005529205e-01
1.396814545638792870e-01
1.774946577421457339e-01
1.166055388364233836e-01
1.404902108624466739e-01
1.816802513185111212e-01
1.626455994383337045e-01
1.801177784108271007e-01
1.531903862484789158e-01
5.890611049745446415e-02
1.978435660606782664e-01
1.763017103150643083e-01
1.256175323841477731e-01
1.454466682552475187e-01
2.263232535083253005e-01
2.840025563668388542e-01
2.871354844421157848e-01
3.525779508058038969e-01
4.124724311622110506e-01
4.342583135941687766e-01
4.978327517679949632e-01
6.031201387442625128e-01
6.287272296898149815e-01
6.868830788357180861e-01
7.649969098580939875e-01
7.685198390078311625e-01
8.616800023857045243e-01
8.806302811093755789e-01
8.963707408503812646e-01
9.657571559290223373e-01
9.177394834860987949e-01
9.726670922648312789e-01
9.652172545868935583e-01
9.188159980400699700e-01
9.113185606373399583e-01
8.278603600658488437e-01
8.622454143660570614e-01
7.089027521886070993e-01
6.929612842871301082e-01
7.077790731578643690e-01
5.628584265973677336e-01
4.679481700388948284e-01
4.078852530850307634e-01
3.773700236390354901e-01
3.045569079921586764e-01
2.290643220016929382e-01
2.076257563026422392e-01
2.176220912815382547e-01
1.250091503664247372e-01
1.490248033849856102e-01
1.582068466485591907e-01
1.026897555039478216e-01
1.050582261546023077e-01
4.626432683893655362e-02
1.306582132776301919e-01
8.237980373042666504e-02
9.489890287085461784e-02
1.242677009728850174e-01
6.043422017516491412e-02
1.252799480963945056e-01
1.032705350097147812e-01
1.530013566176936790e-01
1.375198798963385427e-01
7.815515777833256794e-02
1.451770439145448899e-01
1.356538871483548847e-01
1.120813442739655719e-01
2.022763624797051796e-01
1.047026514783076373e-01
1.739353681405774177e-01
1.694349588245460114e-01
1.827196422914945662e-01
1.801646541287310888e-01
1.476977385519964991e-01
2.408311292032244422e-01
1.720891169554807365e-01
1.931454368726598647e-01
2.012827333707400967e-01
2.067784753859412961e-01
2.207619518607464582e-01
2.628589593352976261e-01
2.238651059359910434e-01
2.595672266156112129e-01
2.115798912709833945e-01
2.495128099841912583e-01
2.736218759866690386e-01
2.318599057876539471e-01
2.183201530082511110e-01
2.595326902454300755e-01
2.520481622656636223e-01
1.958149570287693042e-01
1.889178762914676679e-01
2.574641095796016965e-01
2.484074775012427572e-01
2.555430305128932877e-01
2.067460878866729246e-01
1.968992017212070622e-01
2.394744013734355914e-01
2.371405992663335460e-01
2.385169301746127846e-01
2.423828314884427515e-01
1.879480076668080257e-01
2.402442257965885508e-01
1.982595176192557818e-01
2.090478353568634429e-01
1.838997682380930643e-01
2.469781023483451909e-01
2.387733750391451970e-01
1.316376365675733517e-01
1.855753331623928026e-01
2.346569579589726784e-01
1.971925497649875125e-01
1.575986752908738187e-01
1.830313704241275929e-01
1.420015438616232806e-01
1.388632759159945940e-01
1.887993607625069736e-01
1.192432571498004690e-01
1.260645224557481736e-01
1.457425805133505947e-01
1.142106295699202717e-01
1.241991157327533013e-01
1.341055653295269989e-01
7.173151121077774028e-02
6.862201972032368202e-02
8.313802754270019357e-02
7.236704334112219195e-02
7.812858435084896191e-02
