9.682341322709071552e-01
9.275514510573661386e-01
9.778954462880083964e-01
9.285151760451073599e-01
9.139614765156416354e-01
7.983401836296469822e-01
8.018104589632323309e-01
7.147070735789669005e-01
6.462327678125541208e-01
6.026790515179394347e-01
5.699285229119488427e-01
4.534965371951760194e-01
3.832427321552728250e-01
3.089487220588126304e-01
3.070279814279122110e-01
2.984900101092600733e-01
2.343232818841785303e-01
1.435983135179759174e-01
1.362554264518493763e-01
1.323117202527385183e-01
1.019109560423469285e-01
7.486252427246362084e-02
9.254952022231055508e-02
8.024673502588079710e-02
6.760392376417975746e-02
7.662607675735483292e-02
7.982162438649550995e-02
1.239247789078812556e-01
1.100549629516313355e-01
7.424080697951415675e-02
8.084949330715424098e-02
1.540763684416972812e-01
6.111346505295786602e-02
6.417166472098739805e-02
6.661802273220286674e-02
7.680895365188968038e-02
1.168880172277027285e-01
1.489565072163856474e-01
1.334284662879389460e-01
5.191094186784941944e-02
1.546184945778605324e-01
7.135271103013576810e-02
9.888353807889661840e-02
1.516573340353477573e-01
1.627986804731103854e-01
1.718394558063023325e-01
1.956546657065380002e-01
2.116324397601148100e-01
2.200194516313808135e-01
1.685117519251597140e-01
1.944075342474423373e-01
1.770004005671105551e-01
1.988554372038511542e-01
1.826445868683625462e-01
2.270733479738180072e-01
2.215981794833095098e-01
2.048920799562878314e-01
2.588194830339973218e-01
1.948704566352285616e-01
1.577007495764376765e-01
1.886644110011913567e-01
1.869319704665599602e-01
2.010391309128701787e-01
2.442951061646260746e-01
1.484691781091335983e-01
2.226862279601688477e-01
2.232963776959925040e-01
2.004263406592536323e-01
2.127073447568351705e-01
2.518208861532573728e-01
1.882588197447529199e-01
2.026448386790297151e-01
1.432841097696020416e-01
1.730256962531817877e-01
1.837411995443112012e-01
2.281716779891639346e-01
1.761514549389751605e-01
1.551185266924578754e-01
1.906722482543479202e-01
1.475051793751046003e-01
1.728280555286921261e-01
1.234532155256840985e-01
1.356908081509194675e-01
1.307454288919991936e-01
1.394989135611536535e-01
1.126230398585701536e-01
1.416035321087471543e-01
1.828310364790827758e-01
5.475340937476522868e-02
8.209790068988082057e-02
8.175248114722777348e-02
1.225982657217523086e-01
5.564397218718814681e-02
7.693021629521955285e-02
8.617686111332693855e-02
2.855052177578367573e-02
3.859530692124248097e-02
6.786991780069621949e-02
6.639133468624922041e-02
9.519067720772420027e-02
2.903639823367679812e-02
4.702625184108164685e-02
3.895379039046900638e-02
-2.716173050201007438e-02
2.071982003649020659e-02
-2.084001170887937737e-02
2.154234426139639558e-02
-7.263463674562348205e-04
3.738354850866246887e-02
4.619991247753260644e-02
2.013862684265568803e-02
2.897166665540663877e-02
8.301370235131445841e-02
2.052370780231321107e-02
2.656845045590592452e-02
3.028303386152009224e-03
2.348596700981461782e-03
-3.444706149098807069e-02
-1.000867654911283267e-01
-2.741004696396952267e-03
7.104387449825791401e-03
1.630703779475266291e-03
-4.042140229123428186e-03
-1.746081106767407437e-02
-5.463028360022010449e-02
-2.851765408320630288e-02
-3.505130191156842490e-02
-2.529230304479401434e-02
-3.077904806207373833e-02
-4.723504217468103838e-02
-5.229556957434911696e-02
-6.099436602597512608e-02
-3.862136378845165696e-02
-9.580888389660360827e-02
-3.608336850246595534e-02
3.697600166321098059e-03
-1.632588636297371137e-02
-4.763589884516888917e-02
4.304117846605864939e-03
-2.376084529746363971e-02
-6.735798271132041604e-02
-1.812723056726979476e-02
-5.733998931925728126e-03
3.914208733961471731e-02
-5.472067901509719556e-02
-2.677444992982798769e-02
1.569413925530283027e-03
3.369895031806839636e-03
2.747289162633773096e-02
-3.165679795627261706e-02
-1.889591553004152727e-02
2.163742873935946970e-02
2.768572210240589221e-02
2.338683920395854404e-02
3.987609415265036539e-02
1.187030582364057008e-02
1.090112260585120174e-02
1.182895660502977508e-01
-5.270101188471248282e-02
3.714598952115077957e-02
1.010498557611603371e-02
4.644452962054493317e-02
7.155442191850328038e-02
9.507905990420212339e-02
1.096126370966868796e-01
-6.505396725271311853e-03
1.108363222183599561e-01
1.322248632456880513e-01
4.680131257618108664e-02
7.694324320830317476e-02
6.597841479102345419e-02
9.037731873401039229e-03
1.099536787595619958e-01
1.043730893836191387e-01
1.314632198870314128e-01
1.151550659379116659e-01
1.604415284095081773e-01
6.074683463208668810e-02
1.297064980376558263e-01
6.284578188409242760e-02
9.134545340268618308e-02
9.532079670562587648e-02
1.044277474290205843e-01
1.176355246332776855e-01
1.022525297231198504e-01
1.310437157321720503e-01
4.177136553080990078e-02
1.135969707585682276e-01
5.610042802060064004e-02
5.687954318684729921e-02
7.028207982773261586e-02
1.184522935439584479e-01
6.457054037345467956e-02
7.756263819782967250e-02
1.346991210894219748e-01
1.165756541091572118e-01
1.090997110094698436e-01
1.824823850256618862e-01
2.288799422563906061e-01
2.615731359254917510e-01
2.933014428431521270e-01
3.484907418967112536e-01
4.084149309682177376e-01
4.393714778146105004e-01
5.103742674286321224e-01
6.320923788327948989e-01
6.590827524170307372e-01
7.045056601602845969e-01
7.824573924769814282e-01
8.005277528898606665e-01
8.847584978077321916e-01
8.934161544009942002e-01
9.757201718415554614e-01
9.212600676271960332e-01
9.379731446535649608e-01
9.425629941484584551e-01
9.076917546726207542e-01
8.732650338305044668e-01
9.260130486645501424e-01
8.009808758539544993e-01
7.303521096742480179e-01
6.551103517055596459e-01
5.891568895168990405e-01
5.266035835244373686e-01
4.512120304162512974e-01
4.010326957386870506e-01
3.299471151797957469e-01
3.056768756086924999e-01
2.736445138114882436e-01
2.438566404227499596e-01
1.720463753718716460e-01
1.255380571496573228e-01
1.301586278853610057e-01
1.226068264891718718e-01
5.316526731972208430e-02
8.938384314581955536e-02
1.106485403838805004e-01
8.365459589321851130e-02
6.733035491864947097e-02
9.011714043934582197e-02
3.320101531344735180e-02
5.452783575305564234e-02
1.034377980931998897e-01
5.804358507913699727e-02
1.127647395947736497e-01
3.602356221006126902e-02
2.738691922050096039e-02
1.275336112649806120e-01
7.850217460054381702e-02
7.839792048823839010e-02
1.058253037881729253e-01
1.241823914257308009e-01
1.661350321730449831e-01
1.102003472783677496e-01
1.417301828437670663e-01
1.545173163014074147e-01
1.613855384689198980e-01
1.402917866928291013e-01
2.293479998319712387e-01
1.106223024889262663e-01
1.878504082425393740e-01
1.207082308804291737e-01
1.866193198154756372e-01
2.024568454379011562e-01
2.104336925351184551e-01
1.314763989870913197e-01
1.690308314110794408e-01
2.162061246044060803e-01
1.395340609467273785e-01
1.886250852764938257e-01
1.581201137234076182e-01
1.933898702890880505e-01
1.891288189465613612e-01
1.838378312471476983e-01
1.795471913088831362e-01
1.824885085978023846e-01
2.430114059595966658e-01
1.532963447602641305e-01
2.220718632627143030e-01
2.030559635439738719e-01
1.745438984597943721e-01
2.292254945046268144e-01
1.898268368857246591e-01
2.072102197571062954e-01
2.310915698392925766e-01
1.773481433050860256e-01
1.790704050099996558e-01
2.269236495291627465e-01
1.671217118352361919e-01
1.728406849396472711e-01
1.843066418504520076e-01
1.902261193875522671e-01
1.563768246337944312e-01
1.644718398121382819e-01
1.792210717350781191e-01
1.446147500305883793e-01
1.378511460861555626e-01
1.422873961218636685e-01
1.247776545107253110e-01
1.333807030770685353e-01
6.432488783091960816e-02
1.839523409102923890e-01
1.260650259237904025e-01
1.238836719059971531e-01
1.114990959463794395e-01
1.059389107127216012e-01
7.229171088982044857e-02
9.283091494958031764e-02
7.405795375294818572e-02
6.669218444027574799e-02
3.299008626344757111e-02
4.052867870364527253e-02
1.832099003920008989e-02
6.318844098575333856e-02
1.019341589364899520e-01
7.459688795940161432e-02
-1.096653138390216858e-02
4.537489073563581721e-02
3.723882837434092097e-02
5.733058530399375019e-02
2.568675796757570462e-02
-3.564969649152906900e-02
-2.950690796096638868e-03
5.838360641657295430e-02
-4.942397940907235221e-03
1.311744050210457424e-02
-2.526566701219667976e-02
7.116183650617446954e-03
2.507216531371985607e-02
-1.093033154545576535e-02
4.356664055960850213e-02
-3.538944403708248893e-02
-4.467065784150336949e-02
-2.260163319217564637e-04
-1.158477195934128068e-03
-2.391342604964472734e-02
-5.756122667230918755e-03
-2.995530924357106550e-02
6.864257259343059525e-03
-1.945967118147299765e-02
-3.862307470093251371e-02
-8.246898303474269054e-03
1.946115424645317171e-03
-9.342426077718599120e-02
-6.410404156393600950e-02
-7.387795945355975225e-02
-3.714754142608882315e-02
-2.623296282054397854e-03
5.195867174076745920e-03
-3.274510998705447429e-02
-2.847703273963934911e-03
-3.095755232027303655e-02
-4.069326494076723477e-02
2.320205445394137034e-02
-3.491675732640571461e-02
2.473874741253161841e-02
1.804409469483501255e-02
3.695430915931635640e-04
3.280962941979238823e-02
-1.327097299986916903e-02
-1.708459474771464176e-02
1.037822987412961862e-02
8.824227109720420015e-02
-2.333439234131473583e-02
5.627136348891845913e-02
4.453942281398445141e-02
9.514334660773587915e-03
6.272463763682548099e-02
1.212578082524101430e-01
2.740763627019463661e-02
6.844643820491852493e-02
7.563886525783709847e-02
3.752459418657185658e-02
2.602559771889186718e-02
8.078970944686295064e-02
3.584430541525465697e-02
1.306925449948767026e-01
5.300742016026303849e-02
9.831194396298133242e-02
1.001472067723513243e-01
1.018863057523538840e-01
1.299380845410137153e-01
1.043359422953434174e-01
5.767742148512744471e-02
1.188225544253200816e-01
8.764998914133867447e-02
8.163081440187996973e-02
1.179422359667224307e-01
1.270923735005424771e-01
1.695299825759451484e-01
1.163812397545623822e-01
7.302572131181983561e-02
1.546047833954857509e-01
7.946760363541030547e-02
1.596973072869959931e-01
1.433142888984106633e-01
1.301227378728610495e-01
1.262794441034203186e-01
9.622022359547159620e-02
1.480706623117936660e-01
5.168710082018532215e-02
6.524964274091467342e-02
1.275453703232428126e-01
7.660073457628491234e-02
1.180789332257740076e-01
1.262576574276027541e-01
1.490097331835264771e-01
1.825029554334932080e-01
1.748888178483715694e-01
1.971432729899055825e-01
1.961952567805475001e-01
1.546628985126311528e-01
1.999908497567350618e-01
2.754819748125576506e-01
3.076333550542205697e-01
4.662689243279872220e-01
4.573795197826515668e-01
4.869575903029643715e-01
5.757840260543884980e-01
6.444617693662215707e-01
6.709906334769958347e-01
7.176703601980861658e-01
8.267853424954634267e-01
8.846782861853352831e-01
9.384205277943927781e-01
9.007928918837885268e-01
9.186984564505472628e-01
9.341227785638468450e-01
9.312934568255274437e-01
9.577106718392544016e-01
9.430500224411954013e-01
9.131678209304391336e-01
8.798081418407278642e-01
7.943166143032034388e-01
7.704349293934665832e-01
6.906668887369997734e-01
6.619995412056574047e-01
4.942171454699647026e-01
4.688049285716177628e-01
3.900058903266874211e-01
3.650457560057306372e-01
2.943468943313816144e-01
3.326702642918866193e-01
2.789376384147045362e-01
1.297559522872235027e-01
1.514748553050461743e-01
1.707117109622946771e-01
1.498243097492482634e-01
9.770039498453049476e-02
1.146558686927467013e-01
9.961409976590901438e-02
7.122815857049130672e-02
1.163059295652082714e-01
1.172282832002609770e-01
5.672366023520172829e-02
1.053662520575130990e-01
7.232747661517158200e-02
1.839729180541178621e-01
8.614815941686848610e-02
1.012877373416882359e-01
1.434669293400629153e-01
1.121414491044987471e-01
8.660867761771363915e-02
1.806403530576067562e-01
1.420105340906101243e-01
1.418169817292802004e-01
2.198876644398615188e-01
2.186141915152681470e-01
2.138687791720838560e-01
1.455504108890390835e-01
1.906533691722044066e-01
2.352074958921835934e-01
1.812426614562383242e-01
1.442829171766961405e-01
1.928387009976921806e-01
1.641922245579207629e-01
2.076005561737043759e-01
2.326011538893310027e-01
1.764789463727772512e-01
2.107174796840974029e-01
2.363156116192656753e-01
2.307018358510557476e-01
3.072469980537903544e-01
1.993976880437255128e-01
2.564772419744804632e-01
2.071185736134816824e-01
2.157407107226688714e-01
2.407465011742237204e-01
2.450613558635365841e-01
2.601348094478428963e-01
2.728137299681453465e-01
2.801651930746513752e-01
2.423993374107454302e-01
2.332207908972082355e-01
3.222984846465190012e-01
2.642806032698130636e-01
1.987700939223529806e-01
2.142367307700752677e-01
2.770396653265403408e-01
2.847333080113597648e-01
2.312005691679168140e-01
2.300183332172131556e-01
2.288326986202142144e-01
1.701593570349554940e-01
1.872129938379938352e-01
1.640496444427869682e-01
2.122930622607444306e-01
2.347465226306128805e-01
1.364285671533368993e-01
1.851730163484175129e-01
1.845130256481002373e-01
1.679769388540285069e-01
1.384057035680424652e-01
1.559065810164574906e-01
1.967413334298141747e-01
1.246999425828833330e-01
1.815894703925075848e-01
1.915252390977503494e-01
1.010005963948142488e-01
1.108146915745404915e-01
1.850104065387764840e-01
7.158701463680718080e-02
1.124485508598285360e-01
1.300375448415964641e-01
1.542221290343578632e-01
1.190684019941527227e-01
9.681898111438164145e-02
9.998374626066461324e-02
1.098818568618624703e-01
9.280762815881068994e-02
1.016164139649266551e-01
1.124894716590802562e-01
5.163534075487177799e-02
8.859433158442697742e-02
7.077950684789620361e-02
3.155522800002639322e-02
8.426190619131886453e-03
2.222527302345033567e-02
7.386480523732848191e-02
4.271996502347247260e-02
6.322307430181192678e-02
-3.479567812673267473e-03
5.308685649560666159e-02
6.905197822171435171e-03
1.676264346410175077e-03
3.284698631199245433e-02
9.076238502639293049e-02
-1.449871889342564842e-02
2.981118385300644130e-02
4.405229423793398380e-02
-2.724117237449228540e-03
1.471849918705363074e-02
6.096591290794151075e-02
3.784263185551456354e-02
5.999018639338690034e-02
3.761836946021603068e-02
5.377446024334663066e-02
1.147583458238744109e-02
5.960549845291784887e-02
5.027303178789361421e-02
5.105313936491212914e-03
7.262084777712898842e-02
-1.634848488722794035e-02
1.991412606890517745e-02
5.010019875719311233e-02
-4.163334014091196397e-03
-2.810824496149728902e-02
1.041683675116704400e-01
2.894437217813279617e-02
6.358474559005961035e-02
2.448310431759637834e-02
2.609882334316553434e-02
9.753680337913903098e-02
-7.046387709253755863e-03
5.064714610040457754e-02
1.976945364482550135e-02
1.672497280834425726e-02
4.786067135226564073e-02
1.059932396186202691e-01
7.936705193974205597e-02
8.802986231373854942e-02
1.118828874738949791e-01
1.141257712492358689e-01
8.918407971270929380e-02
8.648730720033333264e-02
7.505328937878553985e-02
8.156703027810580098e-02
1.277733834887658515e-01
1.187418628906943968e-01
1.089300093148479892e-01
1.693589382492173834e-01
1.334797702894289784e-01
1.204759469540583050e-01
1.322380756435855287e-01
1.071220424368202473e-01
1.876934167287229172e-01
1.001307501628775076e-01
1.100726489426381571e-01
1.490836005865047165e-01
1.458624584346252251e-01
1.933228948251746182e-01
2.014821152796411052e-01
1.869597747221820039e-01
1.470497981576598390e-01
1.773233556579378312e-01
1.760904115568348582e-01
1.622631469989039288e-01
1.759399197476271270e-01
2.051300965677314847e-01
1.488943635442911695e-01
1.951659339799326209e-01
1.751611294150615672e-01
1.971159869389403352e-01
1.496355260156635725e-01
2.278001370706996542e-01
2.082455403371425984e-01
1.821051664352819344e-01
1.214956565664532806e-01
1.738806078330968896e-01
1.356413755939036014e-01
1.744597844144908094e-01
2.228227191502995530e-01
2.066763590068663170e-01
2.374159755751154011e-01
2.474803664767210309e-01
2.702791274388234855e-01
3.131034217767909578e-01
3.554459229024971578e-01
3.633452193792641727e-01
4.153169805118379632e-01
4.919080757306610319e-01
6.303593899487018870e-01
6.284249226384828191e-01
6.184118498868749203e-01
7.312626405059750034e-01
8.381091200135981634e-01
8.760244864441379953e-01
9.480977696004119215e-01
9.746248277635851665e-01
1.071832174365641599e+00
1.003571281561218109e+00
1.008186825548939680e+00
9.813577422117951699e-01
9.895184443814789566e-01
9.297562121380937850e-01
9.323558595302249286e-01
8.890500336213065236e-01
8.686382639687042495e-01
7.773734992426634127e-01
6.530756265349646483e-01
7.137706677805085720e-01
5.639809605106276269e-01
4.795851446334381540e-01
4.383184146406684523e-01
4.264085404902949183e-01
3.582120018796781657e-01
2.969739700800556603e-01
2.837534585415326105e-01
1.977457055811707165e-01
2.632941662008236872e-01
1.709060694769917732e-01
1.447609074558250941e-01
2.036287079188381088e-01
1.620177327926188293e-01
1.637300292895565168e-01
1.261877446182992912e-01
1.011704781068250847e-01
1.452836229235956178e-01
1.351555217160795852e-01
1.052303820492929698e-01
1.267548272875049509e-01
1.603132464908651189e-01
1.800721266561871037e-01
1.579759732474845801e-01
1.543055167975801167e-01
1.301258543374889942e-01
1.616312798992950994e-01
2.152255574159623319e-01
1.692664762325015726e-01
1.921465069282911886e-01
1.948247610083213011e-01
2.576774229347372769e-01
2.116496737205078582e-01
1.779316308331382046e-01
2.223607052236335202e-01
2.488746403583154965e-01
2.784367027294510910e-01
2.585948550712032779e-01
2.226604504732209167e-01
2.713912600941499331e-01
3.348546073436712844e-01
2.853884601745427796e-01
2.281996632674426206e-01
2.840491192341040860e-01
2.887966817968182776e-01
2.872652985258130620e-01
3.240496943569878274e-01
2.291110919948806945e-01
3.193964984977139543e-01
3.084910608347727345e-01
3.109820629252745272e-01
2.253375446142455718e-01
2.340626014835483770e-01
3.025861838569962048e-01
2.486110551491155785e-01
2.977783569306082789e-01
3.128481880762402634e-01
3.008354899862848431e-01
3.187600229070831070e-01
2.847610550411500130e-01
3.410742474862124007e-01
3.068592671297940555e-01
3.330347611347379000e-01
2.285084755362679632e-01
2.057973060691227485e-01
3.370462705513289636e-01
2.136913798757133498e-01
2.521200525249308599e-01
2.459637168900822290e-01
2.811209353346795226e-01
2.351023257422955870e-01
2.458181331978971373e-01
2.445005253097202735e-01
2.274829566642732892e-01
2.307918593133717611e-01
2.446926789727615903e-01
2.079722747925025483e-01
2.053731134989751628e-01
2.178989860940973300e-01
2.084096131173647781e-01
2.212237615620827325e-01
1.844578184657721387e-01
2.022503075289336927e-01
1.323786377006780368e-01
1.601915307510764497e-01
1.911393571170674766e-01
1.529973480800287944e-01
1.839582150412021888e-01
1.550032758531828259e-01
1.265883225465116724e-01
1.538760439171369676e-01
1.642118998511526706e-01
1.395313898484059623e-01
1.638121568190354371e-01
1.155353580437326749e-01
1.147228661176528941e-01
1.267673325564305231e-01
7.572369613167054259e-02
1.252123560013709835e-01
8.732575061974875985e-02
1.089337900788416302e-01
1.161730128583468857e-01
1.623317498962875416e-01
8.008277492062267078e-02
6.805751419507741207e-02
6.845550659471776045e-02
4.746975080401471397e-02
1.319171363703047495e-01
6.575736969254930564e-02
7.825493591489658673e-02
7.413622383878015754e-02
1.028588482828991235e-01
4.061060041312931912e-02
1.140288577321519892e-01
9.334403844018776542e-03
3.053520968401367275e-02
1.200124569444622757e-01
8.163123903078831067e-02
1.035194874662125342e-01
5.370826743083183252e-02
8.264593830286137699e-02
7.208621481735055792e-02
2.584083772422337069e-02
8.328813879029642320e-02
7.965133920327656381e-02
8.970730420451814013e-02
3.969597443937744607e-02
7.338778614347110651e-02
6.410257183522467817e-02
-2.185624486921788207e-02
6.931269308802107121e-02
5.429038800907009382e-02
1.081718404563068586e-01
5.442025831834745170e-02
5.623758568566429583e-02
6.541574298461499959e-02
4.941459561000557943e-02
9.248062606471157965e-02
8.798653317933408102e-02
3.533573156702535939e-02
1.114702104997903620e-01
1.231124894549879834e-01
7.124776640834745711e-02
1.000430545713802272e-01
1.120693587670175129e-01
1.199699545705187609e-01
1.156503260267510991e-01
1.151569209544218847e-01
8.970838476260739602e-02
1.394784116550140673e-01
1.808404839994082747e-01
1.295738002147454881e-01
1.971067724445021430e-01
1.577927342261865040e-01
1.931076666587489554e-01
2.220760029727190943e-01
1.724418907954531899e-01
1.749033674355428003e-01
1.222544462150163408e-01
1.247322455176455847e-01
1.694102581333212232e-01
2.296116986932733306e-01
2.124966220550368601e-01
1.955334627320546304e-01
1.799294740530958947e-01
1.736094104044861863e-01
1.757792234960144084e-01
2.016612654794730231e-01
2.144723860044511210e-01
1.995396947571299040e-01
1.681357734863797859e-01
1.792467273062309241e-01
1.677354462513054034e-01
2.049134991501794789e-01
1.395070880128348734e-01
1.700380975018878638e-01
1.725047246789763733e-01
1.785537979540948172e-01
1.719027412306068925e-01
2.005721846790899376e-01
1.493554990330867027e-01
2.129272551553768045e-01
1.602375071397119655e-01
2.047572403230141780e-01
2.035632266654630596e-01
1.655041589447444617e-01
2.947622967976344932e-01
2.212298445865693575e-01
2.946046448531547957e-01
3.388139850603245073e-01
3.089024036605946821e-01
4.229430010635372161e-01
4.251784920197317907e-01
4.157578504942044950e-01
5.041079894361746305e-01
6.046587698961083390e-01
6.264822720348544038e-01
7.722275234438907843e-01
7.782840820880241317e-01
8.309900128641944939e-01
8.790683119491593533e-01
1.003480895195001388e+00
9.617151765312701439e-01
9.808556835419937059e-01
1.037853509484183867e+00
1.055602069708714508e+00
1.008198016767355210e+00
1.008406440043695174e+00
9.970303449159141351e-01
9.920353918937073745e-01
9.026187672714329757e-01
8.322873851862964134e-01
7.626020546641105735e-01
7.354259497283469615e-01
6.393413795376056141e-01
6.254707728943634804e-01
5.417826287081285441e-01
4.758830869466675884e-01
4.248307983034561031e-01
3.762505010143639694e-01
3.338542673946629513e-01
2.465025862239544618e-01
3.233274575130956618e-01
2.766647152968373380e-01
2.277045494422663408e-01
1.918953678891700265e-01
1.671611687786485612e-01
1.009050651717700031e-01
1.060632805978403981e-01
1.443571068481795117e-01
2.006861979957052511e-01
1.386105034569671268e-01
1.563061605283788402e-01
1.432594326588179090e-01
1.909545469567315024e-01
9.366204355685395222e-02
1.811749104628500029e-01
1.554995699172085355e-01
1.272913730656152487e-01
1.500502555791398129e-01
2.270053019478441292e-01
2.296991500808983899e-01
1.805595117254347182e-01
1.849810611386815962e-01
2.177723871163449454e-01
2.472520884343710479e-01
1.751874676149318688e-01
2.200334908657849142e-01
2.533075825701875949e-01
2.417862777300170685e-01
2.223204496174106537e-01
2.795718729401174274e-01
2.969106604988441811e-01
2.579543965970871877e-01
2.870844958775757849e-01
2.670715731302010232e-01
3.052521829754600291e-01
2.925336243403695025e-01
2.746419518779059654e-01
2.898293068662603500e-01
2.497349273697306027e-01
2.879416286563188931e-01
3.065354269152483213e-01
2.593258048542301242e-01
2.446301663458009257e-01
2.875509867402003539e-01
3.546218690162430964e-01
3.093441096755315534e-01
3.171871628020481171e-01
2.956466113110403082e-01
2.925827956577863320e-01
2.908129633526147506e-01
3.240156917988453733e-01
2.681737629714406324e-01
3.115815770165511478e-01
2.744184267067790173e-01
2.998854611968513328e-01
2.457169478199903723e-01
2.288858593410388054e-01
2.075847381782662815e-01
2.207033484802392309e-01
2.663418010629637900e-01
2.321691044281861960e-01
2.773951313624795079e-01
2.428633237321218274e-01
2.109619709693065226e-01
2.396639369407662645e-01
2.163230116777308809e-01
2.372724854353209512e-01
2.135795066444429735e-01
2.201287104113530957e-01
1.846259347373137016e-01
1.789957551540245773e-01
2.538469520301387394e-01
1.932582456092718226e-01
2.066412572560523131e-01
2.372392700718562175e-01
1.726384992964173637e-01
1.835473776023407166e-01
1.510848473083788446e-01
1.639944204270984696e-01
1.832406736225566934e-01
1.604883602016644317e-01
1.367044258798280620e-01
1.149013093792747298e-01
1.351812691059867677e-01
8.838696956188951681e-02
1.207196733191266136e-01
8.102636852076539054e-02
9.954209120880384842e-02
4.662443919179241197e-02
6.645990400192200442e-02
8.489882024741267352e-02
9.069774740337857577e-02
9.874274072161562388e-02
9.890779593864958141e-02
1.230199897432799061e-01
8.859807831124391631e-02
2.395774777670740818e-02
5.793477745095536313e-02
9.793528934283914078e-02
7.608706243767265898e-02
1.656766613344485828e-01
5.919520691912155685e-02
1.244725407390384897e-01
6.577106039923637237e-02
6.540333242346754727e-02
3.104391317388618954e-02
9.202051005454658927e-02
1.481513277246212720e-02
6.073324190000976841e-02
2.350052263133685371e-02
2.192914179162559069e-02
7.166195865978589041e-02
2.944689041088890957e-02
1.109051153447252955e-02
9.547888034764553250e-03
1.112541356690170125e-01
2.008629698806395358e-02
7.219331850314186783e-02
5.813747195518670363e-02
7.456440955331561371e-02
1.679155477873568378e-02
3.245310705769893778e-02
3.274450350925157960e-02
3.111487770743047096e-02
9.252104242062531014e-02
8.962814173650929250e-02
4.992723129359314532e-02
5.221251612741229647e-02
7.132651751226395942e-02
5.965832466336439682e-02
3.607119406965514363e-02
1.136492559434067046e-01
7.191736746511871725e-02
1.166211817877076257e-01
5.036025637694891560e-02
7.877769001011464267e-02
9.858760568790310430e-02
1.175651088910752151e-01
4.157558878292406251e-02
6.725548389189628384e-02
1.092490884287006248e-01
9.117941384697579588e-02
1.439496147510195556e-01
1.116558346833652071e-01
1.353069983840587687e-01
1.099556681023337312e-01
9.861662530507656066e-02
1.313079682871536868e-01
1.538290284052347412e-01
1.798101526788114524e-01
1.820766657446873937e-01
1.304054668158028396e-01
1.977314759560616086e-01
1.438736561100425748e-01
1.827823199232159745e-01
2.051453418132233586e-01
1.902909905893505615e-01
1.087013695432862831e-01
1.925115882952448398e-01
2.160031881917687802e-01
1.260391345836793797e-01
2.110428848453683726e-01
2.119195650521619456e-01
1.527424679124293194e-01
1.645851628788962684e-01
1.880937093427283158e-01
8.972264968139692654e-02
1.723209315814857867e-01
1.976526279352684434e-01
1.901508371985913548e-01
1.547814606654124847e-01
1.424361607814545183e-01
9.936870739968549360e-02
2.096367990432645434e-01
1.326719686143970622e-01
1.569857367136592297e-01
1.628180330236190243e-01
1.898448094250358154e-01
1.905528454962270857e-01
2.125985141457346628e-01
2.924031556126653331e-01
2.830715295597389103e-01
3.186434323610695118e-01
3.641997442580062749e-01
3.961170473458974772e-01
4.497300492073589839e-01
4.525064462352517691e-01
5.763796255340741803e-01
6.468922450816676495e-01
7.733340883366208729e-01
8.046504909590607157e-01
8.126051821288126087e-01
9.073731889610691104e-01
9.208650800787385737e-01
9.838307335264746545e-01
9.644891250250665626e-01
1.066121226959895418e+00
1.001373558728102076e+00
1.001809140226762818e+00
8.879320282723395241e-01
8.678928686161405670e-01
8.931592930838229139e-01
8.175290278342013384e-01
7.653814642294668458e-01
7.536041588143163050e-01
6.424675615429662479e-01
5.301462568068170400e-01
5.242032604678908969e-01
4.332574998736160032e-01
3.927340585452767652e-01
3.300046094593172552e-01
3.640276667511658237e-01
2.559699236525383448e-01
2.685162022104474189e-01
2.115822807735047439e-01
2.144956121232650670e-01
1.827211284724176432e-01
1.462618675834362891e-01
1.331657452593998092e-01
1.035516211126568803e-01
1.237608374557718355e-01
8.908204070618726267e-02
8.273681968141255449e-02
1.248015095303093569e-01
1.457819911790517731e-01
1.137098246165177545e-01
1.002435749420095973e-01
8.616573679135650088e-02
1.175477913773928240e-01
1.819510622254144061e-01
1.057599135205864738e-01
2.024342456417063951e-01
1.544155579419133062e-01
1.533177603355191376e-01
1.289564758528996546e-01
1.828100505196462167e-01
1.709932029822690547e-01
2.177677436434302116e-01
1.447783592389249585e-01
1.801632174693811594e-01
2.113128254320039145e-01
2.104570321769573815e-01
2.299833808391221202e-01
1.907230005558064045e-01
2.051186396525485622e-01
2.579436374853592562e-01
2.604234686001658527e-01
2.570861666432924797e-01
2.421951472331977107e-01
2.229727632968345752e-01
2.535880841585302359e-01
2.620151405455016236e-01
2.583122505501688204e-01
2.389474665728078540e-01
2.885955815551540238e-01
2.504884402668065002e-01
2.210986124474758341e-01
2.561809650316539955e-01
2.425043854164757595e-01
2.773524071551646264e-01
2.373507569848058441e-01
2.497880138149082274e-01
2.321614018542262070e-01
2.362588845910719992e-01
2.361839204006089543e-01
2.956098051345272815e-01
2.747442025025171874e-01
2.891658234490691037e-01
2.453947890920223918e-01
2.169684109101457925e-01
1.748784114626685815e-01
1.714291141825053377e-01
2.318843671785662530e-01
2.255118098346095279e-01
1.953805772844356414e-01
1.725491602637504729e-01
1.991828809863853966e-01
2.101312541739726036e-01
1.837966317809725803e-01
1.550481059682674301e-01
1.626054764604396852e-01
9.461021553722651078e-02
1.902178804012024105e-01
1.289914295063371574e-01
1.522764202512774112e-01
1.720229253471988184e-01
1.724314882719945874e-01
1.896578758587003644e-01
1.317266916038692948e-01
1.085696704589958345e-01
6.589344310176979691e-02
1.135057778261889250e-01
1.127715311396342429e-01
1.209915804382855620e-01
9.536649512074944768e-02
8.126890440255576942e-02
6.831798294374363811e-02
9.356893631564791591e-02
4.197439772321567841e-02
7.803875057694735495e-02
1.840494896578963313e-02
6.175763182505292909e-02
1.269874569515547225e-01
5.795507760321823992e-02
4.535017714378803549e-02
9.425515568770500077e-03
2.960310193171247078e-02
1.699513976523876757e-02
2.175407387810501109e-02
-1.728512005330670731e-02
5.127770757588426959e-02
4.450021148239676622e-02
1.388785731912385926e-02
8.554642370350968097e-03
-5.664585874109415858e-02
-2.776558404926144849e-03
3.904624280737292730e-02
-3.862655361158471440e-02
5.107214432764670131e-03
3.091106941322902674e-02
-2.056112026239344248e-02
-1.917142913931489320e-02
1.499268856020331310e-02
-3.579957951032886054e-02
2.174021053974458523e-02
3.163018729428120068e-02
-2.834927822584459856e-02
-9.551652291974835687e-03
-5.594410040597719291e-02
-3.102576494058394141e-03
2.873773293102176857e-02
-2.130199013219069570e-02
-2.599549997590438338e-02
-4.162721752808890008e-02
-2.803825324918445341e-02
-2.378088276431643625e-02
2.720812443743325995e-02
-1.380501957844522051e-02
5.412419126418887422e-03
-1.654664117743075841e-02
7.662157041762519827e-03
7.612090636788550885e-03
-1.653353245207011754e-02
-4.482613401661648955e-02
1.090151729197094688e-02
7.233853159340761230e-03
-3.049534367127001988e-03
3.465833308373928584e-03
-2.673039503862770574e-02
1.221989910505712207e-03
8.532531857682329468e-02
5.447194197984413927e-02
2.985519268320927649e-02
7.088808918291265859e-02
3.457843039493541104e-02
6.660595858781775958e-02
6.905890979298595633e-02
6.455433115286601797e-02
8.581587774139264047e-02
1.018939169308603898e-01
7.647329584382732415e-02
5.581209025308848937e-02
1.127016511630636736e-01
1.495102026339822088e-01
6.867330905616947367e-02
1.058597605638443295e-01
1.225692843936160015e-01
1.420162251239606988e-01
1.343099049165848435e-01
7.417114986969414181e-02
1.508277616740095750e-01
1.113328948132469159e-01
1.804069509340689159e-01
1.424752925105054469e-01
1.641533895855797343e-01
2.070379970253215934e-02
9.601650414197770989e-02
1.483416820790543489e-01
7.678409729722845967e-02
1.196141718845738222e-01
5.542244537211343802e-02
9.916507523268132396e-02
1.279763485133791345e-01
7.858616132095033735e-02
6.757908336337854760e-02
9.727860591572849713e-02
1.014033454992612909e-01
1.509487238803305653e-01
1.168502959383772993e-01
7.764262132060936739e-02
1.186360375842451381e-01
1.959782267193731220e-01
1.550610930339034188e-01
1.276228460133053133e-01
1.918616951129003545e-01
2.003027453653072887e-01
2.826900473080727894e-01
2.980218211264809569e-01
3.546494300647400344e-01
4.497115102814420173e-01
5.204392616742289368e-01
5.461997813170449412e-01
5.666426416348868678e-01
6.653130715095346703e-01
7.478146658156162863e-01
7.506906354633035017e-01
8.698976480071869410e-01
9.079023324031009201e-01
8.736348538217622028e-01
9.091913342630907335e-01
9.459340012932161423e-01
9.311066538807016846e-01
9.414885592535138237e-01
8.625926290115542017e-01
8.749534984753514211e-01
8.429832646013056818e-01
8.179973043190372772e-01
6.667494673318883347e-01
6.639034084340156294e-01
5.758452131930610340e-01
5.400240954802891791e-01
4.579586396671054271e-01
4.336794282831263891e-01
3.825322142364155353e-01
2.616882997261509303e-01
2.658480155373320053e-01
2.167855565732098311e-01
1.429417063323240866e-01
1.304056230060175459e-01
1.501795264657506679e-01
1.192242459576594582e-01
8.497798415870802535e-02
1.006309774999725459e-01
6.022918601938692662e-02
3.888648880211256764e-02
5.340817123929397781e-02
6.353181880383389213e-02
9.530231548691410481e-02
1.205672594949118437e-01
1.211698126684757904e-01
7.826437544719640205e-02
7.588685693469629512e-02
5.588875507175172092e-02
8.720626054792766924e-02
1.150268928694440917e-01
6.328369680211476389e-02
4.463897757385966447e-02
1.128395233289831989e-01
8.731557942956016949e-02
1.327263144105977621e-01
1.150832374538576508e-01
1.210907228075586983e-01
1.505862134410312358e-01
1.757724418083996543e-01
1.264448608703243881e-01
2.072149088621334512e-01
1.666454742993309923e-01
1.209146312659103439e-01
1.386686177202718362e-01
1.803673709876137399e-01
1.445883606469684779e-01
2.000717792830425668e-01
1.355237218662709853e-01
2.054101090236779004e-01
1.574446230399423330e-01
1.650639029342466646e-01
2.031213687939291412e-01
2.041263840366373539e-01
1.885743487020360154e-01
1.692540659734595720e-01
2.606790794373838871e-01
2.255325764595344784e-01
1.999824812525350382e-01
2.423360512650999943e-01
2.069713526508544232e-01
2.048550499240049394e-01
2.660640499264086967e-01
2.382312373893549495e-01
2.169757978605790227e-01
1.653655462043538416e-01
2.252975405376753393e-01
1.899827332337259422e-01
1.863758736938925242e-01
2.255072097704907408e-01
1.649098370112054290e-01
2.264502860940356133e-01
1.718240230287144121e-01
1.711916572070165676e-01
1.992588922455525990e-01
2.036827896132411553e-01
1.348066003121882739e-01
1.725280681332077848e-01
1.108114452012998186e-01
1.332886036434646482e-01
1.748630466962268482e-01
1.360682902763590829e-01
1.101478952020978896e-01
1.009125715855356681e-01
1.453598194856879355e-01
1.123787640281270483e-01
1.013197388395835619e-01
1.545235041959512889e-01
1.369758253805422599e-02
4.264157965753335999e-02
7.669065739232808210e-02
9.825963858839051324e-02
9.293033048476251334e-02
7.340378195846328224e-02
6.996904424710755077e-02
-8.160092024825808810e-03
4.393422822536892369e-02
3.697667286366860401e-02
2.248477740719868195e-02
2.621937786415690086e-02
1.347110994792031363e-02
5.564668198530031695e-02
5.369269802656880669e-02
-3.920768007736184779e-03
1.895227185841852346e-02
3.335861851859026062e-02
-3.433947218815611158e-03
-2.264049608434400354e-02
-2.606412070902705200e-02
-1.225844699989181441e-03
-2.624518714523779023e-02
2.191925047114738623e-02
-8.426025890607286017e-03
-5.815138911666292709e-02
-5.019666510082566174e-02
-2.880957304077983935e-02
-8.589215397625288295e-02
-3.513647508375057626e-02
-1.485673899418572114e-02
-3.764134307624376896e-02
-6.244964373664223939e-02
-2.964540943723912789e-02
-7.604803513686035632e-02
-2.498204589541555554e-02
7.774339263481630513e-03
-1.085692607412492017e-01
-9.598766361979399475e-03
-1.223472601898444728e-02
1.242592932038218828e-02
1.097609054541762164e-02
-1.432702322794062594e-02
-3.521588637325365201e-02
2.172751769309200220e-03
7.831332994003736836e-03
-2.702957075395564721e-02
-6.616855147560184169e-03
-4.534078581451894685e-02
-4.071945737362166196e-02
1.023574873586494127e-03
-5.503110939483218944e-02
-2.304164685598075052e-02
3.134952698970649987e-02
-4.585089098405259467e-02
-3.913648739367708851e-02
-3.160188927124985003e-02
7.053750172926614992e-03
-1.436962167661552658e-02
-1.196716360681859825e-02
3.251000419561816956e-02
5.048262842971162900e-03
4.782451732927060772e-02
-1.178413277697606953e-02
6.079560185050444238e-02
4.856380348844913791e-02
3.968213320161052826e-02
3.726283202810933004e-02
3.200257256724671484e-02
2.863643864864424959e-02
7.083928937847996932e-02
8.919984670587560727e-02
8.567926303222726803e-02
1.607863495039904556e-02
7.720311481056732483e-02
8.873199625812247526e-02
1.152806006899284863e-01
1.203535502968722803e-01
9.778305270900156110e-02
7.482827941173622599e-02
1.192162764784916729e-01
1.198088378682164168e-01
1.150448173325681056e-01
4.701692464727707382e-02
1.159818296972353335e-01
6.284923633353584060e-02
1.073091770949784474e-01
1.161646396713159335e-01
5.220826431777988996e-02
1.230154799523149323e-01
1.386885400080690722e-01
1.318956604306033009e-01
7.928965430099806089e-02
1.022477259957639828e-01
3.165368694907481906e-02
1.013525447759772713e-01
1.158032009367067211e-01
7.106716697471426869e-02
1.210453247821671879e-01
8.426354793381332642e-02
1.087352629780223845e-01
9.569772385867676701e-02
1.092632025787514255e-01
1.468856819363943689e-01
1.192024747196385737e-01
1.280731987789076598e-01
2.348218032898329866e-01
2.368070969711709994e-01
2.818409839353155366e-01
2.615154434627068869e-01
4.334350188642951407e-01
4.019621337926343463e-01
4.831942150150436710e-01
5.589282959255367222e-01
6.306708768572014678e-01
6.720207102229724949e-01
6.986061366634355174e-01
7.873472100794004502e-01
8.612381906137700494e-01
9.187945285675740426e-01
9.070201308666124840e-01
9.288880081735781946e-01
9.883075699157192195e-01
9.535226564619498912e-01
9.647030173018823485e-01
8.934564698808198369e-01
8.697656389512536945e-01
8.110185949869129773e-01
7.611506455509244873e-01
7.321552444742870369e-01
6.545525648181699241e-01
5.786148552941764445e-01
5.407170280707283005e-01
4.928715690615318445e-01
4.121990657309280159e-01
3.061323081762099552e-01
2.513698537136518363e-01
2.173942340005825535e-01
1.690662127868203246e-01
1.995060832445617605e-01
1.376254925970018805e-01
1.377196710623924125e-01
1.380076971068955327e-02
8.498530290023578737e-02
1.395561564688422296e-01
9.090172788037079177e-02
5.964728272583863511e-02
6.209461039834464346e-02
7.936294356013423590e-02
1.506459377458661819e-02
7.305678465000317590e-02
5.535605637295984427e-02
1.180971784732298968e-01
5.387739649452097379e-02
1.244661999849588918e-01
4.483652093908006148e-02
1.181604634969808387e-01
6.109378658048356808e-02
1.108980167884586199e-01
9.721717116177999718e-02
7.985225114786120848e-02
7.043273240162947757e-02
1.347460941760041941e-01
1.403634754527596507e-01
1.640856456803717611e-01
1.854180863274998148e-01
1.260026549042962685e-01
1.372197345435838545e-01
1.476315283102054288e-01
1.688992032620377504e-01
1.366600034652167284e-01
2.176018059093204615e-01
2.037677885751759121e-01
1.219024742666193900e-01
1.704532295520421736e-01
1.771105738745647751e-01
2.534399100112590397e-01
2.033129244957486148e-01
2.207645077416917900e-01
2.465348291458142604e-01
2.634105343059667259e-01
1.921784872676975120e-01
2.252531796769342287e-01
2.294807705787276775e-01
2.569191392929166540e-01
1.957356969797920676e-01
2.011075726177521672e-01
2.270279482358685263e-01
1.554026459793066695e-01
2.052457298259605933e-01
2.465952663223565100e-01
1.700922876841650389e-01
2.143787486257170138e-01
1.957059642352715345e-01
2.025438398986824096e-01
2.030701453448606197e-01
1.658785295813435257e-01
1.366096598034435838e-01
1.831172547593710731e-01
1.920083154839316297e-01
1.242443456493494414e-01
1.692082681199668370e-01
1.097366940314533634e-01
1.315635444057324521e-01
1.254927132317928407e-01
1.136696541514883863e-01
1.445449724704850614e-01
1.714717914512484120e-01
6.036291453108055122e-02
1.611040218532767687e-01
1.219421617981750888e-01
1.212859134713885068e-01
1.232044482467312685e-01
9.024330769483165926e-02
6.117043073921024643e-02
1.323180561614549222e-01
1.559306939920824253e-01
5.023279615464378012e-02
4.246537856889407575e-02
1.135971747340923377e-01
8.526868991166107470e-02
7.727271954556136357e-02
3.304842722276693512e-02
8.196147278229612421e-02
6.544552726670160858e-02
5.085689386437682036e-02
2.694159740420454252e-02
1.179766053757479866e-02
3.605420366309468327e-02
6.191368051437309145e-02
1.113488450224916354e-02
1.195533833948270175e-02
-1.843928960340535106e-02
-1.690554821085325440e-02
8.996865756614666476e-04
-3.845450896724382506e-02
-6.548392895362623034e-02
5.756700779721473510e-02
-9.141923566986263211e-03
1.385863321846977220e-02
3.453152438704953919e-02
3.629987501252321391e-02
3.194099662531383471e-02
-3.970603562313061718e-02
2.785405407292635555e-02
-3.983284827747586576e-02
-2.809960384063787953e-03
-3.726354007318497669e-03
1.858109849307100492e-02
-2.812215267565305182e-02
8.368600972017005424e-03
9.761111260891124075e-03
-3.756509762748042741e-02
-1.366638123368405650e-02
-2.771328481303375613e-02
-1.836959108186859979e-02
9.606156324447546330e-03
3.810312145489202357e-02
-2.757239286550462048e-02
1.567648533019883050e-05
-6.617445551928066716e-02
-2.358650665873596175e-03
-4.061780662088949889e-02
-3.013230151335851217e-02
-3.972689475599865128e-02
1.441151028204661413e-02
2.244009065158987515e-02
4.903502371445259134e-02
6.070369790387576681e-02
1.731314902765724098e-02
-8.608791540681368787e-03
2.394161011429608160e-02
-2.383227547040621050e-02
2.029478514857076255e-02
4.034642557287011072e-02
-1.938959923053817924e-03
3.432200031070227475e-02
8.100039208303200233e-02
6.777849997409382543e-02
7.287301091332981651e-02
9.077439827091229874e-02
-7.369323049821612653e-03
7.086811857585920138e-02
7.822924542628634237e-02
5.969992524327037697e-02
1.014651297661461476e-01
5.013655434194716487e-02
7.080840579189791317e-02
1.110178688474801334e-01
1.318717760859934307e-01
8.185851438285018933e-02
1.307189550634313968e-01
1.308816629717822477e-01
1.343994981287713331e-01
1.764545998632903179e-01
1.483778631047086849e-01
1.083583156270182951e-01
1.629772141234732130e-01
1.064745195398863059e-01
1.302379158946444238e-01
1.694459431260345872e-01
1.712390910039026104e-01
1.157063822818470700e-01
1.046448361253596859e-01
1.337047325016930688e-01
4.729766794137107294e-02
1.681735887577554822e-01
1.591250058500685849e-01
8.167516587424814012e-02
6.857910129911322372e-02
7.659255312246376901e-02
1.313952005393268785e-01
1.314800793091528419e-01
1.650312799105415618e-01
1.113592579779750652e-01
1.488209546046953546e-01
1.116576247457066184e-01
9.514244097790958143e-02
1.600627575264224334e-01
1.881949829931806872e-01
1.911311292903176695e-01
3.154958275750450736e-01
3.627497807265478436e-01
3.537250874268153544e-01
4.269985661320171433e-01
4.908135391734024799e-01
5.661931040879367716e-01
6.303252358500531782e-01
6.664988693076387971e-01
7.443175194433586661e-01
7.690298001702787767e-01
8.163300948064324825e-01
8.990062075959667220e-01
8.936435674478102609e-01
9.509612781145251326e-01
1.004376487703273479e+00
9.731125874642626572e-01
9.595982475123465694e-01
1.053872258232759540e+00
8.547142200520221333e-01
8.357513166089475254e-01
8.464097544533955020e-01
7.549066634380107166e-01
7.185713527913276666e-01
6.397290783918834212e-01
6.041881304590476232e-01
5.200978067206916133e-01
5.075073279997265319e-01
4.348539309956706567e-01
3.494366768714914362e-01
3.279501148709756397e-01
2.561402329767540342e-01
2.269706519909614473e-01
2.115226178914051125e-01
1.034269600473058520e-01
1.333697776058747064e-01
1.409927755616706690e-01
1.179197291382639012e-01
1.217781536912474621e-01
1.330193194030476200e-01
8.605192122502361429e-02
9.375859929656103764e-02
7.052488325975589389e-02
1.131367906430520293e-01
1.154857679043348323e-01
1.131702646028248244e-01
9.326832354191132157e-02
7.496674357150473478e-02
1.109914414642577257e-01
1.318409001602675878e-01
1.005499743683886948e-01
1.550821437528496494e-01
1.520442386177855154e-01
1.273858827876006017e-01
1.610949804981744726e-01
1.481094783957269678e-01
1.445446698307640554e-01
2.001675792088877803e-01
1.268564705101588308e-01
1.802058048295502035e-01
2.039676560617310896e-01
1.806667400302168491e-01
2.242164919142051738e-01
2.363730792682500192e-01
1.984468435071671533e-01
2.363332574167828770e-01
2.205587959388573549e-01
2.570000441249467582e-01
2.306026477237064498e-01
2.171528526229574152e-01
2.244082119029057187e-01
2.544379050704513312e-01
2.206955410012627072e-01
2.417830286161268827e-01
2.256616081947554753e-01
2.587013386611781707e-01
2.425070381311166812e-01
2.437451926983386363e-01
3.040767769600697390e-01
2.919981591368308038e-01
2.834920151550761602e-01
1.864395136174737677e-01
2.159561538614142295e-01
2.277376766745405623e-01
2.597439670731119810e-01
2.177390293798086296e-01
2.167990733718006824e-01
2.321006340586115602e-01
1.940147689073690174e-01
2.284163340691286181e-01
2.011638772121311924e-01
2.323945732722769997e-01
1.504070411454786760e-01
1.729474193672046189e-01
2.054339786353799602e-01
2.481843792684605698e-01
2.319917264282946034e-01
2.319141549812834269e-01
2.184684676503622358e-01
2.036186488561308461e-01
1.582129566501274398e-01
2.343295691927481383e-01
1.994491022267291802e-01
1.554916499079322667e-01
1.796383333790850523e-01
1.955231588605431670e-01
1.374693752982646677e-01
1.359070487211834766e-01
1.581398646512609529e-01
1.051940577820002776e-01
1.628323418031017988e-01
1.104440176539765034e-01
1.159832160086626263e-01
9.619394444707606018e-02
1.447134933517340016e-01
9.241225902905846057e-02
4.793577417472942581e-02
3.529159629726677516e-02
7.113673652960482430e-02
5.441720095572205596e-02
6.345966693713170348e-02
3.848569223438495085e-02
7.892806511289424121e-02
7.970185388731594600e-02
6.738097993675834507e-02
1.053210570236364912e-01
4.609718558947791672e-02
9.885969118556349466e-02
2.319583426732976100e-02
5.644885820528167814e-02
6.690758424827718265e-02
3.918130799793002883e-02
-2.562814716068381737e-03
1.270260381763641325e-02
3.357961022323188022e-02
6.555018407162414851e-02
1.174649756269571382e-01
3.874553442663096481e-03
8.530115359050006313e-03
3.243414307891179238e-02
6.081348578885237277e-02
4.962100387738700713e-02
3.372009395204192406e-02
4.692630671286525390e-02
3.674071488272837721e-02
3.326711909440711878e-02
3.921975946195571661e-02
-2.285002251366414702e-02
-2.096458336991966279e-02
3.667928507688787698e-02
4.643524843938613006e-02
2.030274978172534953e-02
3.278205707843367261e-02
9.131081988870783095e-03
3.623196182708313812e-02
3.843449017357478126e-02
7.789429729312494222e-02
-2.425253046246532082e-02
2.547383581125128513e-02
2.394478694273539932e-03
5.352826053867693751e-02
5.773280543972206247e-02
5.778576427769327450e-02
8.286946091821265070e-02
4.655623149212244349e-02
9.144958012976410477e-02
1.011863158585044609e-01
6.790463727866377641e-02
5.266175710425205492e-02
9.291186757527787610e-02
1.131736715625311918e-01
7.414030004577497335e-02
9.083468871991977334e-02
1.153938453747864745e-01
8.540146334814205376e-02
6.797239488595416268e-02
1.178858212751583562e-01
8.918664712519076831e-02
1.694679036874406908e-01
1.234911919960190035e-01
1.515336606121596985e-01
1.920662056566861120e-01
1.788729337783695750e-01
1.916864181891777263e-01
1.317574865120923200e-01
1.819681749001527682e-01
1.694135485867536706e-01
1.630180997964553180e-01
1.875347264921665702e-01
2.058702072145014994e-01
1.905894078633944833e-01
1.854284101936652662e-01
1.381183541647084123e-01
2.029587481451690656e-01
1.467682840549811019e-01
2.062951942415456319e-01
1.722491751616858080e-01
1.808544842558460486e-01
1.527925058831540728e-01
1.138017759550723346e-01
1.749192468936228428e-01
1.750142588249829767e-01
1.459080464653060294e-01
1.989520585683022258e-01
1.881832960243798591e-01
1.730050845822562466e-01
1.642934567680306990e-01
1.612458177802419124e-01
2.125572111896691097e-01
2.060590020779349829e-01
1.905197629149042449e-01
2.029120566129818948e-01
2.771414647709092849e-01
2.392801836459271247e-01
2.395089944118458936e-01
3.481314701364127129e-01
3.392996800821445058e-01
4.285712596261766483e-01
4.446002949909672597e-01
5.103568555639429460e-01
5.874847342079138057e-01
6.312457370602428952e-01
7.095582394989086161e-01
7.729455332001707868e-01
8.543738741208511955e-01
9.095334003792481248e-01
9.752731136346463048e-01
1.022711300546636171e+00
1.062641516817880438e+00
1.007010195693040844e+00
1.030833169190965126e+00
1.037884757989214535e+00
1.008544022533209850e+00
1.006004322037218790e+00
9.478497281620117398e-01
8.591924180180714465e-01
8.330212077706029561e-01
7.647726357562116828e-01
6.893233772073178445e-01
5.913004258502179145e-01
5.822047025989990354e-01
5.264747900709720874e-01
4.353902917434018249e-01
3.392295728004167676e-01
3.358898983510066882e-01
2.937371432144677552e-01
2.521097655343904065e-01
1.971328795842121062e-01
2.106998681325634448e-01
1.974584029527856888e-01
1.728117723513531434e-01
1.599278497488757222e-01
2.011568743875353782e-01
1.849518332059691961e-01
1.755017524103766047e-01
1.971887966322841690e-01
1.154184049310506693e-01
1.756965479162506394e-01
1.873171649720359044e-01
1.142460504156285472e-01
1.864701177167616408e-01
1.618784520745229494e-01
1.376520606038026673e-01
2.100378068428624956e-01
1.849191054490616770e-01
1.877214009154147822e-01
2.247848331793496635e-01
1.765345753356468428e-01
2.155614327209562919e-01
2.405944853751214030e-01
2.017725664178936507e-01
2.434659408052281815e-01
1.948727008897126189e-01
2.119313359910491856e-01
2.930994114073555146e-01
2.853830450057107115e-01
2.581940136372503081e-01
2.888295371209235740e-01
2.469033703978338323e-01
2.733319095426582912e-01
3.129239828398493461e-01
2.180383394834902733e-01
2.643624536583670248e-01
2.806202127378828459e-01
3.304365469663954613e-01
3.019612596066392207e-01
3.058482877890681406e-01
2.901763282714052705e-01
3.859036678161525402e-01
2.810770227760502893e-01
3.119818379479792902e-01
2.397413968403619700e-01
3.411843533017211438e-01
2.348808589775629174e-01
2.716374948347608509e-01
2.815818058443732008e-01
3.056612626729413584e-01
3.200279863942155911e-01
2.772664377066103580e-01
2.877552674996014526e-01
3.113485073904065925e-01
3.059366807625288898e-01
2.885588374775190368e-01
2.579286869511339675e-01
2.971279213776985006e-01
2.458097562167730898e-01
2.690549343084692735e-01
2.725135164525961384e-01
2.261958894285859833e-01
2.263435559104340355e-01
2.327932023582228171e-01
2.163019933374168702e-01
2.810255628775247261e-01
2.636218693194033458e-01
2.653475173417377264e-01
2.005188100997538914e-01
1.804379269771693717e-01
2.078698301077766819e-01
2.187413296543685715e-01
2.056500218394236301e-01
2.283143080101623368e-01
1.523977349544575755e-01
2.141995622692723922e-01
1.716748768575824258e-01
1.806904633941195104e-01
1.528440077505461847e-01
1.656743519479352278e-01
1.711267049926348816e-01
1.676527585676388099e-01
1.571710278927018756e-01
1.053512831521733056e-01
1.002603924267296415e-01
1.362497026659716393e-01
7.360914421618515446e-02
1.203439189415533711e-01
1.060033767714088915e-01
7.417712106873047828e-02
8.423204422313911033e-02
1.081096636925473753e-01
1.992948926113965458e-01
1.297099700187301641e-01
1.371348824434529545e-01
1.388544420834418591e-01
4.927575697471153066e-02
1.159972807505794401e-01
2.368914182307588212e-02
7.536503862247480312e-02
6.578900651640856578e-02
3.600009188658256920e-02
9.441842020487371812e-02
7.169680856906116007e-02
6.603817291160944680e-02
7.712133067852977586e-02
1.415266473124631580e-02
8.433906050645205432e-02
8.306878855206989432e-02
1.048056501952565611e-01
5.990060824666562644e-02
7.964260765697631084e-02
1.048670531823531205e-03
5.030736311704284841e-02
7.536541745208248655e-02
4.673585849196153219e-02
5.709503899228905027e-02
9.466210339074827840e-02
8.939465879662010506e-02
1.005361486473571875e-01
7.588061627547200427e-02
3.609801616511600086e-02
5.938607997264089278e-02
6.740787937174481936e-02
1.143096583413148737e-01
9.661141236473184957e-02
6.754195552813047065e-02
1.047347025341609644e-01
8.122604064597499507e-02
9.098166635134050106e-02
1.324669075142355934e-01
1.118831435522963658e-01
6.230567570583277204e-02
4.690478443251509810e-02
1.074676333822903868e-01
9.465886615306187690e-02
1.185916035607430530e-01
1.441084085099683942e-01
1.212824259954376066e-01
8.883929583716365652e-02
1.384834217207132345e-01
2.258701663426411765e-01
1.428028274016907295e-01
1.814081743944579994e-01
2.340592459850352747e-01
1.819393681894897474e-01
1.311652620005019365e-01
1.758715251583405914e-01
1.236020612317071526e-01
2.016656514118783661e-01
1.930812999209263747e-01
1.651897397520254440e-01
1.396678971443495731e-01
1.481562764722058889e-01
1.861186397332443287e-01
1.889111785476339234e-01
2.340337020381892397e-01
1.618721889291556693e-01
2.050725963628222959e-01
1.858111846848857218e-01
1.949163115994933249e-01
2.324603640333364474e-01
1.987168279496097367e-01
1.877473467347148262e-01
2.019228472665443586e-01
1.583077066318687165e-01
1.911953418182839592e-01
1.844029582079297069e-01
1.919817547375178846e-01
1.499452981806455587e-01
1.864406955792157483e-01
1.343156272703997789e-01
1.875235582826067227e-01
2.010783407927259070e-01
2.383008200150603384e-01
1.738370534847999416e-01
2.397384793588153706e-01
2.597592969625922010e-01
1.971472625381372745e-01
2.902220545303832444e-01
2.485424911331547415e-01
3.065305964630251623e-01
3.368231193301418069e-01
3.626571204289802397e-01
4.419058350732888441e-01
5.246119665122943587e-01
5.845403885834001834e-01
6.442673209898814868e-01
7.005825182714348065e-01
7.196412363836527382e-01
7.764860895146785680e-01
9.324175687891026465e-01
8.596118213277278430e-01
9.550247973540608726e-01
1.013617924956850880e+00
1.021750405539341378e+00
1.074972703599976986e+00
1.052845238663813632e+00
1.029357441149072905e+00
9.997484258433571025e-01
1.012851348168731569e+00
9.764015410986586208e-01
9.034316926647113499e-01
7.722355356959268446e-01
7.274339063676339423e-01
7.185636007378027879e-01
6.150834648494364343e-01
5.543546482068472114e-01
5.379887761938396684e-01
4.120684639422521056e-01
3.450783612781109788e-01
2.624565946570847075e-01
3.021318063707458257e-01
2.480067702585292133e-01
2.540146757084262852e-01
1.603264862066807739e-01
1.943189338156922907e-01
2.350464499777542848e-01
2.231829364156203144e-01
1.111652620097560995e-01
1.579927749962916628e-01
1.478597465257977528e-01
1.332420965848282179e-01
1.266709172149744211e-01
1.608561942775050546e-01
1.594618828827258084e-01
1.595004786806691055e-01
1.929164785674130078e-01
1.784197791650075915e-01
1.942060472702013263e-01
1.821519778430136238e-01
2.184004674226412146e-01
1.870838921493262197e-01
2.253366191487121140e-01
2.089484919092572945e-01
1.184692556473193048e-01
1.693739330915284003e-01
2.186072966938976680e-01
2.710847448257047709e-01
2.388546497933363155e-01
2.324435408008156123e-01
2.186047072028330096e-01
2.648693948696964617e-01
2.993823806931235065e-01
2.288316602597272043e-01
2.599498707813843179e-01
2.256434062922478556e-01
2.704491945882601667e-01
2.522160085601158341e-01
2.883217262995522168e-01
2.626350723682823740e-01
3.057274741802096241e-01
2.821350528819113190e-01
2.976939784539058831e-01
3.214857478955426839e-01
2.915117897767033894e-01
2.451493926407499468e-01
2.661144446667723096e-01
2.876878715006029319e-01
2.498469787998260916e-01
3.013359939413145505e-01
3.254185617469219083e-01
2.981499911190989005e-01
2.793087232359488525e-01
3.048439566794283739e-01
2.170606306788629147e-01
3.466010286624269243e-01
2.925133753660857372e-01
2.499136015242111042e-01
2.266580763820535971e-01
2.663458606136857032e-01
2.113524672917732050e-01
2.869042545305041103e-01
2.995807525061720544e-01
2.439261408667155739e-01
2.390329115419912998e-01
2.931001516533903728e-01
1.792791163569386614e-01
2.548128491211943958e-01
2.051058058986225952e-01
1.834706509309265432e-01
2.309486434454374459e-01
2.233282025075329080e-01
2.050960329515350289e-01
1.689966464650934086e-01
1.390926381308627557e-01
1.484869278039921137e-01
2.547540767027153263e-01
2.144613644916343320e-01
1.889849270143945659e-01
1.337106336860922062e-01
1.590691425014260918e-01
1.501709731599106534e-01
1.148086436932009846e-01
2.040617529775008432e-01
2.033735096465374426e-01
9.871224928824351430e-02
1.191574455212650180e-01
7.353363659996489665e-02
3.014627071509778933e-02
1.487563185264019761e-01
1.155698682330511540e-01
9.870976231126674105e-02
7.877836875200595890e-02
1.203232987943892718e-01
6.681315377720478677e-02
1.022250228738253996e-01
1.018336667705745102e-01
8.420165230796029798e-02
5.746599189172636041e-02
1.020461204957461843e-01
1.174435157932853802e-01
3.945152700133956747e-02
7.898921247438749071e-02
-1.803585279927997359e-03
8.033484307234756150e-02
6.951840059539060590e-02
6.757194663685001101e-02
-4.367833961081911409e-02
3.447288614044614896e-02
4.225948821496093577e-02
6.979837120573303966e-02
6.959167013078833286e-02
9.537273283674552182e-02
1.621452778543940043e-03
-1.091749056822825803e-02
5.262408184404554490e-02
5.519507741317403876e-02
8.746170288553059557e-02
9.485992533923993941e-02
5.422625807075343030e-02
-7.097439747071321997e-03
-5.645156360948436203e-03
1.529650957142671130e-02
6.296967105236807305e-02
6.186992507030550370e-02
9.567608084894493881e-02
5.288781729528235775e-02
7.837902911648009230e-02
3.041793636826383568e-02
7.125843413507693125e-02
4.384014912017438620e-02
8.906037812019862443e-02
3.835069628858070456e-02
5.510214192638254044e-02
3.303880606776148088e-02
6.766266487339003821e-02
8.914870361095987572e-02
8.159505871886924000e-02
1.029147791376117810e-01
9.909400621911561291e-02
3.574975147597557468e-02
1.240758767615966623e-01
8.448652499958993201e-02
1.139378282992496161e-01
1.009921152968936975e-01
1.384208975862418756e-01
1.267262909235060131e-01
1.188691528504520201e-01
7.973898553983323201e-02
1.417749916815480016e-01
1.941688412873177338e-01
1.323949874426542384e-01
1.073942436158678293e-01
2.034491761778049190e-01
1.713302795438310377e-01
1.771416864431674398e-01
1.189051457391003402e-01
1.474484478331476445e-01
1.607641833147410715e-01
1.629941820128037455e-01
1.724732373071557190e-01
2.338928270678686250e-01
1.785436472129327545e-01
1.940441940636168927e-01
1.961244110208310298e-01
1.490220259082460363e-01
1.726547307965080602e-01
1.844580922588610894e-01
1.609211068281725387e-01
1.494080513871704208e-01
2.255048150420821129e-01
1.705064114541221532e-01
1.369864727920226954e-01
1.360680323379198364e-01
1.913828205173169761e-01
1.164549130587426012e-01
1.500951239210047972e-01
1.742021229794955273e-01
1.744050064568378189e-01
1.429648827160703295e-01
2.146059534787419787e-01
2.064069202369320233e-01
2.645413529044122747e-01
2.700077088618759169e-01
2.931360585929916884e-01
3.272612256063140435e-01
3.746390865681717974e-01
4.063655821971697835e-01
5.317887968486949557e-01
5.169185725116403063e-01
6.216665260653654324e-01
7.171393061248924061e-01
7.334407979320929361e-01
8.113524265185129147e-01
9.240159254610221806e-01
8.891639847860933754e-01
9.282514780971850010e-01
9.932578144780843665e-01
9.826220082992276339e-01
9.804093574811518774e-01
9.788202739949819486e-01
9.919703636474226371e-01
9.350086052742095921e-01
9.506752992193561180e-01
8.729848794185977034e-01
8.468330853378948087e-01
7.480968221527068973e-01
6.244663121742404233e-01
6.796971689591189136e-01
5.953988638264864353e-01
4.595430462192319210e-01
4.428730202387312631e-01
3.752766527662072527e-01
3.464209553021585508e-01
3.007243398707135640e-01
2.354905577771516934e-01
2.439691190913949592e-01
1.805009563704825237e-01
1.575808815193297241e-01
1.413456886389237166e-01
1.607388128194556509e-01
1.230310076976358913e-01
1.368211382351114114e-01
1.222878820358942187e-01
7.674760141601040531e-02
1.013147652609983906e-01
1.611261962826127936e-01
8.165545605012465569e-02
1.395853434176639041e-01
1.758040597082918821e-01
1.328354477906854292e-01
1.434457562475027481e-01
9.724783051414782886e-02
1.271950672103880353e-01
1.309647762250898684e-01
1.331271599790734284e-01
1.370218200553304233e-01
1.505269984701315400e-01
1.238763410943625326e-01
2.256462011273992208e-01
1.748661677789123958e-01
1.687000810269221884e-01
1.857820332485524695e-01
2.160239308610812370e-01
2.182809071939252887e-01
2.231978685723804701e-01
1.616921379844394602e-01
1.427958315466522632e-01
1.700743394357985827e-01
2.509328766167519542e-01
2.621940260354179708e-01
2.677414765952065845e-01
2.417333907874170129e-01
2.950392613225247262e-01
2.401997675878299598e-01
2.438820580860986409e-01
2.590086388724724409e-01
2.311630046738473165e-01
2.120526356289989256e-01
2.560000231671323845e-01
2.327037450499772064e-01
2.701031868547050796e-01
2.848618326817029534e-01
2.471871085998975925e-01
2.358620263755230595e-01
2.371160742811872779e-01
1.573458480959396277e-01
2.973364542283520873e-01
1.993884074428193542e-01
2.042401120443108620e-01
2.032415314862594247e-01
2.557490508838234922e-01
2.253855595940327805e-01
2.270202202729078578e-01
2.622663225873034243e-01
1.607057230423666327e-01
2.495091216537543843e-01
2.225503207011978735e-01
1.861527857386891527e-01
1.909578484405911603e-01
2.035478007837610293e-01
1.628790048600619877e-01
1.414754876748306467e-01
1.707938031178404537e-01
1.499943283789379467e-01
1.163021471037792021e-01
9.579584325716369864e-02
1.143356971999444083e-01
1.229901701576894546e-01
1.290586232481479856e-01
7.919871372984667313e-02
1.615226585669418125e-01
1.441505748338005322e-01
9.672361358824162203e-02
1.389137740410033295e-01
8.716599476009034841e-02
8.461323738580639464e-02
1.048066368424511730e-01
3.217553499806210388e-02
-2.262249237140839114e-03
7.780224792456581773e-02
8.158313832317730385e-02
5.322538423832828824e-02
1.737891824622427722e-02
6.250213073450018586e-02
5.956348896890409361e-02
6.455139547196493688e-02
-2.447976342516250403e-02
-1.353197755520034809e-02
1.770474685833746745e-02
-4.218639468568993744e-02
3.860110003324266487e-02
2.296981152205463533e-03
3.394196202370690363e-02
3.591799464521757551e-02
2.926445331355431029e-02
3.815731956535674957e-02
1.662905950221001128e-02
3.530308605615309347e-02
2.050678868535268234e-03
-3.144609136341999095e-02
-1.168036275687928290e-02
1.580680248153850873e-02
1.196064662361296174e-02
7.520891812656277375e-03
3.670281700987117895e-02
-4.280611603285562616e-02
-2.189808653470497191e-02
-3.077290362684511130e-02
6.378941714956523623e-02
3.814937392645732783e-03
-4.559009573661006176e-02
-8.427913562605783560e-03
-4.724303358275128845e-02
-3.284663682678444496e-02
1.307517588024410468e-02
-3.208457400531387893e-02
-1.098613305034397761e-02
-4.263829328559783777e-02
-3.657143854999682364e-02
-1.992643668641190177e-02
1.758842201164570462e-02
7.240144465611404040e-03
-7.789252600416460282e-02
-3.782609422881327149e-02
-1.680191482538121589e-02
-5.067477511967739129e-02
-1.211804260177448342e-02
