1.032468265583399214e+00
9.848221113425628115e-01
1.010032290403629185e+00
9.165873456987971846e-01
9.518892319229197430e-01
8.675774419422972450e-01
8.038820218632685144e-01
7.514511221673257912e-01
6.498512142948181802e-01
6.258126081248930328e-01
5.816675998116973556e-01
4.831995006839426843e-01
4.452259414526389958e-01
3.294139755064122710e-01
3.326479425284924463e-01
2.693370180085936094e-01
2.222860337922261398e-01
1.476409202348660243e-01
1.654232007216373534e-01
9.367978668802751097e-02
8.057662122782791037e-02
7.628152940512719637e-02
6.355792248964375890e-02
1.281728694372367139e-01
9.306767180167280218e-02
9.591987341595215044e-02
4.253550412296416144e-02
8.666606721524483525e-02
7.102934853094486356e-02
7.276693679477641563e-02
1.144850377553091325e-01
1.181356318527548022e-01
6.578934363220720338e-02
1.448409111252691728e-01
1.213778486696620168e-01
5.797176304167549199e-02
1.056523417757429806e-01
8.214645696228181637e-02
1.925998727209977390e-01
1.411691105326213780e-01
1.052195396054824150e-01
1.708162667221989894e-01
1.362949564859219365e-01
1.468258590106512329e-01
1.311161092143000029e-01
1.844354141145116699e-01
1.988624126623285970e-01
1.414189414141030221e-01
1.610724098787968683e-01
1.862402552104148734e-01
1.945353324450379839e-01
1.529805544648008830e-01
1.778010475687570036e-01
1.969855051251142020e-01
1.891975898118836985e-01
1.798247161303838104e-01
2.454191917237683596e-01
2.074505949105676927e-01
2.281095603483618006e-01
1.971812802553015720e-01
2.178139959854439589e-01
1.791768786075566555e-01
2.108430140015359611e-01
1.692669284581830302e-01
2.154585122420971666e-01
2.199432064870929238e-01
2.243632490255536294e-01
1.966909365236150509e-01
1.983542624741162219e-01
2.561412884811969937e-01
1.873395017784753036e-01
2.500158871179866127e-01
2.152081902671747482e-01
2.178301978743305556e-01
2.320940287070715757e-01
2.054147054459969368e-01
1.895579941018359083e-01
1.805611351492955596e-01
1.773535056785159048e-01
1.636539842334575057e-01
1.193528899992661041e-01
1.683967749067307174e-01
1.752792918235484554e-01
1.903888033562800564e-01
1.641293869224388080e-01
1.430428077996829250e-01
1.665509023319347581e-01
1.039798885636462056e-01
3.315180595439807393e-02
1.309005590342549041e-01
8.491792264127258349e-02
6.164198518834860391e-02
1.108915558873029006e-01
9.500185797326593518e-02
1.402234764710240389e-02
9.852652786843785204e-02
1.039572472157079819e-01
6.940690943400899815e-02
4.145733606251936210e-02
8.403934900428869370e-02
8.820458943574423227e-03
2.673208801957063091e-02
3.513977011101949988e-02
4.543754728439469009e-02
-1.358905924583336117e-02
4.850795249811135079e-05
2.192245462211327156e-03
3.445339421738800867e-02
1.279980498360998309e-03
-9.573925983143181939e-03
-5.115704415257046889e-02
-4.017017346416783957e-02
3.175423741337514427e-02
2.312541928628907700e-02
-5.312008484323792190e-02
-3.734958287783807229e-03
-3.370734658970134245e-02
-4.987672731898581957e-02
-5.616160353873704547e-02
-2.149571064391990471e-02
-1.825451276158866071e-02
-7.404593685583979457e-04
-2.345323418702700488e-02
-3.775216128858955439e-02
7.109300605823015706e-03
3.402946905249287085e-02
-2.884434035744061833e-02
-2.200147671803967531e-02
-6.298296513139528541e-02
-4.971836570148416290e-02
-3.319553051321907922e-02
1.508237714036795435e-02
-3.886630274712406241e-02
-1.159498685345345947e-01
-2.526476469230329661e-02
-4.240396214261842045e-02
-9.682563394140952795e-02
-1.671991810173568960e-02
-5.237520811733267084e-02
-5.285416883276490563e-02
-5.221474924579638799e-02
5.113632209154898162e-02
-4.399548309522400419e-02
-7.499410065785633295e-02
-6.459045835825807935e-02
-7.930491500491305967e-03
8.925289502730179847e-03
-3.004953427084278844e-02
-5.455986610674022630e-02
-1.442601197168752458e-02
6.088861282053537743e-02
-2.912254091408036927e-02
-2.918663405592244672e-02
-1.637125147270106912e-02
-1.312976208587707944e-02
-1.724078831952665508e-02
-4.671958196628890614e-02
-1.476492318115971147e-02
-2.114442064953673400e-02
-4.488675454671561815e-04
1.535470458972779811e-02
-6.107151491834564294e-03
7.254153393561731111e-03
4.114473489269106221e-02
8.399260752307162459e-02
7.044312770592006667e-02
3.611225884478366094e-02
-3.812204627583373751e-03
4.539272322049510422e-02
3.941233065233783195e-02
8.809423268330410228e-02
2.278229649630601761e-02
3.614563411505429535e-02
2.980533514687591645e-03
1.017548911069877937e-01
7.806985559976276079e-02
1.026337877352034578e-01
7.713426797441164107e-02
6.199599133235621923e-02
1.025589207323772123e-01
6.759405586792768816e-02
1.206355161753863980e-01
1.745641687862573010e-01
6.068537410430895063e-02
1.223033045414791409e-01
7.399001266033282398e-02
6.969722112348430976e-02
7.175205151877872556e-02
1.189063836410076958e-01
9.440977017342722100e-02
5.596072139096032461e-02
1.501081133148561286e-01
1.144346592802052698e-01
3.966440560428201312e-02
3.870337292441137361e-02
1.063939179444353123e-01
1.091970403130478467e-01
1.277611417569409769e-01
4.247222625811032659e-02
1.363962791775398253e-01
1.211811662419481628e-01
1.310058044785529785e-01
1.110561838615723440e-01
1.614928715450597574e-01
1.919298529230901162e-01
2.605414260609454358e-01
2.826943664898595165e-01
3.303465097527518712e-01
3.554774811327364725e-01
4.162017454995744492e-01
4.890133476399605716e-01
5.568804599893321106e-01
5.625560238750179076e-01
6.961044986173119398e-01
7.740211641301008028e-01
7.929194009902021945e-01
8.442586660517994446e-01
9.495713704964459101e-01
9.563916774072753757e-01
9.256153450231596747e-01
9.718029635352969375e-01
9.820531921823989485e-01
9.549021109731715695e-01
8.927765976704591377e-01
8.714828174012088091e-01
8.435539212631162354e-01
8.326024166462541176e-01
7.350421573283261178e-01
6.901531454027264312e-01
6.288938961870886857e-01
5.337560427599242763e-01
4.755059089822114560e-01
4.305267289228429939e-01
3.678401270217828145e-01
3.133742616045256946e-01
2.713631742403453395e-01
1.898361151918091239e-01
1.459363636054057389e-01
1.312093082869410510e-01
1.476322193384524972e-01
4.839587791233396219e-02
1.369912446783108084e-01
1.292707424168793029e-01
4.678764529414385087e-02
6.546231851621414632e-02
3.958410476962653801e-02
9.007121798914771715e-02
8.948309572096263542e-02
4.715353089285071603e-02
5.109437641684544396e-02
5.906017002033762953e-02
6.481222821034450521e-02
8.839501983168560062e-02
4.999868687477065227e-02
1.019785018773605167e-01
1.064469494100128838e-01
8.358376030011076263e-02
1.403914169362323050e-01
1.619209565514043436e-01
6.747368802149336653e-02
1.291844956534468070e-01
1.408533719843646781e-01
1.121647604259067565e-01
1.257632486647978776e-01
1.217502630217166537e-01
1.675478669551675182e-01
9.228544723690576546e-02
1.636794609059460948e-01
1.946744574478679046e-01
1.278258775313661499e-01
1.399115369324652469e-01
1.769119680165610609e-01
1.773951098181988373e-01
2.028669896835355313e-01
2.105702062526881024e-01
1.878800850391462718e-01
1.586507323553857096e-01
2.213120927469345578e-01
1.922863107191307153e-01
1.980174022551113300e-01
2.345724493249437825e-01
2.166543109758600205e-01
1.680164066134917089e-01
2.390129574053631023e-01
1.493451461811804992e-01
1.691335668434438833e-01
1.844018683972152017e-01
1.780053908984315925e-01
2.612892806426344583e-01
2.304269833933857425e-01
1.893870810722607378e-01
1.397222279729424255e-01
1.809468989925496762e-01
2.108429446528449491e-01
1.789207436252249206e-01
1.565527539521635314e-01
1.337027656096806127e-01
1.304136981953654684e-01
1.725168782302700377e-01
1.529570195400551946e-01
1.794160420399674161e-01
1.864708079392579654e-01
1.152043362472169874e-01
1.766520699473712597e-01
1.562920257330882023e-01
1.182766235239890162e-01
1.142648917887920390e-01
1.616190310444572398e-01
1.251031671691193170e-01
8.490199231306694294e-02
1.175742823201674087e-01
9.585058585082592564e-02
6.120978496508897027e-02
9.704364226227893409e-02
8.438944441943939390e-02
7.995933728558210496e-02
5.845822939286489384e-02
1.024612896945326646e-01
7.841086508579991898e-02
5.217841796651771780e-02
2.294343127018480533e-02
2.620979908347870896e-02
5.523854226805446910e-02
3.972770918597832296e-02
3.181095361159486795e-02
6.675246976430285195e-02
5.426826524858417711e-02
-1.302753371537684890e-02
-1.100420252866294440e-02
-4.664200956130189202e-03
2.840407182031028099e-02
-4.013832264197457478e-02
-2.583510014839764460e-02
-3.041463201486580697e-02
-3.645653598281356489e-02
-5.390213411846180025e-03
1.177042635393103776e-02
2.099173257096272061e-02
7.635516317019627741e-03
1.546378528746363001e-02
-3.400230261422859668e-03
7.665858393555297079e-05
-3.173901961124907245e-02
1.748860312958457064e-02
-4.741422101568852632e-03
-2.830610672179676920e-02
9.427419965861667805e-03
-7.296670502660236590e-02
-1.312357317939404772e-02
5.083956385121837784e-03
-6.969459868866120789e-02
8.986898533131691680e-03
-5.032214675605356513e-03
9.702872181145134889e-03
-8.092827973278265974e-02
-2.229943694265040105e-02
-4.815512889012170394e-02
-2.968438855489528502e-02
-5.447701025724682733e-02
-3.332595278180791598e-03
-3.890736146916320970e-02
-2.344823257187637205e-02
-1.407453006634836606e-02
2.093099424190172919e-02
-5.426034341206921463e-02
-8.036169575329998871e-02
-2.160292682507834738e-02
-3.334063918525042441e-02
-5.687424442859419227e-03
-4.087029431532684942e-02
-1.126811422829089582e-03
2.402713536045709281e-02
8.469986335754096929e-03
-4.324500342792185481e-02
3.175844410836382858e-02
2.200620192702895661e-03
-3.040358462277156781e-02
-3.471384906813383686e-02
-1.112451179763780662e-04
5.918832422487900480e-02
4.454757556324979301e-03
6.559953278775171315e-02
2.833663736507051681e-02
4.200938945537414926e-02
8.104283468985200301e-02
5.838490429548799654e-02
6.220002916189946301e-02
7.073909611158861466e-02
1.082559123399084722e-01
1.491771667999922113e-02
8.846314390844675635e-02
1.179824980199313950e-01
1.599588830491985580e-01
1.123067818974242682e-01
1.810979702407263803e-01
1.098760827555624042e-01
7.513938876942619083e-02
6.843945719171302955e-02
1.266149482149293015e-01
1.774966963014001364e-01
1.210398135317508617e-01
1.207298608273485313e-01
1.352366461463300751e-01
1.113700401971013249e-01
1.468468828872293297e-01
1.502445850976159569e-01
1.225609327145672223e-01
1.554683713155859959e-01
1.031128665492197644e-01
6.755076138769512684e-02
8.754749216781521071e-02
4.552012058435335462e-02
1.608144894218082321e-01
1.104762169628846213e-01
9.524822765347039366e-02
1.144462402236438858e-01
9.743877971366406154e-02
1.313926044055645503e-01
1.039745892712650860e-01
1.487964627255340122e-01
9.495797978820751106e-02
1.642459072689613220e-01
1.419009487965980365e-01
1.926793521244821450e-01
1.848235546569829690e-01
2.622906329138671722e-01
2.452403950289972490e-01
3.132065703326945005e-01
3.274671781164815165e-01
4.214418187656728820e-01
5.372557157239020720e-01
5.228901542123580715e-01
6.301496214699596754e-01
7.035317767015880630e-01
7.942036058147226019e-01
8.559097549187998366e-01
8.940272890479764589e-01
9.134304752016464413e-01
9.299801970242526084e-01
9.561818124676307873e-01
9.955365074090443134e-01
1.007790055435620280e+00
1.008301543732270655e+00
9.457161181239750469e-01
9.750034432748949653e-01
9.488582752397506370e-01
8.743668333318505015e-01
7.596521764173327362e-01
7.571354931391914844e-01
6.308359315229233877e-01
5.954373900693107347e-01
5.663573701007243999e-01
4.471167072613494442e-01
4.528126488702525210e-01
3.614542544333560481e-01
3.119098823184945357e-01
2.656697348964480176e-01
1.979013907681997919e-01
1.876942768528506722e-01
1.798123828355134568e-01
1.258760766860199110e-01
1.483423788272749400e-01
1.273982145769400609e-01
9.644467922855491648e-02
1.041757079129181085e-01
1.111798457613074470e-01
1.053265235392967791e-01
1.265167667340764690e-01
7.604095654439393948e-02
1.150045849349601995e-01
8.210835248759069949e-02
9.106799487970326790e-02
8.525493666650657554e-02
8.989797645136018978e-02
1.303497273465986928e-01
1.662311426179001184e-01
8.688136874783555785e-02
1.235824868012424388e-01
1.218416806908198813e-01
1.537143368833040480e-01
1.480315348102940465e-01
1.566672513606078843e-01
1.733773265495480165e-01
1.981194921767406858e-01
1.856319199015348531e-01
1.940448943218917588e-01
1.816170318066897549e-01
1.522971157966156730e-01
1.551190712923690707e-01
2.214461512959223222e-01
2.074414879314032678e-01
2.688594513885436132e-01
2.239129895707040185e-01
2.764392078848040279e-01
2.333933826216924023e-01
2.057783848409971417e-01
2.049884135540470387e-01
2.094479655807494622e-01
2.609417114738449839e-01
2.086857635066843852e-01
3.256825107463781066e-01
2.493905710371112916e-01
2.473294554215424712e-01
2.487257700089767765e-01
2.605765063861148478e-01
2.678749341467590028e-01
2.566592912981068286e-01
3.036620888434226062e-01
2.533690455002915454e-01
2.681449999106618187e-01
2.053107119178440299e-01
2.646639794394716194e-01
2.838631828782771649e-01
2.625275345529577975e-01
2.741306909752007637e-01
2.599231305365845013e-01
1.796707726094088353e-01
2.424583991478033718e-01
2.279612381428834933e-01
2.099190021684496921e-01
2.204101428066690405e-01
2.019163878222702269e-01
2.066458057756965228e-01
1.639301264175566930e-01
2.655267541335942227e-01
2.066486032770188663e-01
1.936510229830369634e-01
1.434678564222579833e-01
1.493590186674488007e-01
1.387905464981148418e-01
1.778447527562128927e-01
1.616577758160479550e-01
1.533752232261355875e-01
1.227353960516512077e-01
5.709099987213346605e-02
1.207673135851268509e-01
1.017524456544415673e-01
1.466841361819574141e-01
5.489625813736922350e-02
1.099514571566998500e-01
1.348469137759477909e-01
7.152849995422261298e-02
4.509315408608343539e-02
1.419629095223261805e-01
5.710756452350401746e-02
1.189454557041318833e-01
8.304812389491400548e-02
3.053401369863171372e-02
2.162675341197459189e-02
9.450054558810042082e-02
9.836401788818965874e-02
1.047726475649501943e-02
5.325998360241687712e-02
7.332781850794090062e-02
1.070128191970092096e-01
3.668300403322868886e-02
3.933243398398519886e-02
4.127748460787902807e-02
7.314533548670740237e-02
1.962350454459156623e-02
2.311314713699780601e-02
2.974900575611714310e-02
1.994163365195909463e-02
-2.124571527711811153e-02
3.793676068279887292e-02
6.642625434127752068e-03
1.623862921024269920e-02
4.133653530445421942e-02
-2.521143332488447880e-02
4.630135165994006541e-02
-3.393674146027517852e-02
2.074460203054847435e-02
4.414757050863001020e-02
-5.346673186923426094e-03
7.996869842468293244e-02
-2.649767941365068977e-02
3.691125025312229357e-02
9.097557700920953783e-02
3.144100272921255407e-02
4.053442741286436557e-02
3.583414098022043304e-02
4.375802032787695639e-02
3.958847054201074245e-02
8.199908951787882039e-02
3.025435368242130815e-02
-7.407017947151827569e-03
2.195925873631133715e-02
3.634784182714573264e-02
4.718677188762383790e-02
6.239649993319378030e-02
3.603246837964545896e-02
2.517565719236213376e-02
5.673344746571090669e-02
6.281279086972935133e-02
5.966714872373447137e-02
1.018794056886967031e-01
9.474799150681273430e-02
9.265603874516462057e-02
6.063141647362182973e-02
9.924199451772064418e-02
6.737515771996610559e-02
1.022148721459148063e-01
1.566247664253364313e-01
5.665586805451486296e-02
6.888479604319353022e-02
1.141593505750348181e-01
1.034417765048146060e-01
1.353917822878845656e-01
6.757375363171116978e-02
1.057592572261978892e-01
1.656697368976851881e-01
2.056945002929473632e-01
1.972118553137758301e-01
1.542256862843469634e-01
1.488639572883279638e-01
1.358796000489048972e-01
1.131964249033644843e-01
2.042663546200115254e-01
1.673882739547227771e-01
1.947181341063152771e-01
1.475085240549710297e-01
1.715016039166983586e-01
1.627505863478783676e-01
1.509392558755696112e-01
1.532103702991849392e-01
2.062222029298967363e-01
2.515265250105210293e-01
1.254193769973679373e-01
1.828998949695174181e-01
2.150820267661094909e-01
1.864751319251923001e-01
1.351546131524337391e-01
1.896470832348179647e-01
1.345157736219623201e-01
1.416508899164550250e-01
1.321901123914842602e-01
1.813504659524725893e-01
1.333204287603416693e-01
1.163096493693446115e-01
1.377523618169644026e-01
1.995075955517373878e-01
2.407229210306283673e-01
2.231858045640547905e-01
2.410288101906674363e-01
2.693118190131832956e-01
2.456825948552017747e-01
3.534939700826201237e-01
3.406258661951094835e-01
3.897671828955862616e-01
4.369894996541657806e-01
5.358645695283819066e-01
6.102858091441609734e-01
5.931285390613383335e-01
7.074904936858956717e-01
7.736561031350012163e-01
8.191556149200964754e-01
8.923323398561716635e-01
9.072468848607536662e-01
1.016331448376079694e+00
1.021299566852693186e+00
1.044325460140418604e+00
1.069489055596538396e+00
1.071211592192745865e+00
1.016525395601431736e+00
1.030539958800729128e+00
1.027420981948991896e+00
9.503584510793525730e-01
8.777140715651534641e-01
8.354790556849170935e-01
7.778490662427878233e-01
6.736854021251045266e-01
6.367030600749139513e-01
5.455900257210180015e-01
4.689413904257845878e-01
4.104357792132255489e-01
3.632772546501191191e-01
3.427717482340621458e-01
3.080760295667365756e-01
2.619968929642675914e-01
1.882647928190706588e-01
1.637763595724076870e-01
1.944248682682770957e-01
1.138318429820319583e-01
1.455271019668086530e-01
1.030546139373618719e-01
1.394102815145069063e-01
1.374665910096621313e-01
1.739204482528090845e-01
1.521536013839386303e-01
1.358179615803787599e-01
1.363826405666014874e-01
1.618990662158664717e-01
1.365900815655595457e-01
1.387489241589238420e-01
1.591296717400105531e-01
1.764719291437163440e-01
1.757800474113211664e-01
2.519887155168124560e-01
2.275804420034315823e-01
1.784265413181020388e-01
2.643656911691540934e-01
2.314385392105769435e-01
2.272250221047102114e-01
1.227711321650001713e-01
2.203461820609124711e-01
2.383894963539817391e-01
2.315841288070631943e-01
2.296218963676014135e-01
2.979899540070941599e-01
2.615808005111836532e-01
2.023912628601214625e-01
2.465268239203885492e-01
2.705300862380290994e-01
2.401651247679326695e-01
2.695464051723828747e-01
2.133782258888436423e-01
2.831426960526898795e-01
3.051479291855995202e-01
2.355513635865392752e-01
2.685392943811610866e-01
3.145004095465787630e-01
3.163782679676079290e-01
2.945900274797318419e-01
2.856094904847550353e-01
2.895578743137878219e-01
2.921523445165766231e-01
2.931703822142349702e-01
2.809146010980422270e-01
2.956202174718575715e-01
2.899487753229151865e-01
3.158550096139661756e-01
2.443683108523755365e-01
2.852246770132909615e-01
2.810890115886519047e-01
2.620740540758116355e-01
2.647790354878593044e-01
2.669575798067234107e-01
3.342183339588990498e-01
2.662499330332239178e-01
2.821140647874879614e-01
2.451495319246840832e-01
2.300697622085064731e-01
2.461015238983660369e-01
2.404794334737650752e-01
2.294705700564689255e-01
2.205252261247391543e-01
1.961860695645273323e-01
2.381224816766875363e-01
1.734790993434990602e-01
2.378911140517148692e-01
2.225923370625926268e-01
1.755865001647874679e-01
1.892182531720139060e-01
1.684452596316413642e-01
1.627107333324389615e-01
1.717724823063513928e-01
1.645897696272417277e-01
2.104607230942544538e-01
2.058025470310810012e-01
1.526040185539380700e-01
1.296368512317789823e-01
1.161433063462960491e-01
1.550253369055155650e-01
1.632056298204073164e-01
1.076106477516280691e-01
1.159987875448556666e-01
1.289533154864343500e-01
1.233910636747688472e-01
1.263517247508847419e-01
1.250799381246374131e-01
5.517551981703702757e-02
1.191379543359232240e-01
8.158770342333519776e-02
7.174042237411477896e-02
6.683921229348854798e-02
7.088691935730860594e-02
3.616217468677143665e-02
6.887658139098709609e-02
7.567841235033349878e-02
6.204041572988034520e-02
1.597508073860024191e-01
3.964157053931033348e-02
1.033427228889581828e-01
6.769737408240464327e-02
8.734444470899621615e-02
6.396944339199586715e-04
7.684813985510985379e-02
3.597787234200974793e-02
4.254489801588295234e-02
3.517316987087815844e-02
1.111598867291045956e-01
8.807316592220720830e-02
7.461523251519713851e-02
3.794366830249669420e-02
5.569103600752085825e-02
1.532732628233406114e-02
3.094123128871835438e-02
9.562253704019731126e-03
1.042246651342620123e-01
3.350174764899636892e-02
5.624945110929339964e-02
5.236876442196265746e-02
4.436421620139613387e-02
7.260634816881618436e-02
1.034883517096754219e-01
6.009490489861225859e-02
1.123234391199777749e-01
7.334625232034522324e-02
9.192931781242094647e-02
8.160596107399853416e-02
6.621489261832372297e-02
6.258296455100492706e-02
7.374913392034296300e-02
1.032726302358007997e-01
1.117659849984679044e-01
5.582001904017681870e-02
1.159261027822761081e-01
1.263969182374539146e-01
1.006414557655223169e-01
1.201985340876558506e-01
9.470927987377900092e-02
1.181447890246987431e-01
1.252202647061970153e-01
1.110988162352526398e-01
1.240481387926845591e-01
1.767077198540002725e-01
8.168495464489038127e-02
1.261844940323283981e-01
1.372039325994932335e-01
1.801772854891559861e-01
1.236677384701172500e-01
2.008103825041107071e-01
2.070429710085550656e-01
2.461765922948981888e-01
1.827451963835088899e-01
1.521322556046846852e-01
2.020651287120011630e-01
2.306831886414617006e-01
1.945258028782476667e-01
2.106782742942195918e-01
2.216199977877327254e-01
2.327504182372172326e-01
1.883152544556191132e-01
1.902566649712307267e-01
2.598083630204457983e-01
1.826110787153656378e-01
1.817899808177272092e-01
1.558170166645556354e-01
1.962836251399085463e-01
2.177503232661327226e-01
2.205243857516653305e-01
1.878416978749284649e-01
1.904357907590004950e-01
1.485949668362354370e-01
1.710523365269788210e-01
1.813138755612100084e-01
1.957342078011240494e-01
1.714032469237205536e-01
1.799146697708636222e-01
2.159199630869372555e-01
2.141037112927620667e-01
2.471748631770654125e-01
2.133625575110121297e-01
2.340943556287303218e-01
3.009750598003799738e-01
2.650971784173521417e-01
3.045932283187534617e-01
3.316339793636499111e-01
3.467398312617115397e-01
4.302841321253085827e-01
5.134756140789310530e-01
5.653572791462341263e-01
6.327585481604053319e-01
7.201397641650624237e-01
8.087483363088596722e-01
8.235667378367774738e-01
8.548560482536122773e-01
9.515837135557324578e-01
9.334072786444495007e-01
1.010947694069134428e+00
1.067231622388397083e+00
1.102232802081855922e+00
1.049129277253115555e+00
1.037191636248511850e+00
1.036578166977345949e+00
9.984700053301307499e-01
9.971865816082128298e-01
9.064114467963948485e-01
8.875045009820905495e-01
7.711690082597165707e-01
7.084729382959668031e-01
6.755177660297700948e-01
5.652703346132285089e-01
5.460628896825530099e-01
4.574140445499203511e-01
4.299628328065526750e-01
4.143918541403784350e-01
2.925407646976651010e-01
3.224558908840849947e-01
2.392215882286478634e-01
2.256636114774639157e-01
1.881643890365630734e-01
1.878231348520240096e-01
1.936462938745627804e-01
1.302509623247868342e-01
1.401937563784109164e-01
1.062642761236992639e-01
1.631672455659066157e-01
1.273315689361772529e-01
1.011994043632140072e-01
1.459966420528523989e-01
1.758107640693883922e-01
1.639391332495749587e-01
2.284992883740381564e-01
1.691774089714342399e-01
1.769721498272862348e-01
1.692771466194846197e-01
2.139489649684295780e-01
1.791205505290496547e-01
2.145651246230268760e-01
2.271744174510789416e-01
2.476839833195825236e-01
1.766889412651676261e-01
1.725749272320269145e-01
2.083018375819181700e-01
2.096833774992251931e-01
2.398449669593323286e-01
2.364922333399271659e-01
2.616193636441450643e-01
2.864522401871871793e-01
2.669520832484534312e-01
3.048717172495685190e-01
2.606508105265974984e-01
1.974569513437496870e-01
2.570352185983221793e-01
2.916956375211454677e-01
2.669715933741071967e-01
2.373764279883641137e-01
2.743390516223351838e-01
2.941013312783022360e-01
2.715217408446715108e-01
2.803037698787333443e-01
3.067079851444512451e-01
2.657962091560539530e-01
2.944043355343951007e-01
2.578117026851720617e-01
2.887253385889806401e-01
3.453368354930437811e-01
3.532261527731452855e-01
2.293138654787114650e-01
2.169325835140111791e-01
3.001523103791802205e-01
2.786046423369978320e-01
2.671498642124247036e-01
2.603798291570874612e-01
2.967691872063983327e-01
2.673928207775149168e-01
2.408447659953548703e-01
2.732823931783114890e-01
2.591870964069222794e-01
2.181715313721270810e-01
2.233971574873412635e-01
2.097847346698516469e-01
2.179999978995166288e-01
1.832589485178084121e-01
1.472924663346939778e-01
2.263854033704381374e-01
2.093195882462070556e-01
1.889603285197865579e-01
2.022632334034823176e-01
1.764007055815786096e-01
1.703640586973146909e-01
1.745676849288501087e-01
1.887114540916491334e-01
1.894781762996003982e-01
1.550052825658101707e-01
1.533605792142742064e-01
1.278558355705989580e-01
1.538589441018399784e-01
1.133982943199930149e-01
8.623461728321742126e-02
1.574139380302160829e-01
8.824017949541648753e-02
9.800873821304326161e-02
1.063864980758144341e-01
9.370043279363693411e-02
7.321582497051454252e-02
9.601766535382687262e-02
9.047036507766939573e-02
1.315394584560571623e-01
1.087928731103946500e-01
3.868542002263769541e-02
6.912163090746548111e-02
9.982576372881168947e-02
1.066747492708109979e-01
8.947249222525485712e-02
9.335187210440673566e-02
7.972599474354846727e-02
4.286061282784649207e-02
4.886011787483868218e-02
9.784353656689012690e-02
5.030626673575075425e-02
8.912138338972121210e-02
4.084532389970247507e-02
8.819678031343583524e-02
1.009770629584431367e-01
-3.248165766689195544e-02
7.423162420135009931e-02
9.324804023887553472e-02
1.427643747964305390e-02
4.736451786427352956e-02
2.943115855614137841e-02
-4.241510604451961125e-02
2.941918087653250941e-02
4.919269377359811179e-02
-1.034666083260912112e-02
6.534182873351621068e-02
-1.387884630001710862e-02
3.660905649755759328e-02
1.901821483279481778e-02
6.318669117462019647e-02
-3.875078662369496607e-03
3.699453627093155644e-02
9.228084327453860147e-03
5.914222546717819162e-02
6.027242385318279383e-03
7.521673395144720664e-02
3.013977770256746208e-02
5.893845299632825829e-02
5.889527121172150048e-02
3.227463377506140790e-02
6.706979962004749884e-02
6.985559840264325693e-02
-2.234595204721127881e-03
3.757661024913556969e-02
1.016845692668352230e-01
6.316810825440066779e-02
6.704587348966443983e-02
1.066859319237112580e-01
7.104704024485256064e-02
8.539778900214158031e-02
1.039854486682411511e-02
3.723640163633542416e-02
7.115872728896957544e-02
5.523904998651031628e-02
1.096940466257337043e-01
1.230338898864644787e-01
1.057959113271515622e-01
7.916817905113404663e-02
1.707731396765050091e-01
8.492393737145878529e-02
1.441486339826130725e-01
1.335509828783584263e-01
1.119371983787083163e-01
1.099268233355380903e-01
1.641046855761878476e-01
1.668606224731495613e-01
2.049013590662326356e-01
1.821754329434538411e-01
1.364826861823197901e-01
1.932022546074903535e-01
1.156736730003942726e-01
1.610608841752176890e-01
1.889527217197183584e-01
1.313654163562425481e-01
1.652887964619593197e-01
1.766378129006320186e-01
1.418994625626240347e-01
1.625995963802390754e-01
1.998470961745080765e-01
1.886270379355913518e-01
1.187383483641454157e-01
1.429786152545071409e-01
1.612810631126518346e-01
1.301149438011538484e-01
1.618237303003954575e-01
1.250182914472832696e-01
1.364370049857849543e-01
1.148128266054225938e-01
1.675824740161918347e-01
1.779060180064788999e-01
1.578967141867721469e-01
1.938464438244607291e-01
2.213831345914310800e-01
1.962930531506453802e-01
2.344050304581612176e-01
2.839065882045778144e-01
2.403966289451745786e-01
3.356108031108645529e-01
4.498612622394851934e-01
4.806952615629556669e-01
4.968769558502855177e-01
5.660437741753351348e-01
5.704281205737717908e-01
6.785122837595636280e-01
7.723583144672487855e-01
8.572208298406566174e-01
8.695132512324882379e-01
9.591693712534808958e-01
1.019316855782264941e+00
9.653036653786416510e-01
1.023747021389816103e+00
1.049522043891162992e+00
1.046902411888420037e+00
1.041678456120124219e+00
1.022177691696674273e+00
9.864094878757451168e-01
9.393748239744356132e-01
8.864265093054358724e-01
7.720146410476048660e-01
7.637061630596775341e-01
6.305686450315188818e-01
5.947919348526390371e-01
5.282467790473505120e-01
4.539629504330898180e-01
4.199698903389265658e-01
3.011622332355447518e-01
2.554318230526984590e-01
2.485966201930181196e-01
2.401373910342419205e-01
2.618922194089723376e-01
1.828909944078349337e-01
1.302021030256076961e-01
1.662473709779295761e-01
7.238446629983108505e-02
1.306917903967552974e-01
1.377450524767470652e-01
1.193548268691424774e-01
1.706079489671913640e-01
1.033439816877214784e-01
1.262944306904226488e-01
9.693730165392690223e-02
8.480739840516719752e-02
8.039946978833203972e-02
1.216022920143241398e-01
1.482741189604854515e-01
1.382197832712170615e-01
1.613056081225911764e-01
1.845987697761110324e-01
2.138243559791689896e-01
1.636670136077300330e-01
1.988425732336830398e-01
1.826546295570871392e-01
1.906598392857773716e-01
1.717970508621583792e-01
1.940330316582937198e-01
1.534227949896565246e-01
2.097711052188152014e-01
1.484800944865620476e-01
1.360358427678113602e-01
1.872437546246922824e-01
2.237645937253072426e-01
1.872470643627607290e-01
2.674673294528617240e-01
2.640373634342081388e-01
2.252583125997256741e-01
2.499771104464004745e-01
2.207272612112150811e-01
2.746883193331140505e-01
2.975973108841269421e-01
2.714851359482862159e-01
2.889486805782431333e-01
2.427315160486397116e-01
2.964908128667865239e-01
2.260599279283247165e-01
2.273625739459047834e-01
3.223554471885990425e-01
2.082070672317094806e-01
2.002839965006331102e-01
2.311095277871228482e-01
2.510607600863822286e-01
2.569061966521286600e-01
2.185604302961939582e-01
1.986203857458228861e-01
1.997259409757589088e-01
1.999407757300032673e-01
2.503595970120134351e-01
2.376969724810156226e-01
2.035272718731835906e-01
2.052878376805482574e-01
1.850555265610052402e-01
1.933548660933640806e-01
2.182381541810050063e-01
2.063253616022928116e-01
1.746529703694502944e-01
1.847534085584652541e-01
1.858911959099643629e-01
1.779047679988269848e-01
1.794717035380255232e-01
2.177195929289000020e-01
1.609665727765989540e-01
1.126199995895361405e-01
1.308456311140626938e-01
1.051079328977890942e-01
6.603046023196623704e-02
4.837066384789986268e-02
1.259011390251662532e-01
9.034522600861355501e-02
8.205345659518253898e-02
1.198405532970366338e-01
1.224562038615640142e-01
2.387103595565192096e-02
7.165004787173331890e-02
5.931066278285219984e-02
9.910693860648191189e-02
6.682985625734615132e-02
5.552756841630665519e-02
6.341899413660778695e-02
1.297311259331202990e-02
3.218987856218809285e-02
6.557403168265019122e-02
2.800610111525858592e-02
8.070642572304161794e-03
3.372252536977562998e-02
3.612389640853065631e-02
3.567650628678821489e-02
2.135740555254600492e-02
3.342605698064550490e-02
7.602868715401896182e-04
-1.238701202803894549e-02
2.521684239497586424e-02
2.799887456702761235e-02
-4.403248220634310706e-02
-5.581654562628411698e-02
-3.200411456437061986e-03
-1.894527255277299316e-03
7.399090924190585700e-03
1.929481588891983346e-02
2.199147593740550036e-02
-1.276499892959803359e-02
4.676843549451266402e-02
-3.243331512037050252e-03
1.844686682570231481e-02
-1.654111192684690548e-02
5.863053980765493833e-02
-4.615992484577469135e-02
-3.810696940893239931e-02
-3.161082020567259482e-02
1.992658361765632311e-02
-2.178957217900901258e-02
-5.753116308694412873e-03
-2.917526524215589834e-02
-2.949404645336494227e-02
2.615044844514625641e-02
-7.640237966494847072e-03
-3.761023375819195352e-02
-3.713066786617303522e-03
-4.672495101215380642e-02
-5.218913193915718229e-02
1.344669996425958136e-02
-2.487536990947954857e-02
3.330147835003727935e-03
-2.492999993169477471e-02
4.639345535001442034e-03
-2.364938825471573497e-02
-5.049733497717161929e-02
-7.670674723360623726e-03
3.486715670183403171e-02
-7.257428510434246749e-04
6.594222356786638706e-02
4.720001431443067441e-02
2.631185990094479787e-02
5.337447804022983633e-02
1.906689152187834510e-02
2.295998085487033213e-02
2.426044959330250425e-02
6.828423881218607938e-02
3.906037377221574514e-02
9.148951307791552967e-02
5.383162635274532648e-02
9.259506617739404755e-02
6.621242636307134166e-02
1.409537076831499092e-01
1.056313517005820490e-01
7.692218698675880317e-02
9.402002124723568555e-02
7.599697996915613651e-02
1.202543270621493632e-01
1.186006473040175369e-01
1.596146346756484036e-01
9.765717535413848127e-02
8.251097718026670358e-02
1.554582762718431932e-01
1.201322558864768020e-01
1.039854537100743520e-01
7.712784197858663093e-02
1.104640952779841062e-01
1.436377081283402579e-01
1.451615032502713287e-01
1.290314604463062009e-01
1.524207222608498780e-01
1.215578962279363073e-01
1.451368873817923122e-01
6.387160974079943154e-02
1.016375874334339569e-01
9.147970584042866560e-02
5.709524018385362526e-02
7.366322557086849021e-02
8.255266781661604880e-02
5.896326278845404056e-02
1.322010375324504383e-01
1.032281693291098174e-01
7.531377774397413072e-02
1.384381366315852735e-01
1.398377584063215384e-01
1.463644828598238690e-01
1.220869489312157441e-01
2.199451479853532510e-01
2.771798003373832087e-01
2.846769655776513752e-01
3.145135110736270168e-01
3.710569387945209519e-01
4.526323253961915816e-01
5.634083051737479586e-01
6.165776479808646737e-01
6.567901697091133029e-01
7.684842087828703816e-01
8.144583611507612009e-01
8.596428165002770738e-01
8.885921660040611014e-01
8.960316634404625891e-01
9.994562426254861576e-01
9.949948759210861526e-01
9.870717215281850088e-01
9.607908297542859799e-01
9.712503227513815673e-01
9.299170194983715776e-01
8.959130443318737980e-01
8.140959030209017344e-01
7.254877649017126284e-01
6.649223230201480872e-01
7.069699591830530538e-01
5.568208264295638754e-01
5.059465903077315918e-01
4.507478948086773851e-01
3.715483481580704184e-01
3.308363632266648757e-01
2.763462364388808989e-01
2.222511203303403626e-01
2.440694170501303550e-01
1.687871576760759385e-01
1.896256503774380042e-01
1.561132903907902769e-01
8.253701076902239531e-02
8.829402275314685022e-02
4.160693511816386525e-02
8.119193066792446123e-02
4.760757358754447860e-02
5.315887865110478783e-02
1.114782427939657594e-02
6.791630499976507307e-02
8.162482378347189760e-02
6.602307093506987190e-02
-9.837561765640850941e-03
5.050303861672680861e-02
1.251133052751006725e-01
6.663577999572445343e-02
1.121053510469215420e-01
1.271753427158933691e-01
1.246632435785618997e-01
1.075814146203916966e-01
1.590195186476661970e-01
1.107029695713361295e-01
1.610704147759540461e-01
1.334876619782859597e-01
1.063159623300343470e-01
1.778240677637275280e-01
1.037157550808910089e-01
1.268543167880376299e-01
1.353859374525665515e-01
1.567520667940168755e-01
1.557621309436547641e-01
1.499613341455908466e-01
1.839278801889522863e-01
1.526738316933334838e-01
2.085363297936265181e-01
2.431309912805146300e-01
2.050965904308668653e-01
2.130955078338520603e-01
1.598781400367572936e-01
2.140569688964703010e-01
1.765657096715243235e-01
2.573146990287854541e-01
2.140431768670532642e-01
2.050142394471788920e-01
2.219899166403980217e-01
1.373468619216969000e-01
1.903893856764058423e-01
2.901225910134443975e-01
1.592209285721775391e-01
2.088124953329667799e-01
2.485106331007153613e-01
1.711066027646393206e-01
1.520353401977859731e-01
2.064593164652702428e-01
2.141630145269527719e-01
1.478174101683311648e-01
2.090829843945780642e-01
1.690585547860956328e-01
1.454823000935950572e-01
1.946206502508190106e-01
1.689471797865518821e-01
1.744717681884698501e-01
1.374060441573461133e-01
1.657953298899620675e-01
1.001803436446606910e-01
9.906939597606215231e-02
2.115758884113264071e-01
1.449876906817212097e-01
1.587657356609199766e-01
7.155632340868015029e-02
1.663416979064305246e-01
7.900407358912321654e-02
1.262419713202768412e-01
7.637573175339137932e-02
8.407995514718442920e-02
1.012624030022282184e-01
5.791299740613925495e-02
4.857126259281638325e-02
1.011878796020204002e-01
2.440004855033190562e-02
2.218672280350934833e-02
2.325442937439303748e-02
2.205166436492067561e-02
3.593712876071927798e-02
-1.924229485823889668e-02
3.020893757268526547e-02
5.575057691831142304e-03
2.773882676401416558e-02
4.867913041733915730e-02
1.323653538928509094e-02
-3.561743425935945395e-03
1.788783465671503481e-04
2.085276953535169370e-02
-3.892422446423208365e-02
-7.995762375071248373e-03
2.830180363859570447e-02
-3.270816514140272718e-02
1.161767712198168850e-02
-5.225402211836309430e-03
-7.520285775586947608e-02
-3.524762188439795746e-02
-4.838120005541543533e-02
-3.914134499906636588e-02
-1.617074580435134273e-02
-2.356425229011523820e-02
7.544948050932850925e-03
-4.565438067168689495e-02
-2.594522590883388199e-02
-2.256990260866910403e-02
-4.519269394504152326e-02
-2.468537938164959769e-02
-4.055615549971199052e-02
-1.347877637962182490e-02
-2.035673880148034659e-02
-8.426194616210573585e-03
1.521304098237710040e-02
-6.310339685746249594e-02
1.412701351088570256e-03
1.071576345536327801e-02
-4.519584404116003262e-02
-1.505550137816268064e-02
-9.665142397136046448e-02
-3.155514065346101682e-02
1.002639283627253242e-03
-6.767662461081055958e-02
-6.912534040571287342e-02
-2.673805527790000525e-02
-4.487116096396945308e-03
-1.457338375654972790e-02
-6.984043131090453271e-02
1.633994925966397727e-02
1.556503296794159441e-04
-1.116914986994233666e-02
-4.083267664047327689e-02
6.829743054821914294e-02
-1.306457268794090909e-02
-3.134994578119408570e-02
-3.143479352805286786e-02
-1.975224831754781099e-02
-3.591249610522453950e-02
-1.031346147506447680e-02
3.334987222705164400e-02
1.152774932931160262e-02
1.900321202566684214e-02
4.384592180587672250e-02
4.804475529841215065e-02
4.874031007914894631e-02
7.007703960270703081e-02
2.940414094719437377e-02
4.359205985560346552e-02
5.122559959217600628e-02
5.604727098096112803e-02
5.880352223651094667e-02
5.931592327607609211e-02
1.694618825087011449e-01
1.128755632497404904e-01
7.671496489215148817e-02
8.565978246912245297e-02
1.085104420649828927e-01
9.319328434996757005e-02
1.431215937699839846e-01
1.234134908764548955e-01
1.324865819991789540e-01
8.995333763213500533e-02
8.281097062335703030e-02
1.417920087768773096e-01
1.315093687979948245e-01
1.210058760098460806e-01
1.270187396694947290e-01
9.828408415296907563e-02
1.002874874562874191e-01
1.081380585032693520e-01
1.126157274329334101e-01
9.841683025458849987e-02
9.060774252031777998e-02
9.618360026904154703e-02
2.220849051305388844e-02
4.999411224321027858e-02
1.244378952729868204e-01
8.999675964165898545e-02
1.131971927153948981e-01
1.049142407015604128e-01
1.033331093679591833e-01
6.631046460312094160e-02
1.176549849977735068e-01
1.529665520607194906e-01
2.057293688972119949e-01
2.771711661935285509e-01
2.806036028547575500e-01
2.900201737672034596e-01
3.954031948628068394e-01
5.225730549928175872e-01
4.998986559225642168e-01
5.329431788876821674e-01
7.157570106624593365e-01
7.460962802339203837e-01
7.735932519541335317e-01
7.822184984305802224e-01
8.801331962104833595e-01
9.197633819464511307e-01
9.698731534723615821e-01
9.617881497909239741e-01
1.010377706103739115e+00
9.876169027294019465e-01
9.187069507056407902e-01
1.002653779574457671e+00
9.426524015688089175e-01
8.294606723977914209e-01
8.093800581930423732e-01
7.556431361671305247e-01
5.980375719518457034e-01
5.774509217772110237e-01
5.315111281231962304e-01
4.440768808317603900e-01
4.197789297085140481e-01
3.775419979176266594e-01
3.102130130248019757e-01
2.385405550363888239e-01
1.792343450790343795e-01
1.648096701277291798e-01
1.539292668064963510e-01
1.040225447292949246e-01
1.394491024802620438e-01
7.387664877824984266e-02
5.097121086185066319e-02
7.711939011047713732e-02
3.294934456346234469e-02
3.342155813702454153e-02
1.964111934813933535e-02
-4.817387502426002943e-03
8.035467606338088375e-02
5.541951393273922277e-02
3.628307133515792926e-02
1.309241958127022598e-01
3.472448037692002498e-02
9.327921104682973530e-02
6.242203230420481641e-02
1.178851155559506869e-01
1.409856636619073178e-01
1.542871663157431850e-01
1.164379862837496282e-01
1.239447755320129130e-01
1.457872352127932425e-01
1.981469645283224779e-01
1.549282345431170771e-01
1.384867747224756973e-01
1.165167892172566111e-01
2.310525704955971316e-01
9.537760045692650346e-02
1.745752813550658644e-01
1.810433505879164018e-01
1.669922673559147974e-01
1.754606266654210878e-01
2.161821316301627272e-01
1.838368341051035970e-01
2.163281269992825551e-01
2.239301124254995945e-01
1.723603238645294300e-01
2.162112050752536818e-01
2.335391063188289595e-01
1.692604983290832144e-01
1.768024553035010826e-01
2.187970871383584648e-01
1.874425118774605548e-01
2.643951339196232708e-01
2.076134173900969770e-01
2.461445006594463747e-01
1.857175676407507026e-01
2.022098595278429001e-01
1.458662920905092197e-01
2.359470138207804546e-01
1.910089821392809972e-01
2.488889750806698442e-01
2.390939468445007487e-01
2.000052007829397904e-01
2.268931285040706458e-01
2.659171861108468593e-01
2.590866241567846284e-01
1.296232520270864941e-01
1.525079305582783540e-01
1.278617846027375604e-01
1.812757896655099454e-01
1.759554681053697167e-01
2.004670927975055472e-01
1.826949743648460522e-01
1.560194350072121039e-01
1.467829776056985003e-01
1.578200073580893759e-01
1.564698553070874854e-01
1.780636121634920355e-01
1.494521101796985885e-01
1.495205731908234303e-01
7.320904132697865496e-02
1.328145743831042336e-01
1.085730689765067453e-01
6.361775343915401781e-02
1.196199958903796934e-01
9.360611125422710344e-02
8.537930219022132894e-02
1.308633072151975940e-01
6.989211658829511120e-02
1.654197602762646352e-02
1.012885128299456233e-01
1.452177372249879028e-01
7.678669460478479425e-02
4.774294991155066115e-02
5.456358430969414364e-02
5.561615337957672572e-02
5.339991771369069495e-02
4.282770949311436037e-02
3.627155532411725780e-02
9.017856959487366431e-02
-1.172435641587354568e-02
4.895231375768528681e-02
-1.917493413345138648e-03
-2.261983837655354157e-02
2.566767212320602773e-02
5.121509218335662528e-02
3.580585683957240861e-02
2.947867465736513440e-02
4.078245147866286363e-03
-1.269107553803998541e-02
-1.418634042995926998e-02
-1.956899827083438334e-02
3.206291249239880126e-02
-2.263104692239623766e-02
5.366200881762180075e-02
-3.204952087256236759e-02
-5.210905592526886981e-03
-1.051497523498270796e-02
1.666003008743963121e-03
2.916317522450627073e-02
1.374800610628788139e-02
-2.818134873161403514e-02
-5.249658906909838996e-02
-4.706066273805578626e-02
1.085379863136303261e-02
-2.122817520333075691e-02
-7.826626785909156919e-03
-1.128059945713991152e-02
-3.362279680354719746e-02
-1.124275041770651795e-02
3.436427459440223597e-02
-4.426767516855926315e-02
-4.186664038822113937e-02
9.524812671609081405e-03
-1.384310310719283343e-02
-5.100756780537405582e-02
3.491436811306200538e-02
3.488146186636811169e-03
-3.508198682986346517e-02
2.586948848384047761e-02
8.069134966293671496e-02
3.301949468160136902e-02
3.608829815886435699e-02
5.023296055672148153e-02
5.574266361889443355e-02
-7.299782813278794802e-02
3.565939787551066636e-02
5.173717108261247088e-02
4.745790922676576540e-02
9.442511565030379042e-03
2.361344475855906705e-02
4.532391363801117901e-02
4.336909277803611962e-02
-7.624039784588646645e-03
4.454376742147062029e-02
3.525216543789019830e-02
4.831651096937505246e-02
1.311844365679734337e-01
4.980449166816516143e-02
1.126978615518599292e-01
1.342258952841823283e-01
1.365447795189104474e-01
7.592242547945686482e-02
1.172767591060386028e-01
7.640132568206874086e-02
1.540622891598945610e-01
1.465744421780872386e-01
1.182113627655353716e-01
1.414277108716892883e-01
1.631241230730206826e-01
1.252551591320828217e-01
1.478151768109690345e-01
1.733747355178182903e-01
8.809695236342783564e-02
1.343360919605909587e-01
8.937048672732277044e-02
1.690908671542762642e-01
1.493232127953378341e-01
1.122555863793580633e-01
1.097883322781725707e-01
1.587138189796874488e-01
1.113522728838868270e-01
1.293349148618055111e-01
1.297237715819923032e-01
1.442229922384893337e-01
1.370213766018328616e-01
1.475039255270255145e-01
1.240610832501560651e-01
1.253973430582714932e-01
2.286891553002111666e-01
1.595876190961058316e-01
1.335436603316140503e-01
1.879671332518655091e-01
1.615768536089536300e-01
2.310022210533922704e-01
2.656285126996438262e-01
3.374669875425863053e-01
3.259857930523600289e-01
3.706006688664273963e-01
3.926540257450309990e-01
5.136927160320229335e-01
5.455208160379876325e-01
6.796383741624640873e-01
7.654436818661216613e-01
7.769058442893993499e-01
8.499335342549582117e-01
9.092369795291076473e-01
9.647795721973141392e-01
9.990700355031365554e-01
9.644760647738623849e-01
1.092122374082280523e+00
1.039396628869747374e+00
9.990955402783134875e-01
1.013370732261127394e+00
9.733675362470157744e-01
9.038611497465418587e-01
8.816541301425475652e-01
7.661959355141485517e-01
7.411707325590762840e-01
6.223714100053024945e-01
6.274543223323137964e-01
5.318247613706863497e-01
5.250797430668758814e-01
4.395753425822031546e-01
3.723555024913326461e-01
3.262411082880478652e-01
2.635146283483768559e-01
2.456591864213946708e-01
2.086672969541321920e-01
1.632046717935867475e-01
9.268946669170485819e-02
1.290559828669153863e-01
1.362365071164955144e-01
1.274962661573671163e-01
1.460838586864212363e-01
1.463206580343667795e-01
1.060863049435641081e-01
1.493033883466069467e-01
9.227554777527464946e-02
6.538506303573607403e-02
1.257549193488862183e-01
7.988499999557523157e-02
1.511053189125096397e-01
9.152970916473074370e-02
1.612561573837084095e-01
1.957847919670246961e-01
1.782312320781795911e-01
1.770670744200144586e-01
1.446398026621628086e-01
1.910934367719201443e-01
1.979471051099180035e-01
1.766647095020782432e-01
1.827469953274148962e-01
1.652602336614011624e-01
1.930691445179545385e-01
1.640381702735355662e-01
1.915709267440339203e-01
2.249481062860433922e-01
1.768119916271176650e-01
2.247141128541793598e-01
1.911391719778766929e-01
2.018172416832596239e-01
2.490944137701213146e-01
2.320810335113969169e-01
2.701699447385531028e-01
2.645592357424594310e-01
2.797004567472625158e-01
2.829843009098648721e-01
2.542764966186807363e-01
2.112324255709659981e-01
3.060260929685584830e-01
2.480552497917266896e-01
2.702627853546093473e-01
3.140228551423057679e-01
2.979556582267100517e-01
2.310307979559016733e-01
2.584652794672737675e-01
2.493589986999863450e-01
3.409447316813258855e-01
2.985415377341669729e-01
2.467386865686119479e-01
2.440848632558438591e-01
2.170003401875934823e-01
2.507701604932083828e-01
2.364964527541058570e-01
2.612266410609501710e-01
2.209067426917730725e-01
2.511023440820415176e-01
2.322663533193304319e-01
2.196493292292904520e-01
1.821353610144201274e-01
1.610224999473965080e-01
2.053052664117123727e-01
1.816081735681534803e-01
2.211757989234854616e-01
2.355210588363523538e-01
1.856807537693736521e-01
1.396340996844817606e-01
1.601639333363217843e-01
1.892528557968069791e-01
1.702139694829312155e-01
1.317867398459487416e-01
1.560371922573777215e-01
1.701359976578515620e-01
1.499216256926132196e-01
1.328287907209183272e-01
1.396387068512148499e-01
1.374328342523401247e-01
1.287488904677377699e-01
1.066137400777290578e-01
1.182639823300515730e-01
1.373258873634679023e-01
8.830168307440849906e-02
9.446606173078370139e-02
8.995706605719630544e-02
1.223498308567617099e-01
1.231613376808492338e-01
1.160309684083413173e-01
2.595314177787725815e-02
5.719033013664928666e-02
5.314511393414518559e-02
5.698936325828058563e-02
1.086880957716013230e-01
2.696108573580198453e-02
9.261462805526571307e-02
4.444752727028093708e-02
5.703660732205075024e-02
7.723001230016940388e-02
1.647324842275019186e-02
3.110094978335188609e-02
1.052334664416761101e-01
8.492816271752201551e-02
3.941402074520303223e-03
-2.693202287655802746e-02
-1.354406191117129774e-02
7.245148097032820533e-02
1.375612621063821914e-02
-1.910819746394872704e-02
9.018513869734276489e-04
6.872182643682214764e-02
4.995653989483891250e-02
1.559712968631907920e-02
2.670195545572843707e-02
3.582081186844907061e-02
1.179500637596725757e-02
-7.617584349760980755e-03
9.669940240554991684e-02
6.560855299745099733e-02
1.122148266180873488e-01
4.883124889052077588e-02
2.574676783982074446e-02
5.127913791532019705e-02
4.119937379027809043e-02
5.611578187722144478e-02
3.001703668915786313e-02
5.846439754685654050e-02
8.777386172274551090e-02
2.532317182502625066e-02
5.268229752678649236e-02
5.767044759837907514e-02
5.747731333294169020e-02
6.754544876713820811e-02
7.729440647076815663e-02
9.423103963212538237e-02
6.439202546262608184e-02
8.826437098529829606e-02
8.914857385205289531e-02
5.577146503089491780e-02
6.879227360694745164e-02
8.808882336660281420e-02
1.087735597058824277e-01
1.088029670640118796e-01
6.381652780576643758e-02
6.176994520946963579e-02
8.434309600076463076e-02
8.995117470570551665e-02
1.291475076974779312e-01
7.292616459554041031e-02
1.732920179258630733e-01
1.222023674311738806e-01
1.734109998180893286e-01
5.701146589596007425e-02
1.451579764797742422e-01
1.803841844377363224e-01
1.447586286084889817e-01
1.384915123743787335e-01
1.828678098382776063e-01
2.000524376827155504e-01
1.354290945369233112e-01
1.913228317096545839e-01
1.561752567042207496e-01
2.018997062491970917e-01
1.886311669020670490e-01
2.223365727209777598e-01
2.119938573796140424e-01
1.552443757959077741e-01
2.241335926972525261e-01
1.739414946276877094e-01
2.322308523802151803e-01
1.716947656178670067e-01
1.952229659998053479e-01
1.335696569845385706e-01
1.519135706900653360e-01
1.979443908785704920e-01
2.167539587688153968e-01
1.748689469129821594e-01
1.423648110949179424e-01
1.825009927001585708e-01
1.841778612007058391e-01
1.315298223708082914e-01
2.018810427260231133e-01
2.112207800548595027e-01
2.396296510051445228e-01
2.207806143007782218e-01
2.363920424516850194e-01
3.601195373663029775e-01
3.435307881902384675e-01
3.213626666524306841e-01
3.967256483507641818e-01
4.931546379284095227e-01
5.694806531998074517e-01
6.365532336579695638e-01
6.895809698268677845e-01
7.400596385875294336e-01
8.021570566727483920e-01
8.781006485583078280e-01
9.514640961206912717e-01
9.504002673866813744e-01
1.024859322781066062e+00
1.019153083747235566e+00
1.111477067251999573e+00
1.049063323230640776e+00
1.125941475788473589e+00
1.029110930862564777e+00
1.060196184010881115e+00
1.004976316713693141e+00
9.540159314326682738e-01
8.513656548039294503e-01
7.965886534121472407e-01
7.495738713515870399e-01
7.108558771760785655e-01
5.922776913528475795e-01
5.247044844037453970e-01
5.077195605094788622e-01
4.166604934923492376e-01
3.423321280235759878e-01
2.704072406648361793e-01
2.710084938789646958e-01
3.076956803016984154e-01
2.596622968735462500e-01
2.027496572892717175e-01
2.518431312560981961e-01
2.087004908384954005e-01
2.246969919212624678e-01
1.145689872494030093e-01
1.408352288221541848e-01
1.436474412182060512e-01
1.455353861765673606e-01
1.982488726995168538e-01
1.459076598992797846e-01
2.155025565196577730e-01
1.306377168833326441e-01
1.431808147726643943e-01
1.655365129948881409e-01
1.572331339864882493e-01
2.125904285549729822e-01
1.836606760474523703e-01
1.792472922191811757e-01
2.240093937096365728e-01
2.224340634607675227e-01
2.413952089426184833e-01
2.338867271294345074e-01
2.016536318727244481e-01
2.156912063272294344e-01
2.487457334502767015e-01
1.868985522578112124e-01
2.441288360892880094e-01
2.365210136031110078e-01
2.544213759924507379e-01
2.394352196271062327e-01
3.242648373515962801e-01
2.669357055982665705e-01
2.524744623299661206e-01
3.332931000557591839e-01
3.261161939250781794e-01
3.211633145616509810e-01
2.740837711985149583e-01
3.225492840146111373e-01
2.874921772460181657e-01
2.440018827592985717e-01
3.301396109720979855e-01
2.888182899788559466e-01
3.141091888354623496e-01
2.988749642303603626e-01
2.564017350994472477e-01
2.871438245981371984e-01
3.024209088403511658e-01
2.861884925683598757e-01
2.714285873068009725e-01
2.841177443981286466e-01
3.207166012179800685e-01
3.410565508190840922e-01
2.574129026585199043e-01
3.100223985149624384e-01
2.686377888346775933e-01
2.265161484333980957e-01
2.267642055300007065e-01
2.271619612730814974e-01
2.657929345287793899e-01
2.937838388342834950e-01
2.100616576903666932e-01
2.051918811590260072e-01
2.690009654937933203e-01
2.764667521162847419e-01
2.831966750521896503e-01
2.276729463665961295e-01
2.379917191210999816e-01
1.922083346039153151e-01
2.775604251508592690e-01
1.839879899165453858e-01
2.194357657204132062e-01
1.597664468135597260e-01
1.955578729735410193e-01
1.463019735653221520e-01
1.986540188695074538e-01
1.197304417421143075e-01
1.897350312636513769e-01
1.130651069868413572e-01
1.474897538387020535e-01
1.639087818493472626e-01
1.493582554766648696e-01
1.703558676366519753e-01
1.821567001200923852e-01
1.144132197224585756e-01
1.562230178332000285e-01
1.227583376254180181e-01
9.108917220705747830e-02
8.155760260783737059e-02
8.453880179943541739e-02
9.076043704368340348e-02
6.408028522732435450e-02
9.896652400989577880e-02
1.025759531523401380e-01
1.210782977663604626e-01
7.821987098392954585e-02
1.039622958822701559e-01
1.212595806228590756e-01
8.910808430184626039e-02
1.034350199265721554e-01
5.025780032008466541e-02
7.850575595276222673e-02
8.584707974131555730e-02
3.162141959400878444e-02
6.897778555907646547e-02
9.978578271638104125e-02
3.227932103519602636e-02
5.696594401841627298e-02
8.620138820191039497e-02
7.881784224007848394e-02
6.399899944213180425e-02
1.449446980672772917e-02
5.296150564437532293e-02
8.780702088607333922e-02
7.959619325340500096e-02
5.087622952031843615e-02
4.361481541005848839e-02
6.212310055426786132e-02
1.241621596949699646e-01
5.021107249228076719e-02
5.582341430334238075e-02
2.995168482470431104e-02
5.707427603432860264e-02
6.421147831359619307e-02
5.724574879624736573e-02
8.716075009475454660e-02
6.942700339273483179e-02
6.493777059123587159e-02
9.671122961472858326e-02
5.132611755478073967e-02
6.003192770355222224e-02
9.017026606713021697e-02
8.440376107094652025e-02
8.562314783281460562e-02
1.454571044989113604e-01
6.117313711938866805e-02
1.011424903384224583e-01
7.074877697715999114e-02
8.492728585619821469e-02
4.151621542393155173e-02
9.991512559252160863e-02
7.884897730867981847e-02
4.046896763188739810e-02
6.659178496821527293e-02
1.237283440871189133e-01
1.351228788225380673e-01
1.174120583949541524e-01
7.075305738342974049e-02
1.266403741980522968e-01
2.029653532472174005e-01
1.503485393530359093e-01
1.819363186899761176e-01
1.817274561439367886e-01
1.531014609433034024e-01
1.536540463478870688e-01
1.985932837579957033e-01
1.225916818669085528e-01
1.672992710714393816e-01
2.119953610229972363e-01
1.570024658607001578e-01
2.068496129759718749e-01
1.912594017058943940e-01
1.129338786240539627e-01
2.250502295642967943e-01
2.489818281152386681e-01
1.810194270609380429e-01
1.729289896282287242e-01
2.276738975080087601e-01
2.030160244998683583e-01
1.526338949565404779e-01
1.709609961327118732e-01
2.117111882269085144e-01
1.929081520723625320e-01
1.732240717469312186e-01
1.533354485652074772e-01
1.579982088821735298e-01
1.702118484309596558e-01
1.975895334673336001e-01
1.814182579295474107e-01
1.712827823565834240e-01
1.788687137399893046e-01
1.940197497860630393e-01
1.896576878615914286e-01
2.044346588405510923e-01
2.312550944281834553e-01
2.676953083171663139e-01
2.747304535660718416e-01
2.651198346045615106e-01
3.760887479268640865e-01
3.759429931672606529e-01
4.454388032331061398e-01
4.992731975146124102e-01
5.852755670904454810e-01
6.433553267039328061e-01
6.860466692876119321e-01
7.927179449817309820e-01
8.448260756401073657e-01
8.855979754204720278e-01
9.297912526082350304e-01
1.009340993356519611e+00
1.055915153480434077e+00
1.091249111403470140e+00
1.042806885791810245e+00
1.072531070233268213e+00
1.098172081305382353e+00
1.043781111469161971e+00
9.784045682275535061e-01
9.598606898861806735e-01
8.857909704091522229e-01
8.341348811896420745e-01
8.121024563037592126e-01
7.910414655514734772e-01
6.299595075899746544e-01
5.400523168790180017e-01
4.802752347416892054e-01
4.493966686386082210e-01
4.270590859032818987e-01
3.430177393678861542e-01
3.423254986741917638e-01
2.744587623933378850e-01
2.468430742235311892e-01
2.146105801171227512e-01
1.489144564014220629e-01
1.486497504876517772e-01
1.656718175855194097e-01
1.403417906685596184e-01
1.607569440436021346e-01
1.343847208773447932e-01
7.703174350166644424e-02
8.690949440238406043e-02
1.319508585798987998e-01
1.288639721578238861e-01
1.677966753197913663e-01
1.700973919893608299e-01
1.875127307061602577e-01
1.980284322343158765e-01
1.736593526892297734e-01
2.249237049864722116e-01
1.386524480496965084e-01
1.955275496667571167e-01
2.129936091189706115e-01
1.492251588222135716e-01
2.185479218695882686e-01
2.371523328033622868e-01
2.174308197943272680e-01
2.212315901623075065e-01
2.401755448984543295e-01
2.085974514125479851e-01
2.072302121189514013e-01
1.785806231356214524e-01
3.008362006594587079e-01
2.180386102694194528e-01
2.616849437810875867e-01
2.868930427977120501e-01
2.792334705999026112e-01
2.967244774472679314e-01
2.921844153826471668e-01
2.925870200908743390e-01
3.312063068031534940e-01
2.451814992916491187e-01
2.628073786073950591e-01
2.809548728952936392e-01
2.568596818539225501e-01
2.720946186635532782e-01
2.930183337103544616e-01
2.601876962379376379e-01
2.690721364383535374e-01
2.736812398812781821e-01
2.405346802258076511e-01
2.772758286686671791e-01
2.949034261541269575e-01
2.445806940640406490e-01
3.217163728524118915e-01
2.747696432072559425e-01
2.707745627886433137e-01
3.111555038208803636e-01
2.459465437344459937e-01
2.641211270576424575e-01
2.288425049888445639e-01
2.331927078081483806e-01
2.572504757257932928e-01
2.267843600546783633e-01
1.907904114168777199e-01
2.373520343408735134e-01
2.830814515871614145e-01
2.226315592103097485e-01
2.133248362389083552e-01
1.565441515364209557e-01
2.581018558192164081e-01
1.123554511575343140e-01
1.985150440118778059e-01
1.857762194668782507e-01
2.234346151017957971e-01
1.740968620248695142e-01
1.879173214649931534e-01
7.390752228629250686e-02
1.655080252840260557e-01
1.422903617092894646e-01
1.232014610963071688e-01
1.485074580695419921e-01
1.339440205772782222e-01
1.450524008563492950e-01
1.290474747972241709e-01
1.106048132722940863e-01
6.301988070665330566e-02
1.534211267749815144e-01
8.686171981759432947e-02
5.658304437496723682e-02
2.979766648928798556e-02
7.993000740749042765e-02
5.570424716745839278e-02
1.266914576603466180e-01
1.595358511716615801e-02
7.281405308937786980e-02
1.309235853085569945e-01
6.071442331474194432e-02
6.418464774224785785e-02
9.199335850459827713e-02
-5.396063524716714077e-03
3.308527840768488854e-02
4.111203701703279589e-02
2.564552082375007661e-02
5.292606955551892867e-02
4.577694741716670929e-02
3.599388767595684824e-02
2.363626965970523283e-02
4.275215239136896661e-02
3.401744147452922390e-02
3.475573856634939923e-02
4.380973512696411179e-03
-1.884287970087687031e-02
7.090195740393399892e-02
7.508320183161457106e-03
4.058996101038710169e-02
3.305229188311037403e-02
3.279303644128393758e-03
4.173332327103314310e-02
4.003971262054761837e-03
7.475797803151643106e-02
5.108479139341780273e-02
5.376854422420987434e-02
2.550730384940847612e-02
-1.526356607640347481e-02
4.244691440702216823e-02
1.569747391703377182e-02
3.887661662204272561e-02
2.198100027969347378e-02
-1.581622282799342166e-02
-6.846387102873012845e-03
-2.582385226887450036e-02
-4.880095418116625616e-02
5.077303178921208776e-02
-1.977225911208753406e-02
4.713713070352874845e-02
7.650578805271174287e-02
7.003453607670184766e-02
-1.522276818442900269e-02
4.430438597729104838e-02
6.496345509277655361e-02
3.975919374429304036e-03
6.379558012332633976e-02
5.618792651956540374e-02
1.187066310489976462e-01
5.714108818650612265e-02
8.651599900669570964e-02
1.136243573926351697e-01
1.081450840807120783e-01
1.163452225769586457e-01
1.540318407162796221e-01
9.117409972709986099e-02
9.617779987454132262e-02
1.623809081611351235e-01
7.659701312352225344e-02
7.567903001401064811e-02
1.525201574460053611e-01
1.768566097766626488e-01
1.835260834261672191e-01
1.521096071899495084e-01
1.774147791319070633e-01
1.378187291854544860e-01
1.708324099480438563e-01
1.497525131522946251e-01
1.864071354170676875e-01
9.763398948617638129e-02
1.759236379685228113e-01
1.519674220160117939e-01
2.095791234236061007e-01
1.509662314417244411e-01
1.466547198776701200e-01
1.679992325866922209e-01
1.274532525177484166e-01
1.642801460071187658e-01
1.942608761229651093e-01
1.045081716457363363e-01
1.394293355851621008e-01
1.742105784885306374e-01
1.447753197153834326e-01
7.925780863102402374e-02
1.281688283121230065e-01
9.812406013327358567e-02
1.714843824535196570e-01
1.885224945387994899e-01
1.513999804483647238e-01
1.718607266542425405e-01
1.666387623857941702e-01
1.712272315594602912e-01
2.209116147262573937e-01
2.311864611468631980e-01
2.530444186409357421e-01
2.864453314118129423e-01
3.706107238836276463e-01
4.302653034001955867e-01
5.533700328264919976e-01
5.364613761338880016e-01
6.188652573028765591e-01
7.167410368851535596e-01
7.375268006138104848e-01
8.274040850850169493e-01
8.844445122066674214e-01
8.930721172745376135e-01
9.988721853193551770e-01
1.007758657011801562e+00
1.013147841623137424e+00
1.039844084271654090e+00
1.032728343574629504e+00
1.018463949409435632e+00
9.726873660433477120e-01
9.397244935098795215e-01
9.206342201539214898e-01
7.930624583971656039e-01
8.247218732157383103e-01
6.863413038089829499e-01
6.400168379460999812e-01
5.311993845294527006e-01
5.054199018973830615e-01
4.200554382503777773e-01
3.786292420689733595e-01
3.499060330184318168e-01
2.660968988031867655e-01
2.372570972621877439e-01
2.001756117307270932e-01
1.710096586466374191e-01
1.502963040616364376e-01
8.607112362001016759e-02
1.490899513895160566e-01
1.329363633301613445e-01
9.664794401673793001e-02
1.333450956285802125e-01
1.135054995847157855e-01
1.069800202334880712e-01
8.234868109798364200e-02
8.685188684515500468e-02
7.909217702120410753e-02
9.955907554266990589e-02
7.796350727316031515e-02
8.007625314566414743e-02
1.828238324809303150e-01
1.421638642852754153e-01
1.560324931902473400e-01
1.865275379016139157e-01
1.076027517530999816e-01
1.177750083696092881e-01
1.212980093317550939e-01
1.510938395253600686e-01
1.776763623128160274e-01
1.523575195647542679e-01
1.703278037242607623e-01
1.977394506317139700e-01
1.306537944645045357e-01
1.723398345593751269e-01
1.401370849611682234e-01
1.678750236148839337e-01
2.351300983032033609e-01
1.696392139223707463e-01
1.400597513173843789e-01
2.119787773766674266e-01
2.238337931592516983e-01
1.805264559540026570e-01
2.423497263182525507e-01
2.149286200921832757e-01
2.345893369090417124e-01
1.876212560866052093e-01
1.925929132080909378e-01
2.549617007864875551e-01
2.079468754380206785e-01
2.063846761189039036e-01
2.313097805919198113e-01
2.690921732146167589e-01
2.411967062685166363e-01
2.500593337103459990e-01
2.595467046823728974e-01
1.663641464801622338e-01
2.242375663870033176e-01
2.318034105847074366e-01
2.268819620833018580e-01
2.639961864043218753e-01
1.884951119532476405e-01
2.276947897267435350e-01
