1.016475437815428595e+00
1.002039814198484313e+00
9.495011979479037745e-01
8.908553358256854349e-01
8.747818616413413073e-01
8.374974185255613657e-01
7.966171571389443207e-01
7.102450756962053191e-01
7.022313353656612911e-01
5.378436015047332042e-01
5.488034832400807694e-01
4.416238795644916726e-01
3.689337806467758440e-01
3.391822504356895029e-01
2.914110421990222521e-01
2.104162124405459244e-01
1.740428358913698459e-01
1.809691683696771913e-01
1.505653852603447418e-01
1.293388949805070742e-01
1.152635916625700530e-01
1.336212974176766988e-01
3.418621882073743373e-02
7.150554712617750164e-02
1.405610546736464628e-01
5.592143079133691380e-02
1.084624849492993592e-01
1.025894350085148898e-01
5.240384929051364327e-02
7.126426174060393470e-02
1.001096581221847803e-01
4.572991811396065476e-02
4.963543873654356620e-02
1.169854131968191269e-01
1.175514103540006156e-01
1.196789890941974549e-01
1.197937949610816677e-01
1.588003395017784647e-01
9.268443599055975479e-02
1.701573616526571298e-01
8.380927939966097140e-02
1.585989732961158027e-01
8.346353198496062054e-02
1.408383616182369014e-01
1.657189550619550256e-01
2.076274052357839073e-01
1.114376088190538738e-01
2.249019893025982486e-01
2.474577008797025357e-01
1.797062639164218045e-01
1.990924800363282621e-01
2.032244741766582319e-01
1.743750337169222564e-01
2.046619401552223216e-01
1.925740581543412544e-01
2.013605178286398956e-01
1.979037502967334605e-01
2.188148039987900528e-01
1.756534126674945961e-01
1.993779939061594009e-01
2.168458897646708128e-01
1.812258996335941452e-01
2.569028048692122979e-01
2.036144407832971015e-01
1.908055460389330160e-01
2.016912112233949228e-01
2.076867177142748822e-01
2.069248440749644202e-01
2.167019689938570748e-01
2.014551249509754782e-01
1.656925642182175140e-01
2.135761489760357179e-01
1.369149165655380029e-01
2.319862659216075929e-01
1.480241849265773180e-01
2.166786583274885603e-01
2.057435782617438869e-01
2.253763337639622666e-01
1.558975076510795976e-01
2.061418622570008186e-01
1.816952745070085362e-01
1.357330964561375697e-01
1.165758972114342984e-01
1.658704087596739041e-01
1.943159557297662876e-01
1.169591610244229557e-01
1.007825995597989022e-01
1.018614723350974305e-01
1.074807666993068678e-01
1.141642895938258517e-01
8.813873674489110244e-02
1.062664560685959991e-01
1.403756608983691700e-01
9.580453723202270178e-02
8.215740757967536501e-02
5.081492628554800522e-02
6.858560528006801826e-02
5.247806443583541425e-02
7.130759349592113994e-02
-1.809309383662097148e-03
5.639779029754301426e-02
3.463151282243587259e-03
5.339011016437476831e-02
-3.715684195185451483e-02
3.882199394725457248e-02
-6.170832453478714008e-04
2.766561905222177098e-02
7.710046714903824594e-02
3.134712532887509034e-02
-1.592830381443283150e-03
5.190725083891389868e-02
-2.810822686880369570e-02
3.961700127734972543e-02
4.531843146245342208e-02
-5.333420422172233805e-02
-2.174444217836955101e-02
-4.499965869294131338e-03
-6.891116292596664861e-03
-3.427846870388511630e-02
-1.125445257475874566e-02
-2.536689764329571467e-02
-3.824586263846188605e-02
3.402431082934956330e-02
-4.010819101796987002e-02
-7.518794599125955269e-02
-9.663506822736145363e-03
-1.447776283648114642e-02
-2.300954592771006085e-02
-4.528179853799845639e-02
-7.537892032699103351e-02
-2.381846073629778279e-02
-5.222212848895771420e-02
1.570586224509086526e-02
-3.714079733565890662e-02
-3.479009535055472419e-02
-7.215617632564859385e-02
-2.887190596793263314e-02
4.084211531298946596e-03
5.861095834531995785e-03
-4.526772493534542141e-02
-2.016031552605851429e-02
-6.636928837464045605e-02
-6.719382477448357371e-02
-5.533306714498675838e-02
-6.943613160311334909e-03
-4.636627418463182271e-02
-5.306544164175591022e-02
-4.900175479443968224e-02
-5.153627081104523999e-02
-4.762038548003291738e-04
-7.330027988834365849e-02
-5.432344593233884300e-03
2.897457140443340101e-02
2.323776510031178716e-02
-1.457542300311805844e-02
-4.132284800477545317e-03
6.749480051783168788e-02
9.817046785182297064e-03
-4.982034358447767070e-02
4.838663843153634403e-02
5.278770816106268665e-02
3.221996745892710678e-02
4.854915182604700036e-02
2.285802852498550197e-02
3.061657834881853502e-02
1.693661967126228185e-02
7.847515124283235832e-02
8.682674364258138877e-02
5.668021222226270195e-02
1.242116913370695797e-01
6.361124748915095162e-02
1.139424622514509933e-01
8.809255454830292043e-02
8.776901598188838194e-02
9.107022174609036291e-02
4.512314886939332997e-02
9.545284021152333764e-02
8.412971270555552605e-02
1.173491126478968805e-01
1.632387045482997234e-01
1.516953802374728932e-01
4.953922316957401484e-02
6.233999189301384775e-02
7.797101274835883944e-02
1.061244437673810326e-01
7.167414349882628155e-02
1.178261994610740604e-01
5.921853930814547501e-02
6.267682067641558441e-02
4.935963314561187670e-02
1.231208978811049182e-01
4.087262572162192464e-02
1.034076603383282944e-01
7.853267109539006918e-02
7.270654787565575261e-02
5.565388801694901022e-02
7.098609355397787757e-02
1.196037458579047863e-01
5.222262687777817769e-02
1.426032701742966369e-01
1.351940780589401814e-01
2.657180895224451334e-01
2.003977630125176324e-01
2.782573989414954263e-01
2.919387892243276994e-01
3.376645758872637293e-01
3.476764293205384382e-01
4.603910088085140240e-01
5.254281004065299854e-01
5.544769317701072620e-01
6.122515375661602421e-01
6.634196413240784906e-01
7.517188324659178633e-01
7.739560020199968138e-01
8.394493630759305436e-01
9.259081322271249803e-01
9.216423379425835449e-01
9.410560158479310822e-01
9.653425005031410766e-01
9.859949271518859693e-01
9.537045608683967224e-01
9.041057724110586058e-01
8.869514287601666380e-01
9.185205694718929781e-01
8.201118380951615272e-01
6.957204635978627705e-01
6.742613143559398337e-01
6.339811947859734786e-01
5.072737079917050140e-01
4.348235793183355957e-01
4.278110356069586007e-01
4.084494740181491279e-01
2.986853523407079769e-01
1.877961700785664989e-01
2.160528421453538628e-01
1.050781156419241663e-01
1.367318740466689497e-01
1.397916579088780420e-01
1.096772804515617483e-01
2.565986410633552123e-02
7.054054325349727594e-02
2.379174536886437263e-02
5.491855692738458611e-02
3.569199913623953557e-02
2.451214080867440692e-02
5.291928107664384262e-02
3.070981169307676617e-02
8.320653596581845113e-02
9.612787809490408453e-02
9.635350090836385106e-02
7.662817559624755803e-02
1.003517787899241703e-01
2.988463100528324784e-02
1.143883899878759547e-01
1.234408273869811445e-01
1.081958695929945841e-01
1.613188813265770682e-01
1.379219753204777299e-01
1.545220361758946614e-01
1.343086760128028578e-01
1.225556951004003470e-01
1.204986848479751849e-01
1.410267442689416839e-01
1.822769660027883654e-01
1.526405268322141295e-01
2.040461188236180889e-01
1.732847531012397246e-01
2.200846177852718299e-01
1.823198456781507104e-01
2.125361461620147718e-01
1.557087299730227636e-01
1.621196069451056321e-01
2.285950246516523787e-01
1.606383022069737265e-01
1.460274126213833290e-01
1.754042342146263367e-01
1.902196751298340649e-01
1.843433040411676938e-01
2.014335014205456964e-01
1.802780232939310001e-01
2.133334969753953592e-01
1.764708016747994490e-01
1.995166310234883222e-01
2.048570605875985051e-01
2.114854777433179400e-01
2.310545461612898144e-01
2.026896663272309274e-01
2.321039545385061020e-01
2.229580765810879328e-01
2.238708639633659736e-01
2.015320766078528281e-01
1.974897835211879282e-01
1.852813609323510913e-01
2.216515622061505930e-01
1.868525516629936933e-01
1.808028666811916652e-01
1.731005555087536119e-01
1.126569104949951272e-01
1.146015782018093287e-01
1.711255617209333502e-01
1.478391495140872480e-01
1.503111114452908015e-01
1.282241612518679463e-01
1.121381488258088727e-01
1.351038402738872490e-01
6.906900871156163024e-02
9.917072171059163055e-02
1.352849569619582470e-01
1.645347364166606652e-01
6.649134542879786558e-02
6.077249524355778088e-02
5.896076809937850910e-02
5.266771916430430800e-02
6.619440116058925017e-02
7.282011334700162764e-02
5.300259742430431936e-02
1.083358783001877879e-01
1.744998024164776812e-02
4.060922431134844635e-02
4.925604761236494766e-02
4.124258432086769233e-02
2.661692392799771406e-02
7.904959710379588778e-02
9.727792625266248883e-02
1.095271370870530558e-03
4.256403147811667342e-02
-8.047140452032530700e-03
-2.980321440379930104e-02
-1.637764362943480018e-02
-2.310774273604965928e-02
1.746369383686321997e-02
4.198625639388303687e-03
-5.518350565412698250e-02
9.497740010001851085e-03
3.267224846742452365e-02
1.197976712315582809e-02
1.925736811245529201e-02
-3.363099989879086982e-02
1.861141991235115700e-02
2.831761938710114501e-02
1.167527726191226745e-02
-2.444961752725952064e-02
-4.155839447923243002e-02
-4.988462526931628643e-02
-5.962353048160076718e-03
2.771696042593377318e-02
2.045025131292792231e-02
-2.963559321551680059e-02
-2.379121126455797930e-02
6.040243713871609049e-02
-3.864663894560764479e-02
-6.513066579724113847e-02
-5.536427369194144021e-04
-3.266606246536857272e-02
-4.836665703294187879e-02
8.785840146741261125e-03
-2.309205106242975120e-02
-3.685635072224423270e-02
-6.709102330951108306e-02
-3.717381467002895540e-02
-1.635988171162616744e-02
1.667991402317596517e-02
-4.140999188857399926e-02
-6.151019258693117553e-02
-4.712166926098385056e-02
-1.694861451886440357e-02
1.793117174094719518e-02
2.361936521654013632e-03
-1.523647065957535462e-02
5.734066001032812887e-02
-8.320699123153517396e-02
1.200227983562448392e-02
-1.986093108938397078e-02
-2.143767706559841085e-02
-1.408205277988225368e-03
-3.307414293958464702e-02
3.147617250105393116e-03
1.358958667127591405e-02
2.825412610018567666e-02
5.117904820996899140e-02
7.550329819227756534e-02
4.201099162987320668e-02
1.289453883276777957e-01
5.241121296651253536e-02
4.842681367927464953e-02
4.096483014482120433e-02
7.781474746492178518e-02
9.890371243816534208e-02
1.365711324486862943e-01
6.669499383766633316e-02
8.034739591368322831e-02
1.483556658211772350e-01
1.362675351659628498e-01
1.511327618808728235e-01
1.490877956572307095e-01
1.770028969244501205e-01
1.183306158555183923e-01
1.104985815378161512e-01
6.946162400273485360e-02
1.362304679363181281e-01
1.363045941932247707e-01
1.381668262149789439e-01
1.435386768377697186e-01
1.379633344094691183e-01
1.135689573288187204e-01
1.114939915523033287e-01
1.143525769423430760e-01
7.870114717799987780e-02
1.644038809004995660e-01
1.459741413283959788e-01
8.806092266083676012e-02
1.068139626494220007e-01
1.265089377335411880e-01
6.973599679316094813e-02
9.962780724715537828e-02
9.838665763289819455e-02
1.532174404226758768e-01
1.227906451583229697e-01
1.819910144909326344e-01
2.275980896065011028e-01
2.080928562938166859e-01
2.339465385018920096e-01
2.479110806998547911e-01
3.335163411299644221e-01
4.008273465117744294e-01
4.756142270025669472e-01
5.196194023215016111e-01
5.848805088528714613e-01
6.589897306687583223e-01
6.926932352417755068e-01
7.735106072170683245e-01
8.103681439674703668e-01
8.780815660267197176e-01
9.177248741012180577e-01
9.280323304588634636e-01
9.657545550646279287e-01
1.049280813183677941e+00
9.851785582497381011e-01
9.169748258563870102e-01
9.390974696557430335e-01
9.541468829078497693e-01
8.440029161030490057e-01
7.926718468916960081e-01
8.042384215875948428e-01
7.115336789953808916e-01
6.861980262763340832e-01
5.207173836004839185e-01
5.422234948115496334e-01
4.629028984421773019e-01
4.147247833077946644e-01
3.147323384738300311e-01
2.738777575071419945e-01
1.678792411567309184e-01
2.872037369311664090e-01
1.820032202200918547e-01
1.433597106274694388e-01
1.274073939380200304e-01
1.590576747326287177e-01
1.762071439978948051e-01
1.203173468602747737e-01
1.162837989593207555e-01
5.442917764495583399e-02
1.124425442665244607e-01
1.082273385641943086e-01
1.163599088001700949e-01
1.196110688539269717e-01
1.625276338326903658e-01
9.541077850912241254e-02
1.374421246394045004e-01
1.589091271545276518e-01
1.738880129483779680e-01
1.129609939951274622e-01
1.563749817538195586e-01
1.580621874181068476e-01
1.232227670249525092e-01
1.335001227664309453e-01
1.692752001695335684e-01
1.888134342813750921e-01
1.264479720712303190e-01
1.790751760886909183e-01
2.005735375074076399e-01
1.509489624420703446e-01
1.697700294389998255e-01
2.345628158563924370e-01
2.202569434498599377e-01
2.231495326715825789e-01
1.882446560952441839e-01
1.805114198157750927e-01
1.918062791143097801e-01
2.493068874970250925e-01
2.032618934614434381e-01
1.971025780440092967e-01
2.650607120751461987e-01
2.336945134976694260e-01
2.621769602079216388e-01
2.147003585605251064e-01
2.345796555140783890e-01
2.380722309258390679e-01
2.627589506299427002e-01
3.232708795959683967e-01
2.428129619992673571e-01
2.432241877510776529e-01
1.991752151571034857e-01
2.434637986408743626e-01
2.422844440928083876e-01
2.501222117031141057e-01
2.594918697357895265e-01
2.488439977320548169e-01
2.411460299512223626e-01
1.995630269612836127e-01
2.571820654834119368e-01
2.468077832033066521e-01
2.310493330647023502e-01
2.454397831389701357e-01
2.471087764093561345e-01
1.790527306638622640e-01
2.042225282012213594e-01
2.093565684986047615e-01
1.780952653717679801e-01
1.833191621829621532e-01
1.840940648227939458e-01
1.397459784405277183e-01
1.693370452536039905e-01
2.189860145527790236e-01
1.813852535420463763e-01
1.637874402328610701e-01
1.429749178022747536e-01
8.039821230012172970e-02
1.427463906784298131e-01
1.149340470785858020e-01
9.782822300533340620e-02
1.124932667034315020e-01
1.930576219804157334e-01
1.073559220717421325e-01
1.083030335612240741e-01
9.664151028477455108e-02
1.070495550457624540e-01
2.754295867569479805e-02
8.263954120017166782e-02
7.013762293737919873e-02
9.602048297219085982e-02
1.002764413293446705e-01
1.186753527150105486e-01
8.674882954352892972e-02
8.984780971097312829e-02
7.015226913580441259e-02
6.051653652820219303e-02
4.977725430823443098e-02
8.931014200055738261e-02
7.374007549036112885e-02
4.081070637270937940e-02
7.482624008685598294e-02
3.468706264172021630e-02
-1.314598495798189291e-02
4.562579192883346735e-02
8.224667246000556819e-02
2.814367137177498090e-02
-1.999691407112625524e-02
-2.047204120051194370e-02
4.293735724797576730e-02
1.171414591398568794e-01
3.739527621869295770e-02
2.582491879974541105e-02
3.110181476711149778e-02
5.497564973997170340e-02
1.776009870595365164e-03
5.363703828052847344e-02
-1.383797198120211361e-02
4.663286217815263562e-02
-4.001152884245293140e-02
3.606586337984176577e-02
-2.100795964421802581e-02
3.747991595259415887e-02
5.943560097867318925e-03
-1.406092982261419877e-02
6.131811158774115589e-02
1.435503354555696214e-02
2.395068848997868038e-02
2.642405310462749360e-02
6.949647188523272456e-02
1.374787497174297796e-02
9.808949297969966896e-02
3.342075746812259163e-02
3.722816271730024912e-02
3.248741085394922512e-02
4.514094906197677060e-02
2.889330944909266133e-02
5.280274453391075457e-02
6.201287380480785538e-02
8.984696760543453564e-02
9.357722861445290363e-02
-7.148524122973960726e-04
4.237831414940557151e-02
8.410786396543853960e-02
6.937856939678055390e-02
1.117508291454392677e-01
7.522103970786248039e-02
1.239272256990538168e-01
9.943177592256770281e-02
9.340875866087650081e-02
1.154040246485534826e-01
8.475482978262761924e-02
1.417969946550154126e-01
1.612549932845767087e-01
1.620231891055514128e-01
1.477911678945201257e-01
1.160706046061032032e-01
1.843877114099442549e-01
1.286959206618389362e-01
1.613480539508415357e-01
1.277283169758459958e-01
7.797798887910434296e-02
1.490352327409429356e-01
1.445545600632701655e-01
2.040515612603053530e-01
2.175031196803666744e-01
1.885396479392475733e-01
1.409001013840441296e-01
1.780676822590820385e-01
1.737327087123036184e-01
1.742316731017772014e-01
1.602680097782663293e-01
1.567570702360788770e-01
1.422798799817934778e-01
1.779025755956661070e-01
1.611185165441799128e-01
1.313843620076391439e-01
1.609348379017314090e-01
1.808539326458900587e-01
1.463623458588629300e-01
2.242966870705979665e-01
2.126174171318124251e-01
1.973092129735838918e-01
1.775034939454367133e-01
1.389774739462119602e-01
2.334584728085810079e-01
2.355561820486265501e-01
2.427927015274198852e-01
2.693941827340171624e-01
2.638306358768613968e-01
3.235101267221359711e-01
3.376270092298860326e-01
4.024373127161602892e-01
4.635407588648343125e-01
5.684961835498444360e-01
6.438977784730848253e-01
6.579858776941261977e-01
7.071641516277734629e-01
8.296995358465928394e-01
8.765855523886596501e-01
9.637467856686444678e-01
9.816179549151214934e-01
9.918741624273712532e-01
1.024679243435525855e+00
1.022724834745841527e+00
1.014729245307304462e+00
1.069896957638131862e+00
1.042176124985071839e+00
1.032543527860090737e+00
9.758402680540892993e-01
9.247565561871657902e-01
8.088260506898917734e-01
8.198379190980891185e-01
7.329354854258065544e-01
6.479377061209289357e-01
5.623867135713869203e-01
5.678794589399642767e-01
5.078658076099339391e-01
3.776209653968960467e-01
3.497832384582911791e-01
3.058973503086768742e-01
3.082608556071314565e-01
2.920455473490262688e-01
2.145301133121579884e-01
2.361820228319488901e-01
1.588752953732017470e-01
1.950373484268530799e-01
1.070358230741354361e-01
1.369439542479651273e-01
1.221376877830785690e-01
1.467416876007112680e-01
1.231226821279917810e-01
1.229848071806481091e-01
1.543987840973350401e-01
1.537649944645138600e-01
1.962695174906094742e-01
1.638872625043337750e-01
1.323201661005580509e-01
1.897876861463959619e-01
2.182898972881859023e-01
2.287239679443211493e-01
1.829463988620874948e-01
1.347721715532034237e-01
1.607452839099673125e-01
1.919654222405537958e-01
2.377685898689815280e-01
2.292746394831710610e-01
2.556577262584429633e-01
1.862844035464912840e-01
1.852180251254810228e-01
2.426436281752966939e-01
2.572987352003584527e-01
2.300749006934940388e-01
2.844362697390482864e-01
2.157046047069123840e-01
2.742758840641126294e-01
2.697686004266043880e-01
2.222489757654024789e-01
2.792688561947089254e-01
2.776413561056825241e-01
2.627160032190339334e-01
3.054370252290468102e-01
2.728114789945690344e-01
2.599829533571485496e-01
2.751935022484130466e-01
3.418170395033053310e-01
3.127467950941107966e-01
3.235277340634987175e-01
2.832008996917010912e-01
3.229922398248497029e-01
2.774004723406934270e-01
2.551159486715706137e-01
2.787397538707261924e-01
2.964308014231742394e-01
2.889037623550005929e-01
2.487854483928885196e-01
3.250454905603786804e-01
3.101367336302572886e-01
2.484902959747964379e-01
2.347423097672957926e-01
2.626399986250728125e-01
3.282972686262854989e-01
2.934023256184975503e-01
2.662081902819590229e-01
2.649874063881201280e-01
2.869159281628415048e-01
2.822619563050792202e-01
2.288545618831386019e-01
2.034057931084841397e-01
2.171343803756497215e-01
2.257624354506672648e-01
2.314652791824911848e-01
2.166243245019664199e-01
1.949493560254200453e-01
2.173355067670859064e-01
2.039822678240246490e-01
2.089304169535833033e-01
1.818593835964140704e-01
1.755168639125224694e-01
1.994819070504613157e-01
1.708477630515213286e-01
1.792380178678900926e-01
1.556265056072388964e-01
1.535491501856974805e-01
1.242217732375248962e-01
1.123089465207623983e-01
1.283643077626451245e-01
1.347870058989855679e-01
1.188503484541972022e-01
1.331963817910896408e-01
8.383112696104719208e-02
6.015366197414459548e-02
9.787800489311210272e-02
1.028656096287334093e-01
8.090492356803385965e-02
8.327937845993417521e-02
5.961476612158486676e-02
8.261347828960473316e-02
7.670298746664908074e-02
1.177054023742564737e-01
1.009981750792978694e-01
9.202146530331653529e-02
8.854140097280735477e-02
9.905363415048183684e-02
8.752969249533068541e-02
9.464050918809163715e-02
1.113072709597792698e-02
7.717962393149889466e-02
3.702882490598669724e-02
2.864300664294499102e-02
6.418714368714896479e-02
3.849596657636606550e-02
4.273344703776515291e-02
6.741502738266623440e-02
6.316583624179430978e-02
5.750047358531536201e-02
4.257524684362284234e-02
7.092667487030976381e-02
1.022471335899696049e-01
2.928122934071698130e-02
3.753153048147120363e-02
1.058449488451869702e-01
6.823784620848612203e-02
3.665734271738316924e-02
4.001769865495696799e-02
7.388052019193398767e-02
1.146535183921300882e-01
9.692017136890929141e-02
5.284835656117486957e-02
-4.248207520187535779e-03
3.030515064184356039e-02
5.318625767658045206e-02
5.665925463799916656e-02
8.267533690213946240e-02
3.903761589854141262e-02
6.254283539690334848e-02
7.490839775048956095e-02
1.150788110818336263e-01
5.816588056029186465e-02
1.095206604989681087e-01
7.612757776919512609e-02
2.455066200036012947e-02
1.382369910080178954e-01
8.478888977337484256e-02
1.863083839161746857e-01
1.114291039552286755e-01
7.297679279034659239e-02
1.530304111109603016e-01
1.170266730773650843e-01
1.350605140582118446e-01
1.302622875039276540e-01
1.760246033932847953e-01
1.245382333117903140e-01
2.025100020618051944e-01
1.446552696133396321e-01
1.489125413415383070e-01
1.488617388209139414e-01
1.618712535118150553e-01
1.565717813067775688e-01
1.896861757306647356e-01
2.169041153348286455e-01
1.866682633145352321e-01
2.090331611825953506e-01
1.883413985040504057e-01
1.815369299762616684e-01
2.282138829073432906e-01
2.046561258536856165e-01
2.011085734843016948e-01
1.582765435641704799e-01
2.246819949083420642e-01
1.785599912356378716e-01
1.757989338502278787e-01
1.825916077726845721e-01
2.063967240270097037e-01
1.748104366746940364e-01
1.926690017718690195e-01
1.895447772429139088e-01
1.877314354806822183e-01
2.022145033654728918e-01
1.610803048316407637e-01
1.852009907396630628e-01
2.106419067187674243e-01
1.230955203650210411e-01
2.607682505178956500e-01
2.535080459181209833e-01
1.995402688009269287e-01
2.991852853287705893e-01
2.488026090050677042e-01
2.806703116080934146e-01
4.062840914917974500e-01
4.253127524691779904e-01
4.760152064078346790e-01
4.989111067930533383e-01
6.025210827095770494e-01
6.556596090952413469e-01
6.768716215541974446e-01
7.741180883609587449e-01
9.480833494099438763e-01
8.916755039213932754e-01
9.759494360304405980e-01
1.010480355723170520e+00
1.058326352988048447e+00
1.094737190908136260e+00
1.086017286255188896e+00
1.048019385041827789e+00
1.037131169243415751e+00
1.048458528505724185e+00
9.574981902480091955e-01
9.387754776205380347e-01
8.990990371546526694e-01
8.191773319820898624e-01
7.550829155399157999e-01
6.921135286227144690e-01
5.995690648249982768e-01
5.095757835731534735e-01
4.858579713855045168e-01
4.328618581816858768e-01
4.294784848507710029e-01
3.181381452641077190e-01
3.158434211873454300e-01
2.946984183880938524e-01
2.074058262076548531e-01
2.251521219587220290e-01
1.703081922569308626e-01
1.807140268921271220e-01
1.761632134968551255e-01
1.870982588389447643e-01
1.020274718978458200e-01
1.428355843813176596e-01
1.668160640848598275e-01
1.488946392365335381e-01
1.346697044459414239e-01
1.193971157581172615e-01
2.135269046826461792e-01
2.141596884672573864e-01
1.424495806362586214e-01
1.997406137978663954e-01
1.854990699431569023e-01
2.120735901608516161e-01
1.817663827271023269e-01
1.852704687070559908e-01
1.766131869467325588e-01
2.475208129696773729e-01
1.535118878627295125e-01
2.083915803902164354e-01
2.358666990204886238e-01
2.470695628551245748e-01
2.423969691380412628e-01
2.023887573712030430e-01
2.778233201082889181e-01
2.944840220433450062e-01
1.862059077516557415e-01
2.020246182796870404e-01
2.425823482270863807e-01
2.608831414646105018e-01
2.678549283101284151e-01
2.871444192321724875e-01
2.600343315935965127e-01
3.536955657819809695e-01
3.338432871461072815e-01
2.764564149447692465e-01
3.142908429968432893e-01
3.347789375962096914e-01
3.074485617192774245e-01
2.829147727900859222e-01
2.577603470210025338e-01
2.695011425142683770e-01
2.165506709788913020e-01
2.899293454367168343e-01
3.381728756120651602e-01
3.255627484214992373e-01
2.073180301404352888e-01
2.337920238464051836e-01
2.501519619892496049e-01
2.728593778682891768e-01
2.087046263131839274e-01
2.981869890332933815e-01
2.519177814913933777e-01
2.502178318307159977e-01
2.593132178580919711e-01
2.367191197503918931e-01
2.054697151163960012e-01
2.451514072387686038e-01
2.010509356215553489e-01
2.843850349109983133e-01
2.287404566044295984e-01
2.431627080070720426e-01
2.546309358056421668e-01
1.971456171071914176e-01
1.986954001394222458e-01
2.335655981429748673e-01
2.309853942128751725e-01
1.414557486337461589e-01
2.398246275963557828e-01
1.526410154632805716e-01
2.033769398283690744e-01
2.003827016861365884e-01
1.567594684206726208e-01
1.613736467099807781e-01
1.248963242800584794e-01
1.289971614592619331e-01
1.352790553099007809e-01
9.779118984412915605e-02
1.542790451538419982e-01
9.096450490128932254e-02
1.465486573182835373e-01
1.589290077504126042e-01
1.348076449875657556e-01
1.683220779344833662e-01
4.578913211453005533e-02
9.397449254992648604e-02
8.035883895573150970e-02
1.292933857867095970e-01
1.010206113261940541e-01
9.706374798774664026e-02
1.168335911835542695e-01
7.679772393650377560e-02
7.456796561397194267e-02
1.028428863807227256e-01
9.439550306685680348e-02
4.217083735433088676e-02
5.816197804364985069e-02
8.489295914405686760e-02
6.401682791923013482e-02
7.901218369286905352e-02
8.451552812340794307e-02
4.732633263583311406e-02
4.499553461963016338e-02
7.891637323405240045e-02
2.958851716509760393e-02
2.112451302486312993e-02
6.215075917077679535e-02
1.452491839422047695e-02
7.253222867316057310e-02
2.530539663475566206e-02
9.290608554242506256e-02
4.287849735170309873e-02
4.591046121062636320e-02
5.976115680080808235e-02
3.613359615614959719e-02
2.858542688479171964e-02
7.032114574975538435e-02
-1.852304207322190421e-02
3.096357977735141737e-02
2.155778356713055482e-02
5.238317683546584586e-02
5.794466003942434773e-02
6.022450192535093449e-02
6.762865733109249544e-02
5.535886172077070233e-02
8.487230549613790365e-02
7.563738677486600559e-02
3.355693945469230555e-02
7.434931969798462548e-02
5.138004577255031458e-02
7.387193015378989980e-02
1.077137517925761540e-01
8.749806077612483357e-02
8.288293352514945755e-02
1.092843853173599972e-01
9.664258809508714798e-02
5.372419395736122150e-02
5.100798474706727537e-02
1.068981148117423424e-01
1.166167908987354590e-01
6.058427433332438938e-02
9.871883679266782452e-02
8.051973297310557887e-02
7.079960218259435945e-02
1.721040680743992357e-01
1.077806289369378362e-01
1.201570017350537534e-01
1.336590039400777641e-01
1.458287576310441369e-01
1.649225247870334532e-01
1.536819642603270142e-01
1.742908507049721334e-01
2.094580597265410238e-01
2.133958542992177021e-01
1.294269033958715398e-01
2.155013694885690168e-01
1.732985597342879547e-01
1.396181081290947812e-01
9.880252376207074305e-02
1.585251302360961012e-01
1.463511367503911309e-01
2.598187567382227448e-01
1.838576359879918187e-01
1.571433032090649162e-01
2.377879294501242247e-01
1.756628424181585491e-01
1.842872046874802217e-01
1.620217886750204006e-01
2.129021688299998771e-01
1.418368231929293122e-01
1.881093250883906220e-01
1.373187150870164019e-01
1.306525402510735900e-01
1.660262904327289291e-01
1.859698593886043860e-01
1.496809291782265072e-01
1.965020045945224669e-01
1.937497560390240015e-01
2.247010146838985256e-01
2.220693827560114575e-01
2.194121635090658662e-01
2.750576159127705034e-01
3.688661570012796709e-01
3.409393579676067709e-01
4.778330576106250560e-01
5.478110404892917451e-01
5.334050829774465985e-01
6.578304313480329846e-01
6.965450208434517121e-01
7.558970118643387748e-01
7.416185248173703393e-01
9.132428891381764169e-01
8.963838455224871771e-01
9.455247351805696754e-01
1.009786636855965147e+00
1.009766725118473651e+00
1.054161592162683014e+00
1.073257465958496137e+00
1.012256355680578146e+00
1.010051811084362150e+00
9.407468063189590168e-01
8.981110448121455425e-01
8.972236208776759314e-01
7.779406586361078402e-01
7.050628448265573445e-01
6.613916383204991867e-01
6.350779649051475628e-01
5.144512345631063743e-01
4.672817632054717119e-01
4.319451020389425411e-01
4.038058372716287758e-01
3.280116754338938678e-01
2.298870471624868961e-01
2.513565687831270656e-01
2.695918916317932568e-01
1.824196863076975039e-01
1.839168303091186230e-01
2.051452541357089154e-01
1.493539671134108682e-01
9.746285288629465138e-02
1.112406731955495887e-01
1.236079721066565412e-01
8.399476398807338706e-02
1.055308607249227509e-01
1.064383661293659827e-01
1.110570865598148604e-01
9.980443158555221683e-02
1.158633238739968374e-01
5.557991032426611716e-02
1.558517477519974770e-01
1.208717958349887905e-01
1.576950645527695483e-01
1.424804461981611370e-01
1.448289089774602301e-01
1.515484084300757206e-01
1.634564052822979618e-01
1.519124763249528332e-01
1.865311676820422815e-01
1.987412927661345308e-01
2.433304350677260863e-01
1.888351111163842355e-01
1.873756247164731492e-01
1.924085578802395835e-01
2.172505049276281797e-01
1.916029079399966528e-01
1.489140131199554462e-01
2.119616827705904649e-01
2.204539353146262870e-01
1.952882722063661314e-01
2.209649784783187243e-01
1.486181929598350548e-01
2.222146076546541449e-01
2.957601249837781276e-01
2.548067167136043865e-01
2.210608370499766717e-01
2.386817267455072222e-01
2.546252919509455204e-01
2.201860845240875553e-01
2.350789988624428783e-01
2.425599277063201498e-01
1.809157682032345726e-01
2.624460523238279497e-01
2.118490796000548348e-01
2.335433049299100450e-01
2.905152079378444663e-01
2.190225676891177087e-01
1.863898005417479742e-01
2.130549869702798027e-01
2.486858625118488209e-01
2.301266598240491734e-01
2.385267540471348036e-01
2.632521209066458479e-01
1.783554926231458171e-01
2.603001547317450592e-01
2.225666320769343898e-01
2.312767613060084382e-01
2.156211626195269071e-01
1.819393724487700925e-01
2.153168710357253324e-01
2.064749138506549175e-01
2.047688158999861063e-01
5.414701526322561465e-02
1.041044415007724572e-01
1.769958813268878717e-01
1.410291711440652129e-01
1.490495025598383705e-01
1.211555918087151018e-01
1.186661528231141849e-01
1.296816189458699642e-01
9.482541883291191465e-02
1.433871455821981999e-01
9.232103713487542496e-02
7.572738341663746986e-02
1.334131061820466868e-01
1.124425589510737039e-01
9.467647104052946683e-02
8.484033777507316021e-02
6.851346743929512262e-02
7.858341811610779215e-02
4.682079222383542932e-02
3.724282259820676372e-02
7.015457431784305475e-02
4.096241684011900364e-02
5.391588838446351867e-02
2.769786243979592555e-02
1.559289347498336517e-02
8.518185531702953533e-03
1.115957389587144202e-02
4.325405458997743507e-03
6.241861657744597613e-02
-2.778358559271158421e-02
8.317785033040996090e-02
4.385898420380882068e-03
-5.428715169953232667e-03
8.305480086104880671e-03
-4.842773716861749345e-02
2.834267792669293434e-02
2.910988704130533511e-02
2.129321371932480639e-02
5.296090538411135640e-02
1.509346256741312189e-02
3.846982706657588874e-03
-2.359838485036412983e-02
-2.671802539569306106e-02
-2.439353571064595966e-02
3.404822482935335876e-03
5.344705905584133665e-04
-4.294411244052197957e-02
-2.943848053958070948e-02
1.369329253772930827e-02
-5.414686560748938060e-02
5.619890874831159899e-02
-2.684408398948956442e-03
-4.214153932943741354e-02
-3.327981153820290527e-03
-2.712290649477165638e-02
5.545241708282824117e-03
-3.138351604076477369e-02
-5.985173680330244106e-02
-3.371581812325448457e-02
-1.028216243655295965e-02
-5.357361047217130967e-03
7.103347936391474216e-05
2.839716867538518222e-02
1.006943531808998996e-02
1.059944206288395557e-02
-1.035660155838221547e-02
5.316645220104082581e-03
4.243374997685610273e-02
9.424723226639633578e-02
4.610589812715719382e-03
4.094863277311545924e-02
2.887053434710162153e-02
3.755137037341095552e-02
9.229607217631732863e-03
2.699874507460878204e-02
3.791317603890400484e-02
7.661607563118399966e-02
5.295306825627874026e-02
6.224077563122458467e-02
8.274031939567591531e-02
3.972779696447567566e-02
3.598516799796179499e-02
6.712379053404891882e-02
6.507637969548976664e-02
5.800205538015833218e-02
8.835827990967637380e-02
9.133927170986462507e-02
7.794558325249166530e-02
6.489696833484279170e-02
1.341561353570434323e-01
1.254466851524074222e-01
1.258410236363927126e-01
1.052381307440185820e-01
1.226508620364089724e-01
1.210870595442171405e-01
1.407503208548376294e-01
1.683969891271742958e-01
1.244210170110741365e-01
1.441827217095039693e-01
1.059167535842052699e-01
9.185858783665404315e-02
1.064227270378471368e-01
1.805998223733620844e-01
6.810886953722686266e-02
8.696308543263567281e-02
1.294191837300159853e-01
1.047021438593738196e-01
1.084454029413138287e-01
1.385707322440939415e-01
1.082757564105094050e-01
-2.390383341933713379e-03
6.958048541457881320e-02
1.221655135374543483e-01
1.242568332662328245e-01
1.097631723036133489e-01
1.901256091900248857e-01
1.361537209539900595e-01
2.017021573017305780e-01
2.600257995329731675e-01
2.882504381277836147e-01
2.889272873004164466e-01
4.025675000328311492e-01
4.397589480191335665e-01
4.522477433055309692e-01
5.481723718648111587e-01
6.201576329763931472e-01
6.390984513778106280e-01
7.442354051332861209e-01
7.735462169440130431e-01
8.683671781491191233e-01
8.744051950188724831e-01
9.607996066525872347e-01
9.689934170189760110e-01
1.005619060694649125e+00
9.648751560741404276e-01
1.054145388590247201e+00
9.022897930038806802e-01
8.969422118334360317e-01
8.594138257204033682e-01
8.359630654150832507e-01
7.678102069747828606e-01
6.966059849932823012e-01
5.982210848843384499e-01
6.024548605904687104e-01
5.078309020871624169e-01
4.262428060364851223e-01
3.828656444273434989e-01
3.417858635775924969e-01
2.642270651931011294e-01
2.863729640908939666e-01
1.386667393734982989e-01
1.951799130773951563e-01
1.680125465386712313e-01
1.116490167345079720e-01
1.042008704310851963e-01
3.777056452721057334e-02
7.102586352236930911e-02
5.888839934719631436e-02
9.938202405539592332e-02
5.015080693954125646e-02
4.221770575145257498e-03
9.491119928835087260e-02
4.001157798417699640e-02
5.210527610278462007e-02
3.660637502668597637e-02
8.436693051538407540e-02
5.914938539942922457e-02
7.779137866860506845e-02
1.091995207929362388e-01
1.419831123584885946e-01
1.033803489729312186e-01
8.790415757318398304e-02
9.046748920257201287e-02
1.211067448163706817e-01
1.550911397093188149e-01
1.145341692435652287e-01
1.473411408162035030e-01
1.955012571312248482e-01
2.177348863198348972e-01
1.106572770423066565e-01
1.768524557136979258e-01
1.390501899870377756e-01
1.888183450923742457e-01
1.436101864562511210e-01
2.188193982319953934e-01
1.972334308632406608e-01
2.050690965413451694e-01
1.842606483540897289e-01
1.493475724182235231e-01
1.757696922563597441e-01
1.233825080641610394e-01
1.883221676655284504e-01
1.931651342484755618e-01
2.178903253750131830e-01
2.228201495883739003e-01
1.283813483422341917e-01
2.074839048458526625e-01
2.000297739279140175e-01
1.933734962687488623e-01
2.014194765887566962e-01
1.689454620045452715e-01
1.970270366279263663e-01
2.584936141588574099e-01
1.859817159215057525e-01
1.740533082654220909e-01
1.522137172869202637e-01
2.194847841190261939e-01
1.421752904848310461e-01
1.939627699653292681e-01
1.795438106554481383e-01
1.346227873552016119e-01
1.401170363588832013e-01
1.694113178253361385e-01
1.895699473844740524e-01
1.749363110736400773e-01
1.313221409493385838e-01
1.867484662334709944e-01
9.457910955803697228e-02
8.997619591203687150e-02
1.391346364200999330e-01
1.404438331598699685e-01
1.027203757357061931e-01
1.081989165855405666e-01
8.925537839612543434e-02
7.720597655419250693e-02
7.259455912892952278e-02
8.973842310142962631e-02
4.965648873023493365e-02
5.127809172442062552e-02
1.321838835079414409e-01
8.164385238016089175e-02
7.979004850221710354e-02
2.646584701591182809e-02
8.532357210576277384e-02
1.926882176898748328e-02
5.082063417629961721e-02
4.504356780020320195e-02
1.083958735071983287e-02
3.593246973368498243e-03
-9.139336900923118734e-03
-5.048759090975844799e-03
-2.456423642460097562e-02
-1.446372757280562499e-02
-3.003162304043126285e-02
1.858658007921718675e-02
7.206599527494902957e-03
-2.313642248734181991e-02
-3.612643453156842710e-02
1.206758145109629310e-02
5.418131857652948302e-03
-2.735586511630319628e-03
-4.755288358703484153e-02
-1.703052746598628792e-02
-4.312649092459602818e-02
2.443611956508619926e-02
-1.795659629923616191e-02
-6.369748638798639062e-02
1.160676043316311717e-02
-6.447681127729376627e-02
-3.806190698508887804e-02
-2.351390309861934105e-02
-4.622878634316589935e-02
-7.882758165672928974e-02
-1.150014542820251146e-02
-4.252975785134111009e-02
-4.163686993093718147e-03
-1.254358756671755670e-02
-3.414263354679974299e-02
-2.047499286343809274e-02
-1.963135788449709568e-02
-1.858540153095968039e-02
-5.800762166191588548e-02
-7.439897324883205931e-02
2.192661326852569231e-02
-7.338899036273507925e-02
-3.430547648490121782e-02
-5.188834086985016220e-02
-7.923235622507135423e-02
-8.732482793763929330e-02
-7.547833009078183664e-02
-3.833367467073561796e-02
-4.158311778673581816e-03
-2.768129251994127724e-02
-6.664041421011610011e-02
-5.327948209902338972e-02
-5.246934285765079975e-03
-1.474910713141383556e-02
-7.440855497844553468e-03
5.444357397820835665e-03
2.909825361028460511e-02
7.297310268112924825e-02
2.376055385648286750e-02
7.503251921198086927e-02
3.359982940925360789e-02
-1.364985796766170906e-02
4.313139399315955858e-02
4.908356815836650844e-02
1.131970608988257521e-01
2.760777921848034389e-05
-1.378539120073227209e-02
4.069265469356066200e-02
7.917775542800351007e-02
9.785720439514111746e-02
4.958441485605824539e-02
4.440727017523590781e-02
7.725370673989490067e-02
8.422364629467797570e-02
8.719336843142899696e-02
3.613313568066454234e-02
7.167754203240656041e-02
1.306859776789684180e-01
1.164221341657206005e-01
1.119501134266105424e-01
1.079357621212356233e-01
7.532097906868487347e-02
6.791404969918293788e-02
6.617378661648321003e-02
5.227986110546016529e-02
8.675860390629605567e-02
1.160719652740575675e-01
1.320906866800520274e-01
8.212328164086804549e-02
8.211784969466678907e-02
6.005617691328218183e-02
1.142353331065906197e-01
1.037303226981129145e-01
5.098999269676987578e-02
5.439493277953437456e-02
1.166117646328082569e-01
1.131475045487752712e-01
7.900306266455876802e-02
6.716657013720339631e-02
1.447271822164805377e-01
1.220775963552774707e-01
1.377569923471680668e-01
1.957635613659825524e-01
2.029848391479525949e-01
2.611353626644443149e-01
2.801898424791908759e-01
3.526249958281509889e-01
3.639250316616430836e-01
4.579256933552824371e-01
4.868538752637835976e-01
5.768836663915972718e-01
6.693635692691246586e-01
7.188691096348308607e-01
7.388779239319871461e-01
8.052847325716960825e-01
8.121479664605730786e-01
8.945249057156638983e-01
9.656352164428126938e-01
9.789811610967417144e-01
9.922180344593205525e-01
8.784293786962297235e-01
9.715170763551068678e-01
9.235082005130557103e-01
9.239211978111587786e-01
8.505213787708505446e-01
7.441375002221992663e-01
7.237781864460506309e-01
6.974370591376446438e-01
6.037130802028924936e-01
4.866050075778361461e-01
4.641364195676219717e-01
4.331072630165155868e-01
3.333017133533598964e-01
2.577462764694031239e-01
2.690333483178346530e-01
2.206077155330831152e-01
1.660307491113197920e-01
1.068351368049179906e-01
7.532924517642912432e-02
1.405842928832436722e-01
7.704951176717120265e-02
6.184957876920347403e-02
1.300778753679865674e-01
6.419878449645957663e-02
7.507742890935256708e-02
4.604322531963418036e-02
4.591602640660030071e-02
8.997733653146011701e-02
1.065026363203894766e-01
8.756466576500625265e-02
7.310819934960668953e-02
1.181543892854029221e-01
1.001505332500127465e-01
7.081815197337523737e-02
9.107938122321426744e-02
7.522162099172849392e-02
8.795933704167510636e-02
1.099715324597963506e-01
1.540665830924904389e-01
1.367412077495413492e-01
1.393690467254735110e-01
1.247493109280597423e-01
1.166770431958190080e-01
1.053250276992516860e-01
1.426916108458798071e-01
1.025018555980703738e-01
1.345240834154624865e-01
1.430598306731684366e-01
1.301239152526976750e-01
2.611232863293008744e-01
1.383524171079511256e-01
2.315123636280009833e-01
1.949070494179248325e-01
2.053187564439079849e-01
2.283567523403410848e-01
1.923741070835351952e-01
2.706128903681475073e-01
1.877773943431269299e-01
2.113383537669902557e-01
2.368964986634028436e-01
2.124582006483678176e-01
2.226893582423245255e-01
2.376076042511197361e-01
2.106418502366850520e-01
2.277491834476654819e-01
1.865558535721897893e-01
1.969139063540366330e-01
1.961488013309928835e-01
2.958320833216940282e-01
1.804090003008227416e-01
2.288646869033778286e-01
2.146917077661064654e-01
1.881855712938402814e-01
2.442573428126322832e-01
2.227839374190151156e-01
2.020761239843605894e-01
1.779627221136912407e-01
1.153903344696815131e-01
1.762961579914507637e-01
1.585931457890547014e-01
1.684418563965010551e-01
1.647512713625718661e-01
1.656600732291647893e-01
1.307800399167443339e-01
1.165734440345343736e-01
1.043595393365282648e-01
1.378418877179845570e-01
1.595410256979484520e-01
1.166142146544688896e-01
1.280806453045927051e-01
1.374830054618562669e-01
1.158424593861848428e-01
7.612215923935054807e-02
1.204495978176302329e-01
9.506727332430302269e-02
5.863280197827714507e-02
-1.148467270182085276e-03
6.983384776738127409e-02
5.483614344614323732e-02
5.834464158227282982e-02
5.126373202657098782e-02
6.617693147822073518e-02
3.772052659027457649e-02
7.259744354922761933e-02
4.895940223327953367e-02
4.617181254685322200e-02
6.146445600894456796e-02
4.099073552335220916e-03
7.517578106156339035e-02
4.931779268121530557e-02
-1.596527516845488645e-02
5.076006849644119912e-02
1.709814611140245480e-02
-1.821522143341947758e-02
2.252396662968652111e-02
1.293300162403810544e-02
-1.036065093739197557e-02
-3.412202572529761391e-02
7.285356040016136014e-03
3.863132099381966222e-03
-2.860118341112005344e-02
-2.768716566877832061e-02
8.303890542288406423e-03
1.807257541667620787e-02
-2.266725833618634181e-02
2.830708232434229338e-03
-1.138377084550211762e-02
-3.695014857092009108e-02
-1.601185987206234923e-02
-2.030198142425372262e-02
1.419740890209361325e-02
1.558367561988832292e-02
-2.746966125789412211e-02
4.986839754069551101e-02
-7.091010691624287376e-02
1.579192023697234548e-02
3.954345477640543172e-02
-4.149289154881567743e-02
-2.376150942375883368e-02
-8.915788733902670071e-02
-1.621988061635055989e-03
-1.126758086463919457e-02
7.393713532441521796e-02
1.761733545565210071e-02
-2.556054018450249973e-02
-6.209005014059127206e-03
-3.995401354242928554e-02
-2.382744423559052596e-02
2.901503106943459712e-02
3.866979824937677446e-02
-2.295692150955003924e-03
4.094298053517933522e-02
6.489467779120888791e-02
5.673781460627999595e-02
1.008079070753384182e-01
6.057870369424409041e-02
5.976188341522816611e-02
5.023441569263730616e-02
5.069963681471906236e-02
4.509729517452563952e-02
7.544210241370660763e-02
5.694050331797006342e-02
1.724242181615563974e-01
8.651289390368371857e-02
5.516059062786003719e-02
9.915454518173077991e-02
6.332244436887357608e-02
1.287729814402365780e-01
1.276244085653192584e-01
1.309692309554221223e-01
9.149775753471953155e-02
8.646061734119933617e-02
1.626555398652560214e-01
1.434545302557658497e-01
1.203717971299352041e-01
1.433276136605304008e-01
7.923388620891078093e-02
1.418361915163156017e-01
1.311476597018411128e-01
1.276949548123486322e-01
1.025396521978914344e-01
1.686481797952887329e-01
1.974896173277325417e-01
1.450188879194066749e-01
1.262919295504777994e-01
1.336103726880960574e-01
6.738473695458936652e-02
1.677163522729129275e-01
7.853786599559009485e-02
1.555432016472269863e-01
1.498999439169182990e-01
1.559394647061556338e-01
1.389674963028778021e-01
1.892164551630331759e-01
1.366251092733679895e-01
1.331220237243812277e-01
1.300146570807517721e-01
1.576975604046812474e-01
1.343641923078479350e-01
1.678833358719524216e-01
2.427498680908170559e-01
2.823437929365485988e-01
2.694663800038359369e-01
3.356635703026044082e-01
3.572851780849161107e-01
3.977191705032069868e-01
4.491397330336517335e-01
5.255276681305289799e-01
5.680440488559592715e-01
6.704749286536783037e-01
7.334128279086138402e-01
7.355972100868309882e-01
8.318167523631132543e-01
8.669062144364223510e-01
9.427774607460165379e-01
9.778538626401238609e-01
9.734956175577892390e-01
9.995229188834453549e-01
1.024657856463572436e+00
1.011344196436722243e+00
9.789271007506256117e-01
9.096950993143944064e-01
8.995081502988098165e-01
8.093407072377534206e-01
8.000704737998673988e-01
7.153542231435287002e-01
6.141370329432245256e-01
6.080834053629253777e-01
5.600180950741223684e-01
4.021995788027937224e-01
4.016587083101182398e-01
3.894026119463546709e-01
3.111917202225821244e-01
2.085063821008719676e-01
2.694675846275663145e-01
1.929905402400424186e-01
1.436261085830717599e-01
2.049751687110700216e-01
9.099761976628671645e-02
1.416996112703133026e-01
1.163949858964911099e-01
1.085275528894150548e-01
9.950074506246162076e-02
1.172259150663088612e-01
1.367909901618354906e-01
1.013434000905667209e-01
1.448789964037190126e-01
1.348022148904976791e-01
1.186156457661351749e-01
1.063760394768538120e-01
1.476732696580878024e-01
1.338194425012752820e-01
1.010496278363913203e-01
1.458092308447699603e-01
1.415102736600291622e-01
1.638414805194501056e-01
1.668089483215519919e-01
1.926520393216138993e-01
2.079253519023046559e-01
2.152963893421140640e-01
1.482020961725747099e-01
1.768888699870325709e-01
1.945194753375852625e-01
2.277999913510841412e-01
2.103698379655914441e-01
2.468909598059624289e-01
2.820630318816420012e-01
2.078845453802440624e-01
2.787500544267292324e-01
2.446963897083960782e-01
2.089093733199315905e-01
2.424409174573520509e-01
2.356212617606073256e-01
2.614701555390346877e-01
3.071005237673135047e-01
2.517960401504649171e-01
2.798872053007380734e-01
2.312158089332039257e-01
2.575519405184872324e-01
2.023762803123448362e-01
2.355531442736035208e-01
2.359591350201526161e-01
2.480547023558320741e-01
2.543346528481847946e-01
2.949346631259459062e-01
2.645412951192141482e-01
2.258223658850791182e-01
2.401011660798926250e-01
3.220804576559384569e-01
3.023458400904303067e-01
2.088695264347762426e-01
1.957336048546831075e-01
2.381266879562734806e-01
2.880579018254342816e-01
2.793128318485185169e-01
2.018467932212790750e-01
2.306742113374487535e-01
2.239376649926169971e-01
1.927711989677075022e-01
2.069655718658403587e-01
2.343957026285054257e-01
2.162491775891051682e-01
2.200474058826897283e-01
2.578284876028259509e-01
1.845091529418675380e-01
1.746444273848150597e-01
1.537662049270223930e-01
2.368722048850054607e-01
1.748437839582069053e-01
1.867534627303552019e-01
1.570743071221965270e-01
1.613955733103024370e-01
1.837855142258905949e-01
1.604381523287574385e-01
1.015265369252928707e-01
1.348386042009619701e-01
1.481526077702486066e-01
1.007941494580359976e-01
8.499720778995598081e-02
8.246897100882732978e-02
8.822086733200590336e-02
7.807816039617776482e-02
6.628007751085887578e-02
8.641443159074888025e-02
8.107874545733828597e-02
7.292053961332804757e-02
1.499261769013815124e-02
1.407427566984610079e-01
8.378797399827192516e-02
2.135215666466869569e-02
7.351737809692718284e-02
4.692588568457685405e-02
6.060396463425041236e-02
7.525458424321190831e-02
1.844295348300568904e-02
5.420697782074490600e-02
4.467113859738620907e-02
4.131435143555609035e-02
1.956854494013964343e-02
6.754643271932880833e-02
5.998750663476663109e-02
9.679406309695122446e-02
6.755873848702637074e-02
9.328204048316275643e-02
2.328666401702434580e-02
1.316449969974428300e-02
5.709294369867375790e-02
7.589221018495143078e-02
2.490901063480598782e-02
4.799463783418218832e-02
-4.899007987134003372e-03
2.706601989437248251e-02
3.868036112264868626e-02
5.172102853970432512e-02
1.946705383555643459e-02
5.415490341701793137e-02
2.371394180088320924e-02
4.067583734486369257e-02
3.274458811323806284e-02
5.062716812946132378e-02
5.655754524533370547e-02
1.016779395311058765e-01
2.589592591593996990e-02
4.854519533954838872e-02
4.429765373646216142e-02
8.942947115049521001e-02
5.599660625817230730e-02
7.689357376924085830e-02
9.086189185781673450e-02
1.001458991594419146e-01
8.943316882794735689e-02
9.084471198481645915e-02
8.120388132707001549e-02
9.737061601183241710e-02
1.209737543788868552e-01
1.191901739544984629e-01
8.148431739202857682e-02
1.215144856136468887e-01
1.232130815583449557e-01
1.702505679523224347e-01
1.782304601929314558e-01
1.653252836025072003e-01
1.479437471082605260e-01
1.037878316787707866e-01
1.422912194495517257e-01
1.476860601779860782e-01
9.528972213751626952e-02
1.805637601947465143e-01
1.478848615859489624e-01
1.754664938600797308e-01
1.838503631946659111e-01
1.312379686977174498e-01
1.694927275108072950e-01
1.500383965903097083e-01
1.533647071621178637e-01
1.757144032388184840e-01
2.322839084646343699e-01
1.942321273915040836e-01
1.990758464078437873e-01
2.196249598355435317e-01
1.957669648063519729e-01
1.376731223479435717e-01
1.260988447976043869e-01
1.568841123692333306e-01
1.352426057864555831e-01
1.638784763274887535e-01
2.420344608266881692e-01
1.482363964225079656e-01
2.108353765031888427e-01
1.193958082206967863e-01
1.697342410992468409e-01
2.240144811873594211e-01
1.961767388053888561e-01
1.219466233317922643e-01
2.175125340067378954e-01
2.127994222192269580e-01
1.807544530985837616e-01
2.312836840313663156e-01
2.552283346088143889e-01
2.575625052343304966e-01
2.652340690562273728e-01
3.540783328567363442e-01
3.342911486903639151e-01
4.368441376669650045e-01
4.866178823336979042e-01
5.378799065166030013e-01
6.092068310237264139e-01
6.718316769354216733e-01
6.898427168090423001e-01
8.209894418093959256e-01
8.659190843633952639e-01
9.184018855524997971e-01
9.669904387462966433e-01
9.959552873678186868e-01
1.053832230226082967e+00
1.032219163028382791e+00
1.060621971596711566e+00
1.038117199721352968e+00
1.045665368990045474e+00
9.805531453520385243e-01
9.291883903394473343e-01
8.940706533795810262e-01
8.313119634807769609e-01
7.807853428994953049e-01
7.146334030185461650e-01
6.353539441664499687e-01
5.830900155774677573e-01
5.329318927745601009e-01
4.494032736866245825e-01
4.062171199047627246e-01
4.021178060060668913e-01
2.812942827002209989e-01
2.424319375264890331e-01
2.576752545058602628e-01
2.049557915849277989e-01
1.713890755499030416e-01
1.804264949502481785e-01
1.733034216914416947e-01
1.213710939745483164e-01
1.348193622123840252e-01
1.623555488882188480e-01
1.898871475767765216e-01
1.816746982873012617e-01
1.467247489729362198e-01
1.971094238226029638e-01
1.874028622635004471e-01
1.442263563687445904e-01
1.774422942041363471e-01
1.334775793665157750e-01
2.509449208869902748e-01
1.908966056501603670e-01
2.200373152706117663e-01
2.142732162772089111e-01
1.596882992799039946e-01
2.029714901106440539e-01
2.130299639081620067e-01
1.832288291146846881e-01
1.845365074005568817e-01
2.288015253436331276e-01
2.320926724724200751e-01
2.318531585291800645e-01
1.947829859254935070e-01
2.611177870899066833e-01
2.241883464381768665e-01
2.488659629061448497e-01
3.188073759131372920e-01
2.954415522799210825e-01
2.815116173789110054e-01
2.522944253766082889e-01
2.956355465092419532e-01
3.395252632439340612e-01
2.305492036967733416e-01
2.728760641865894399e-01
2.843045938455956434e-01
2.930942423571914479e-01
2.806280075939598939e-01
3.161241150511057141e-01
2.633331785213233189e-01
2.907788842579355215e-01
2.580548400688852384e-01
2.659636357977679388e-01
2.869096337231285543e-01
2.816907790513005216e-01
3.353362208205263317e-01
2.722602504564953230e-01
2.496728856408783059e-01
3.431454195323366263e-01
2.444416674401466427e-01
2.910475366142320497e-01
2.822742853346664749e-01
2.592373653908006670e-01
3.360195527892439471e-01
2.799435329312367493e-01
2.563570049121571826e-01
2.806183764722681162e-01
2.890011020084240490e-01
2.726657698152205600e-01
2.121924428478775271e-01
2.434311816871829182e-01
2.671638327782228095e-01
2.663666534870451352e-01
2.213532205478081494e-01
2.203373586590660071e-01
2.200964292303247416e-01
2.674954669406873209e-01
1.878469460516798417e-01
2.279133248686303903e-01
1.539774781784114532e-01
1.916955556174746444e-01
1.836676651425811213e-01
1.566042955670001735e-01
1.595101847218077518e-01
1.665065367447043920e-01
1.614517865205372937e-01
1.163745842228553207e-01
1.251163333985119697e-01
1.540207574761135734e-01
1.119731505649041725e-01
1.774110497334070724e-01
9.054397092370297662e-02
1.087532068959457532e-01
1.572250797830709590e-01
1.450816400712645060e-01
1.188445615594226623e-01
1.229146366191798956e-01
1.040770713541339376e-01
1.428785098436888834e-01
5.809390260061172984e-02
9.125582226881920334e-02
1.205632511423639086e-01
7.407526650649462474e-02
1.116972756412178275e-01
7.734496951426517164e-02
4.119102260963546092e-02
1.349649289724002277e-01
2.923449853111675933e-02
3.739529429471571964e-02
9.142227262924750020e-02
7.430846607450514174e-02
1.056762584079500022e-01
7.787064113806295429e-02
4.863378026540163962e-02
4.239263774707856258e-02
7.098881059885071843e-02
5.543266603343964538e-02
8.966689910769155836e-02
9.048708757694018390e-02
6.892814405586250581e-02
3.587884859349923378e-02
3.252852879057439861e-02
6.593370256542790964e-02
3.201427324125145912e-02
1.361972915168296189e-02
9.960390514458292155e-02
7.763364285013983623e-02
8.556776501225429876e-02
5.775665470250491984e-02
8.935784516792065479e-02
9.179277635813028191e-02
5.370704296838192671e-02
5.199839832338545159e-02
8.348148515165468297e-02
9.040321870217289668e-02
7.130975228166619440e-02
1.235669726035971694e-01
9.352708576844022403e-02
8.178045042221687710e-02
1.553065001503531328e-01
3.247941579681601354e-02
1.510623792301649115e-01
1.246115719769439467e-01
1.344370747370490504e-01
1.706203264917045270e-01
1.562204763136001429e-01
1.765807094847367531e-01
7.482315250023705011e-02
1.048097632237620924e-01
1.626993479294345235e-01
1.057705191638431963e-01
1.341929151193859693e-01
1.715060995297642554e-01
1.275130557574630230e-01
1.008951954046760080e-01
2.106836244498583588e-01
1.618469107803606477e-01
2.022249327331807622e-01
1.876378898668288053e-01
1.889945055238737015e-01
1.036602238674713267e-01
2.065894733941771033e-01
1.718787253449327590e-01
1.500866836402011684e-01
1.750960484860637212e-01
2.103713573665178249e-01
1.714638785957009748e-01
2.115341981121190984e-01
2.057122942179661906e-01
2.196843417502826190e-01
1.717400710309079093e-01
1.605563054955047031e-01
2.205864198573446733e-01
1.573643129407080177e-01
2.094070565016492025e-01
1.815897316953917484e-01
2.002707279773530691e-01
2.133467445181732869e-01
1.721882352111623049e-01
1.775538927562003710e-01
1.746719549828084084e-01
1.688122042319244176e-01
1.042905941904238437e-01
1.482044778151147546e-01
2.095225209329579785e-01
2.057812501063284727e-01
2.424130830542721160e-01
2.142520335243471297e-01
2.448022104149579214e-01
2.869913990318458952e-01
2.461207925173819755e-01
3.790438714849093116e-01
3.737752798840278112e-01
3.816844260980924441e-01
5.102100998448489966e-01
5.492226392200951768e-01
5.864582515256170359e-01
6.521122085660584489e-01
7.735298761799748180e-01
7.849933000997327825e-01
9.046424687305468781e-01
9.054196914071857005e-01
9.928580811670288941e-01
1.025098875231531537e+00
1.082503952744784170e+00
1.054967648376642586e+00
1.084390365902574871e+00
1.065607639625246517e+00
1.015087454113125176e+00
1.014935528864753245e+00
9.793524196261734760e-01
9.259681005555895350e-01
8.998565555008579686e-01
7.977578417129902455e-01
7.545595701046673431e-01
6.900599329650477509e-01
6.321896627369043564e-01
5.195993252986180755e-01
4.990947839344235804e-01
4.284337466615933954e-01
3.902953921208677790e-01
3.174989032692588919e-01
3.473392738796198254e-01
2.569307481513375402e-01
2.411866686301784579e-01
2.266981536997149660e-01
1.124712610975149851e-01
1.772546425528347680e-01
1.745521295042748167e-01
1.460545706675424882e-01
1.900429430412773901e-01
1.427317283361276279e-01
1.738621794079083516e-01
1.672996918968841784e-01
1.243910106231815582e-01
2.045044677553110868e-01
1.515304237898394135e-01
1.543259394320328493e-01
1.545172799639517591e-01
2.164439977622467093e-01
1.661050570026654793e-01
2.072013365371734861e-01
1.428992299894993878e-01
2.254815643430531091e-01
1.814307070902150265e-01
1.791741798301088318e-01
1.589176800907197984e-01
2.380749439604677165e-01
1.722505249959183915e-01
2.236487692884375211e-01
2.450886431840275104e-01
2.597295163232997695e-01
3.032145174379028973e-01
2.325517154606110415e-01
2.457778696191060819e-01
2.800205996786880314e-01
2.524453811546406024e-01
2.508478480638122177e-01
2.799225085372471500e-01
2.620349986289151056e-01
2.540776813926303723e-01
2.597509981540196411e-01
2.628753667707728892e-01
2.767097540093971797e-01
2.168877500569037498e-01
2.881418471676781001e-01
2.323269029603439451e-01
2.710082023688035191e-01
2.636438363887294023e-01
3.185823701411102937e-01
2.873583087335894182e-01
2.951031862747044432e-01
2.661831844173946915e-01
3.152568342053622130e-01
2.622213960126896781e-01
2.135957592601351318e-01
2.793896865055021661e-01
2.554357682678548014e-01
2.814888609105552497e-01
2.743063519641056880e-01
2.880505833446483921e-01
2.841090355085254537e-01
2.605677097195077119e-01
1.988026994532468006e-01
2.563501141398622507e-01
2.718588404836533301e-01
1.966050898582426265e-01
1.823846566549637005e-01
2.273942852691557270e-01
2.110564329183373111e-01
2.133123658700619985e-01
1.920539800666233032e-01
1.750792884443059805e-01
1.615647367759810993e-01
2.207632604026674161e-01
1.751380812844548496e-01
1.375333079906754796e-01
1.892692563413192475e-01
1.582389750309662890e-01
1.846878937730209447e-01
1.212317206404207037e-01
7.228950759699546980e-02
1.972837428221056177e-01
9.079208181354350704e-02
9.782213064733286112e-02
1.249317002307653995e-01
1.301864371519059205e-01
5.433138706643865501e-02
1.839708763430771832e-01
3.838600924076647491e-02
7.055673902455317226e-02
8.374356786204885383e-02
1.262932418343945817e-01
9.904207160277223032e-02
9.171861489047339333e-02
1.195632564777633633e-01
8.845408266473644976e-02
3.777416304178606715e-02
7.271758775992089030e-02
2.542326064765476623e-02
8.928889712317850114e-02
5.297414977398072489e-02
8.003265280041595153e-02
4.552188541220098666e-02
5.265465955373119927e-02
4.448150182926410151e-02
7.410825066902851366e-02
3.022964390693550982e-02
7.081590465805448487e-03
8.822193080317447533e-02
3.756961442261223805e-02
4.660785409226028686e-02
3.194577136534710454e-02
1.178466307439868382e-01
-3.149721950326038467e-02
1.203762357137140443e-01
1.520953414629512383e-02
-1.705342160480112501e-02
2.572515540568653253e-02
3.744454338699342022e-02
-1.488453800439547628e-02
5.623094895111749314e-02
4.464178897796276801e-02
7.496218936372693598e-02
-1.851516395320565792e-02
5.414814932247404705e-03
4.883088589670482593e-02
2.171285114277185513e-02
-1.746790942075982650e-02
5.543175618431380597e-02
2.610128192051808238e-02
5.409260936288135674e-02
2.766051054395122361e-02
-6.554432258336672160e-03
2.269535083262358074e-02
3.382347436316842509e-02
1.437981524206680302e-02
3.519666028135420843e-02
5.816213040488491665e-02
3.775539655002344008e-02
5.697377959667194319e-02
5.598832926117653513e-02
6.765456552813679802e-03
7.673829828196093716e-02
6.417557404967319523e-02
8.729114600627117804e-02
1.174480178851242534e-01
8.988141274230548872e-02
1.327307607746967544e-01
9.499158314338668196e-02
9.403162999507247433e-02
8.095396587720181392e-02
1.092854882342942924e-01
1.273541933428936901e-01
1.203393107919282501e-01
1.218879853958656362e-01
1.513359131358114340e-01
1.348793027463145444e-01
1.062542695006351012e-01
1.154914144084331212e-01
1.045652620574826080e-01
1.027635052034800017e-01
1.459642939425561114e-01
1.643420376058533638e-01
1.405911825358026890e-01
1.580071076239138450e-01
1.437075837398925360e-01
1.045018619639040136e-01
1.552624260828144587e-01
1.055359949882230530e-01
1.394590063030999028e-01
1.839686809813172730e-01
1.290682522054524550e-01
1.835769541330960486e-01
8.964217732060536514e-02
1.063109129993599078e-01
1.464994207360809653e-01
9.281278899178400932e-02
2.190920590024051928e-01
1.611087089453690502e-01
1.326215033202637061e-01
1.889315008042495581e-01
1.638750081463709041e-01
1.389505298846956116e-01
1.560438852602798743e-01
1.604942036236320091e-01
2.273339947631324298e-01
1.898896717535134560e-01
2.908688319587388049e-01
2.896729039309984821e-01
3.027075798080923752e-01
3.516293380322930151e-01
4.633542108902687362e-01
5.170896622406876419e-01
5.220963979568143953e-01
6.041066548452890261e-01
6.510203932865704646e-01
6.359472516035188372e-01
7.198201739723932846e-01
8.923665849534310190e-01
9.080931928793805064e-01
9.558650573722550225e-01
9.748782838308809318e-01
9.668858220926076497e-01
1.006618240376196516e+00
1.029034540029599043e+00
9.931437533772443649e-01
9.810672658722544570e-01
9.102941436597663527e-01
8.812837610810151379e-01
8.298633163112369981e-01
8.199227210967483526e-01
7.104253917405997099e-01
6.511949897629355499e-01
6.025717689286143042e-01
4.904674918858887289e-01
4.349102234383791510e-01
4.370666416226279272e-01
3.588772014507856101e-01
3.196337519173932940e-01
2.337301804735165134e-01
2.424873972539267897e-01
1.650362851696977884e-01
1.558661137374011407e-01
1.406091828971611779e-01
1.206288934549311909e-01
1.788795478695416885e-01
7.556431951770706257e-02
9.508123026199473415e-02
1.136868971623448826e-01
9.572948640809617049e-02
4.487891305156075511e-02
1.116705530873174784e-01
1.223031895839326866e-01
6.059431989070865332e-02
2.009290437545847019e-01
1.174220386341085498e-01
1.163643119124544850e-01
7.019834304302807748e-02
1.334216474954411091e-01
9.632042497569082151e-02
1.457426440172140958e-01
1.678132250865778663e-01
1.544304316447233649e-01
1.024488898495397315e-01
1.420824619205865447e-01
1.769695542477521810e-01
1.735193564134596689e-01
1.718610047420829623e-01
1.951946525955497447e-01
2.240955391017780962e-01
2.052282907871196826e-01
1.762615119064022129e-01
1.585417113366665021e-01
1.605445656000988042e-01
1.863322373886507344e-01
2.011457682752711695e-01
2.196262151117092387e-01
2.332133077758956341e-01
1.805851974763967582e-01
2.421687251999425916e-01
2.312573970577712634e-01
2.524695240571419030e-01
2.455230824453588367e-01
2.521293717013565194e-01
2.634475014055709385e-01
2.477566399307356559e-01
2.297438499249827015e-01
2.639349932402533794e-01
2.368055290952190695e-01
1.975860713809172997e-01
2.115227320489732887e-01
1.828206424832551913e-01
2.012395251354741899e-01
2.214482013390920989e-01
2.414449115019903225e-01
2.295910763331155402e-01
2.000885257102156811e-01
1.895126831287075320e-01
1.661121790950443600e-01
2.183159171649644570e-01
2.552171455863393446e-01
2.017290591230356256e-01
2.466811242604679821e-01
1.795646798674254696e-01
1.905200949524203657e-01
1.389156765176573771e-01
1.952363237444871835e-01
1.415563090819700609e-01
1.484808449987162493e-01
1.253356741157717613e-01
2.089465199830064512e-01
1.156340779218373305e-01
2.019414153837427728e-01
1.193587817123138300e-01
1.353096386845239196e-01
8.801768403293216969e-02
8.081131831950735811e-02
8.466628247236468452e-02
1.051865410490013947e-01
1.074357318110892856e-01
1.028547654172196762e-01
7.289508948123332721e-02
