1.036419973934712413e+00
1.076057609937469017e+00
9.497954104257518848e-01
9.457480755715125254e-01
9.342511729151041777e-01
8.555607353069344390e-01
7.902985734873402279e-01
7.371232862526486684e-01
6.474388149314067586e-01
6.038519408720449677e-01
5.572512088197884017e-01
3.750872674749958779e-01
4.240469981424818124e-01
3.844446486816910369e-01
2.666987419285142269e-01
2.060616422423179883e-01
2.380872011371076014e-01
1.643857954491775852e-01
1.731421371162748524e-01
1.059388084744580100e-01
6.875732140680532178e-02
5.193689609444324812e-02
1.226019679801547968e-01
8.481213212892002584e-02
1.110803134149223326e-01
7.844832535363216452e-02
9.003732038488290734e-02
8.630601132963650057e-02
6.416010152266084232e-02
1.253231205609393883e-01
1.272383606269421596e-01
4.412955466435861118e-02
6.513838176685288195e-02
1.757654314875160551e-01
1.421113764834164850e-01
1.486742617057515981e-01
8.189437819676267938e-02
1.262256444067037242e-01
1.353733653650544821e-01
9.937361576659700657e-02
9.511249749126846065e-02
1.827510679913766922e-01
2.194733074050505550e-01
1.048981006997381504e-01
1.968651177168216915e-01
1.287368573544074579e-01
1.481478125419750103e-01
1.337828090318966545e-01
2.195304081084531456e-01
1.459861385082742435e-01
2.391736081756589138e-01
2.270822536137001024e-01
1.406300768232941201e-01
2.574485784079890704e-01
2.210958306552597841e-01
1.773015059925644454e-01
1.632987209985109489e-01
2.010747762757569834e-01
2.237841836497654613e-01
1.973965101516705622e-01
1.376061297233404368e-01
2.214898672299126514e-01
1.873507009156311354e-01
2.230507645782432991e-01
2.592295222934743459e-01
2.210946126880469764e-01
2.156317785307951540e-01
2.166708040752409747e-01
2.022610164451782155e-01
2.241239409782345426e-01
2.231018579733543561e-01
1.929313227328372515e-01
2.657128548071975849e-01
1.774922477943995935e-01
1.604511442758075890e-01
1.351197789319079079e-01
1.742601044044920777e-01
1.517360753775931770e-01
1.724014626754463431e-01
1.357234625482005019e-01
1.997566205494515634e-01
1.253179399460011001e-01
9.824250863114442067e-02
1.308880347224388174e-01
1.302837361678399752e-01
1.224505024540515769e-01
1.244395611295147919e-01
8.816763218033898952e-02
8.312331836290531850e-02
1.371995563237421445e-01
1.636203856023116798e-01
1.073685133542348347e-01
8.116492837956981732e-02
7.744241293771894630e-02
9.424247550682947339e-02
7.448845788891195197e-02
9.048972758190851340e-02
3.722218896040198344e-02
9.917893338837502348e-02
8.227191804818778653e-02
6.160846814807956900e-02
1.011782437501855536e-01
2.597149587395114478e-02
4.545823669903325398e-02
3.363381725836969011e-02
2.700444780725096139e-02
2.791217145233573782e-04
-2.419016177429111902e-02
4.059669864858023863e-02
1.577200687846069121e-02
4.146487492255758467e-02
4.827461530745036367e-03
2.148402519354764006e-02
1.226583897426754971e-02
-1.595170036301142569e-02
4.031222466893754491e-02
-1.628187060740648659e-02
7.959747963422192374e-04
-2.969444606027802497e-02
2.101729897645005646e-02
-2.625327914049090453e-02
-2.601170995014096335e-02
-2.204496528076417550e-02
1.067327916526549653e-02
-8.363815210874564476e-03
1.838659375337572260e-02
-2.094494981928528635e-02
-2.009976099524132115e-02
-3.126299468660232589e-02
-5.175340665358168363e-02
1.059230253222918916e-02
-2.177077430359086047e-02
7.486349002399314556e-02
1.159609200374987076e-02
-2.892176759402340439e-02
-6.388100285885178753e-02
3.909803095768898257e-02
1.975821112748119002e-02
3.125447512059978394e-02
-2.284264985603110670e-02
6.459954199857217971e-02
7.146640282079862183e-03
-1.520140591197541302e-02
3.020258529116062740e-02
-1.622308537952320273e-02
5.126275695280180927e-02
5.449604805774588279e-02
1.513008243173798867e-02
-1.116675239758381510e-02
4.731657716677414860e-02
4.132898743178662487e-02
4.322197469613547199e-02
8.660333741359108051e-02
4.183726748004693713e-02
8.835313416817479337e-02
8.371349267125205440e-02
8.805234763495642381e-02
9.514558432940253829e-02
7.869396909321169087e-02
8.192615040529840909e-02
1.682781046817868609e-01
1.583620289120047098e-01
5.204634587795738815e-02
1.442740346463383672e-01
7.889581354184270479e-02
1.303922441816430799e-01
6.779334768480937967e-02
1.230064107562598985e-01
1.077349912898207668e-01
1.021288413165203635e-01
7.609430117846771591e-02
1.189009385318750278e-01
1.022865867167134790e-01
1.003318938931015147e-01
8.700902477000882485e-02
6.813564632708873914e-02
1.492608085918792626e-01
7.812037474562874562e-02
1.025945672018997168e-01
6.051969418656034244e-02
8.777597842292439445e-02
1.496580435583502733e-01
1.209108631740430928e-01
1.677676047583730456e-01
2.107039665211754842e-01
1.967288989423638668e-01
3.261496873878970693e-01
3.340928215326362527e-01
3.848273080645178146e-01
4.084732890344921485e-01
4.597335611903630159e-01
5.774630544296618373e-01
6.161677942049045287e-01
7.712189987765765142e-01
7.324711725575439036e-01
7.804513371703523106e-01
9.072226068715101288e-01
9.462561011804261346e-01
9.781591442581197837e-01
9.810441364959732180e-01
1.009496078898064697e+00
9.745713227581076499e-01
9.914749157700500914e-01
9.245614275918710989e-01
9.357091104374931634e-01
9.363813722591064481e-01
8.302439006041361091e-01
7.593378109928385911e-01
6.999951984225698531e-01
6.196447009968877317e-01
5.456098627354223352e-01
4.969060339550437355e-01
4.032319957648914377e-01
3.963863490432934511e-01
3.378518358521825915e-01
2.501746153620759694e-01
2.155032151433244614e-01
2.136654030922486291e-01
1.872780730007442274e-01
1.300356227324042380e-01
6.282903387018526353e-02
1.306805862561457587e-01
2.536226469404150030e-02
1.261507722449656532e-01
2.481175000284643883e-02
1.080586143078207523e-01
5.087643665913331448e-02
7.566492547032707683e-02
2.706743598417617191e-02
3.366770258705603647e-02
5.124018806840652945e-02
6.037728800797195067e-02
8.786839150789110819e-02
6.673446093909979338e-02
9.370679666168220401e-02
9.802388092241302864e-02
1.129380762256930182e-01
8.077846364322872896e-02
1.268640190325310835e-01
1.334684654282619343e-01
1.609836613846351572e-01
1.696339492808220384e-01
1.153578161506930710e-01
1.032428770564321058e-01
1.365694068915244141e-01
1.477440277861503115e-01
1.875943097999601961e-01
1.155873069003600373e-01
1.518272010295139418e-01
1.423686155484599203e-01
2.240256984075399138e-01
1.942596168507523813e-01
2.320099286778648795e-01
1.538513415820702834e-01
1.789704687967261232e-01
1.974143574891606412e-01
1.440205550972962767e-01
2.209427104496365368e-01
1.453427987580229175e-01
1.584464312945926268e-01
1.893405598811416790e-01
1.480893699104101902e-01
2.040611628628224150e-01
1.955680818595022519e-01
1.661773687592114079e-01
1.810026615074628864e-01
1.777897251778606247e-01
1.986603420563451128e-01
2.709513836716845869e-01
1.843904145060956956e-01
2.393534687177404363e-01
9.491035298690754518e-02
1.419708300053325045e-01
1.985594434601093972e-01
1.562846897352631603e-01
1.621921006028009538e-01
2.002344988750437149e-01
1.892731009901682526e-01
1.303726648963816903e-01
2.053578083339055449e-01
1.505871121700787241e-01
1.622264747389736972e-01
1.611584723763757054e-01
1.094811994051430593e-01
1.187902906382027612e-01
1.461631902856356524e-01
1.296160587555492127e-01
1.014600538721040501e-01
1.114747647200977632e-01
1.628573004809285019e-01
1.475813608822123535e-01
1.124519694895192157e-01
1.200395354565260142e-01
1.013807152146310175e-01
7.548051215578856221e-02
4.207426006708572808e-02
4.885082629919228203e-02
9.984078537881777016e-02
1.059742482667297425e-01
7.679061322088023833e-02
9.644321129667877968e-03
4.171310458468524551e-02
9.837792497193445507e-02
4.776280875680226357e-02
2.410885081501945582e-02
-2.697608170238316450e-02
2.619782644046014797e-02
4.890075762404783727e-02
2.936771624538674769e-02
4.619665354165097132e-02
1.875839421843793209e-03
-2.961822256935430636e-02
-6.578175719674277111e-03
-2.341145964449499461e-02
-1.597889913205091314e-02
-1.382727734398761857e-02
-5.062495687585249343e-02
-1.704930357044026970e-02
-2.976316321655005440e-02
3.111100710920275403e-02
-2.679015739175899177e-02
4.589980101688471287e-02
-1.286733714598774225e-03
1.432843061491533704e-02
-2.278960679798371428e-02
-4.656123098151943029e-03
-1.945285901651860189e-02
-4.560914353040004116e-02
-2.758257887616211157e-02
-1.256181109246552047e-02
-1.579620740113952398e-02
-3.200583531508448265e-03
1.265818025618078990e-02
-2.630414169915756134e-02
-3.269304239238943893e-02
4.490899732156254653e-02
-6.933604562923634251e-03
2.262574123798816866e-02
6.360936776282945238e-02
1.036853920364649850e-04
-3.907614376320871219e-02
6.955768756636193650e-02
1.871474701607153679e-02
2.098182226377293125e-02
5.198247957208671638e-02
1.869488280291106003e-02
5.164408006738187978e-02
5.904180039740546809e-02
8.599252141143531869e-02
1.137186234177425814e-01
7.489686477372378692e-02
7.615125760925187115e-02
8.511741613389220418e-02
3.552401472679379141e-02
9.169091978872415116e-02
5.288888403933059840e-02
1.036982542322677503e-01
6.827941057114117474e-02
1.238306460572469320e-01
1.074794053557519558e-01
1.065001217491112206e-01
1.031226706129518556e-01
7.253343368519019063e-02
8.074174860979477231e-02
1.266639328159439581e-01
1.366376635665466077e-01
1.248851664141016338e-01
1.074340246871380578e-01
9.961794459336748009e-02
1.604412894175246129e-01
1.429575336533049912e-01
9.539196660078622103e-02
7.603176678200862515e-02
1.274961438231786426e-01
5.388790621912262213e-02
1.525426455974323858e-01
1.236944820191372141e-01
1.588933463847321537e-01
1.417647888605992335e-01
1.384808910109362468e-01
1.015920595966854079e-01
1.090139576000554444e-01
1.871411109907434034e-01
1.979537241956022264e-01
1.961556260650816896e-01
2.420262266276347884e-01
2.641892696149412134e-01
3.317049083908424345e-01
3.302928632034910494e-01
4.188963242410799204e-01
4.652063187916809506e-01
5.337498353242629001e-01
6.457826437353514359e-01
6.522185077387221419e-01
7.544028357568299814e-01
8.265748389663306606e-01
8.265721648291760593e-01
9.392926001624695154e-01
9.047724143996607182e-01
1.062413272186327307e+00
1.016217704220689466e+00
1.045353093678311307e+00
9.876639982848673949e-01
9.801760364639109380e-01
9.359575905090432579e-01
8.774255273507628461e-01
8.835800193698669647e-01
8.268317471039942079e-01
7.250318139853133559e-01
6.595363251503870705e-01
6.092558252121971218e-01
4.890102630146022089e-01
4.564376320452371294e-01
4.403289664941035797e-01
3.320296144464902066e-01
3.275248509354902748e-01
2.796087468788962527e-01
2.412510852313130005e-01
2.215775194098513756e-01
1.065664431461137568e-01
1.689991753141825426e-01
1.784382084359056597e-01
1.028067307586676554e-01
1.284780125768135717e-01
7.195900432293805826e-02
1.202661980165300321e-01
7.059081001351397155e-02
7.816951691818162240e-02
6.151217688151439100e-03
1.616247921416825439e-01
9.195241926234298813e-02
8.052280832486277684e-02
1.292856362555261929e-01
1.016889762490884724e-01
6.936740829263270125e-02
1.589535381460590313e-01
1.179666119068701752e-01
1.207565200045538356e-01
1.599682644368147777e-01
1.440091816304586159e-01
1.489806779471513076e-01
1.333726872868485902e-01
1.557052087169812082e-01
1.379476757208716875e-01
1.094540227407864996e-01
2.448964630192690395e-01
1.282715042825615104e-01
1.895800850836864559e-01
2.318198343984881338e-01
2.381432041286352108e-01
2.584347527755502805e-01
2.308163547181001918e-01
2.164860399056220408e-01
1.962192918447830392e-01
2.026333904065041047e-01
2.171362772272612263e-01
2.358285670119864841e-01
2.148944117030333611e-01
2.389549233032897957e-01
2.638184694781573469e-01
2.082818404332557605e-01
2.367195377984163407e-01
2.411437409767572815e-01
1.915950806733713041e-01
2.265815090012743005e-01
2.564832138460593769e-01
2.488765965962181359e-01
2.216085880398168950e-01
2.424016374804230933e-01
2.165779102231337738e-01
1.765265992764596115e-01
1.820330030057937809e-01
2.255757500409477090e-01
2.087034053150638446e-01
2.126026170367973367e-01
1.828743343886348183e-01
1.977887634002902240e-01
1.930509665228978267e-01
1.471157924368621805e-01
2.032930306928578401e-01
2.270697153195232187e-01
2.190985771001816573e-01
1.968992670369587583e-01
1.882906698642420051e-01
1.656254295652288822e-01
1.225699314315547850e-01
1.296508141097640621e-01
1.649424919460479033e-01
1.200339423155475371e-01
1.273255651974971037e-01
1.502127136610434399e-01
1.274309375201939099e-01
1.082597877114187673e-01
1.404700589509328135e-01
1.145383038869312170e-01
1.016446941701021761e-01
9.000160933262164875e-02
1.373763284638556681e-01
1.261351745705399652e-01
1.235739615261492313e-01
1.211435822717287503e-01
7.517822647718663820e-02
6.395745302328435800e-02
1.342127227810216428e-01
1.196548815187400798e-02
9.830076625186451311e-02
5.257956620199173703e-02
6.286627392841094564e-02
4.206446354295990953e-02
6.511076847010015267e-02
3.797084202839457606e-02
7.074137194621905878e-02
7.884039428274183803e-02
4.465583640692764172e-02
6.398998637912849119e-02
5.213281622005212779e-02
8.453365037786780833e-02
-2.891176434240225017e-03
3.219706532566726093e-02
3.367213739066470674e-02
1.032738992680664325e-01
3.239740357522651742e-02
8.919287136850938269e-02
6.321790242705967178e-02
-6.241539483391726761e-03
1.502876550314302326e-02
2.597285654413829248e-02
7.252850285919872075e-02
1.405847395210019224e-02
3.894086161077945502e-02
8.250789703780954387e-02
6.000187710124808838e-02
9.272696326440778292e-02
3.142502303428761773e-02
6.273181127161658877e-02
4.279997023157901953e-02
8.378019675561415580e-02
8.647178495158094891e-02
-5.098949266155533566e-03
6.483840127754901539e-02
5.180848480714189686e-02
6.345285486143886766e-02
9.658015246286917599e-02
1.017596417621948884e-01
1.295515568303744203e-01
1.408174001767316663e-01
9.672670410556050147e-02
7.427715977944633619e-02
1.361229008959632114e-01
9.937447672154756106e-02
1.599475263285667082e-01
7.580085641351153036e-02
6.380970197169208435e-02
1.232186208559338664e-01
1.262475605879703477e-01
1.969192159326837444e-01
1.487381642590705488e-01
2.045022841154983395e-01
1.297013915545950358e-01
1.719409670261553558e-01
1.597660271488706984e-01
1.652665020897794990e-01
1.354493182496584458e-01
2.003558970653444016e-01
1.675108455649841344e-01
1.854067547620164569e-01
1.523123866553950101e-01
1.524419938401609664e-01
2.021819086993717485e-01
1.154900420215423384e-01
1.733011983661685573e-01
1.655801908905223385e-01
1.440214910422056571e-01
1.592350697093269651e-01
1.803374849958017112e-01
1.303980353434292250e-01
1.617227769460461984e-01
1.527551525252185127e-01
2.045868027794874311e-01
1.917081044493228748e-01
1.511979003387133313e-01
2.061556103652660288e-01
1.255811745969825366e-01
2.238964523714974120e-01
2.598195215037076289e-01
2.961684870179197016e-01
3.274375000538687353e-01
3.946406472665530130e-01
3.462123452007556113e-01
4.417628434979482543e-01
5.093840807807488158e-01
5.661311700556870274e-01
6.359703020463476353e-01
6.504875114368159350e-01
7.311604995354360481e-01
8.075239297730031351e-01
9.004160847057236516e-01
9.588348677952864829e-01
1.068546716363253157e+00
1.003858911443560320e+00
1.070352514191114546e+00
1.095735663028284179e+00
1.081585095223914328e+00
1.076718103314308284e+00
1.006442250035755270e+00
9.902770799855477035e-01
9.759059900757657280e-01
9.317820713853968151e-01
8.360809046635393482e-01
8.137197496325069279e-01
6.527624310453680190e-01
6.571589625495558584e-01
5.703704652489882676e-01
5.184439478121829481e-01
3.645110074115004428e-01
3.739553490332318542e-01
3.369062969935405771e-01
2.829878809162278963e-01
2.783708299441575718e-01
1.993348125640145851e-01
2.322523219513450421e-01
1.951790168368399137e-01
8.347554072707652484e-02
1.997304679495067736e-01
1.817331312118868891e-01
1.612186614212823832e-01
1.735947995938662558e-01
1.303592854711244642e-01
1.673063598192726653e-01
1.276028490726417997e-01
1.409902425496214473e-01
1.205803485283341303e-01
1.923996058241030094e-01
1.648804117987307249e-01
1.400251446701452629e-01
1.847228299747426528e-01
1.962017435506434315e-01
1.777423173557440839e-01
1.710825274915549199e-01
1.929649630897588009e-01
1.825702067095196501e-01
1.836396689819736472e-01
1.892226068722487331e-01
2.428576514278784348e-01
2.232204805028689953e-01
2.796137471617649584e-01
2.430611746504812709e-01
2.463836550117315671e-01
2.238072770603319328e-01
2.531412863259590029e-01
2.789256865671932983e-01
2.978914892712493656e-01
2.335390573520103319e-01
2.332260231305948728e-01
2.374715981400475906e-01
3.114464846154407773e-01
2.924840739068023110e-01
2.712323479781741375e-01
2.743558919918144823e-01
2.683317765977429326e-01
3.152411690575220860e-01
2.135174551166810208e-01
2.856229714878931181e-01
2.859323863105999175e-01
2.431791544850772646e-01
2.892305607946152879e-01
3.001778708227535453e-01
2.943997851915439168e-01
3.255510673964126522e-01
3.402368900952345010e-01
2.735419681569012385e-01
3.047912319339955434e-01
2.601018179853001877e-01
2.832555460838014905e-01
2.689542852934569406e-01
2.826838203720284382e-01
2.445005729342170919e-01
2.405303580924861295e-01
2.390714924184341172e-01
3.064373760503099620e-01
2.062472492415337033e-01
2.673603364768043500e-01
2.543869078281286722e-01
2.569622140060310866e-01
2.230106545113512695e-01
2.180758415707273190e-01
2.073747899127950933e-01
2.032681767642803561e-01
2.252606978191293019e-01
2.565955804816594243e-01
2.256285973464741135e-01
1.335392187287983701e-01
1.658950997964974694e-01
1.553270900383766917e-01
1.228177366051537711e-01
1.445644644851526439e-01
1.322086534621291221e-01
1.659614072904474491e-01
1.812639135088447984e-01
1.464917339317350908e-01
1.333703983437016516e-01
1.869153803627878752e-01
1.054299588982226810e-01
1.355475256682155405e-01
1.623246199742573170e-01
1.560664607715584185e-01
1.009159838218938871e-01
1.165782216647991837e-01
3.897297408203664881e-02
1.314936691567615556e-01
1.510483907179412666e-01
5.183607857486476067e-02
5.290977889161446041e-02
1.096759282087742954e-01
1.221448417171545620e-01
7.995789678447126625e-02
8.922501615265032715e-02
7.284850726875663485e-02
5.903799731558123653e-02
1.134155507328227230e-01
6.222962361668123166e-02
4.044815522016981246e-02
5.001831923155135307e-02
2.967412813884888825e-02
1.273848762534950108e-01
7.298130160980606518e-02
5.057195821768310784e-02
6.949767466264743232e-02
7.583858323199552109e-02
7.599628331437341400e-02
4.934579704314506765e-02
1.131336983935731372e-01
5.779038064320014823e-02
6.378780615295945311e-02
1.031639460645900758e-01
7.900335207908887325e-02
8.319981068976080307e-02
9.207738321178547680e-02
1.257272547959674136e-01
1.169781434596018355e-01
1.170470393292973033e-01
1.249119719890164071e-01
7.569210709816662219e-02
1.307770341151520133e-01
9.602424946274057405e-02
1.537901741711784620e-01
1.132060060748374397e-01
1.169715430494081831e-01
1.298000721472990504e-01
1.525863132802716127e-01
9.470293631123029299e-02
1.602877169474790642e-01
1.763094747409170437e-01
1.294860163755083560e-01
1.809324382154949284e-01
2.201665116369410091e-01
1.874312072475741442e-01
1.879631366977142781e-01
1.781033210539749168e-01
1.584914053721713234e-01
1.641566919312010264e-01
1.752331948603364220e-01
2.061822291631965343e-01
1.965797673744862084e-01
2.125909467035008160e-01
1.548099985738216611e-01
1.677893783011585871e-01
1.709208424569740037e-01
2.262996777256241210e-01
1.924223544255065921e-01
2.025805666060232768e-01
1.709785704351368119e-01
1.871854128705508213e-01
1.854206620635179270e-01
1.977348504877557145e-01
1.596645996800866718e-01
1.566063557819431518e-01
1.402847976542561104e-01
1.355041823934687861e-01
1.951636750047753277e-01
1.399066602046459551e-01
2.295403232060080900e-01
1.856496021402825880e-01
2.468823160965655239e-01
2.433036069806430723e-01
2.366657847406678505e-01
3.435701320901921596e-01
3.557515202474078597e-01
3.621964822507894310e-01
4.259736784797920062e-01
4.805819305952536702e-01
5.582070651852232279e-01
6.085109780522741652e-01
6.351547735866545086e-01
7.162592406693553126e-01
7.322329501119474449e-01
8.748184474397259214e-01
9.522324650263098711e-01
9.789121780473920564e-01
1.029784218803450502e+00
1.085896190262068517e+00
1.147931869113658632e+00
1.121673056603019969e+00
1.072943836551638386e+00
1.099629404111068576e+00
1.018609152238166837e+00
9.426793438667174785e-01
9.715295059383638465e-01
8.542959852991828251e-01
7.912540028072279075e-01
8.056338668762130784e-01
7.000898586317981787e-01
5.973100091319369920e-01
6.298804069799580629e-01
5.037225005925154431e-01
4.673303006957191807e-01
3.786310003151120984e-01
3.970040305420644011e-01
2.979675901806583260e-01
3.214037947239269388e-01
2.233041834305050655e-01
2.059202023704963525e-01
2.154812827181791790e-01
2.071060052573477361e-01
1.940586625352898054e-01
1.847987493887895405e-01
1.904146325575029608e-01
1.648606640355473052e-01
1.061743988772895775e-01
1.515843711808762262e-01
1.962914745548424988e-01
1.338426925729148120e-01
1.352906706258658887e-01
1.307823498888351643e-01
2.288567367881085834e-01
1.376584547172691742e-01
1.665635424798282693e-01
1.425575283054174025e-01
1.496082631509730865e-01
2.049222692756608177e-01
1.871471272629780525e-01
2.427766192533823142e-01
2.168289030684395768e-01
2.520487353221021465e-01
2.318478536342938323e-01
2.525748852352243112e-01
1.816867354219791064e-01
2.290527240086578931e-01
2.014931208581080546e-01
3.280068055945816741e-01
2.178050984595485962e-01
2.521496339061355951e-01
2.477273492334795268e-01
3.164100546044253948e-01
2.602857052307934183e-01
3.774860874239540087e-01
2.937590681513306268e-01
2.640195403622138115e-01
2.934957310672052233e-01
2.992999472445218023e-01
2.837020670228375119e-01
2.698883869725445805e-01
3.200194937413193830e-01
2.951688678592271908e-01
2.971409020552077673e-01
2.221966765077475481e-01
2.535011768839939283e-01
2.844444177736079049e-01
2.951128445808873790e-01
3.184489752637680304e-01
2.708044869485893846e-01
3.049952627034725472e-01
2.739071436465219112e-01
2.637287923708688808e-01
3.127197601184727449e-01
3.111488328769544953e-01
2.205532414297619037e-01
1.924290806650048313e-01
2.811663824949300894e-01
3.335312495794512944e-01
2.709892450026963884e-01
2.405452508801049771e-01
2.658446123804737438e-01
2.358716935758187749e-01
2.228811702247466275e-01
2.049487592536892167e-01
2.181366718687113293e-01
2.334285288372622558e-01
2.303967683627279606e-01
1.964665292304702826e-01
1.695970325055926597e-01
1.757802820902941709e-01
1.629874109645323144e-01
1.882258949298980522e-01
1.755370296601905800e-01
2.206148419695840301e-01
1.654155845958351634e-01
1.978308274154039759e-01
1.462232132694250009e-01
1.467797984292889546e-01
1.121597427247059964e-01
1.202607394603095597e-01
1.565439855223242638e-01
1.079560162463758383e-01
1.689460122984222934e-01
1.442750675376711089e-01
1.742634924727396173e-01
1.279084344314693755e-01
1.306454261881316026e-01
8.549549958044293241e-02
9.582577617788151647e-02
7.238791139861945612e-02
1.341344254205871778e-01
7.710900036675144564e-02
9.559738949185359047e-02
6.174505495819240797e-02
6.343648746051466780e-02
5.877418740155546106e-02
9.034053696637603381e-02
7.018130229271085652e-02
4.969115231736488669e-02
1.062982021847178049e-01
1.448288022551397214e-01
1.610228879488617357e-02
7.899062985396565484e-02
7.177921436901388286e-02
1.009970090854854230e-01
3.206334078803987908e-02
8.663424072263085918e-02
1.129920359656093054e-01
4.638761567270831276e-02
7.257453591282755911e-02
9.101129828569677616e-02
1.057325624603192571e-01
1.001506461665954417e-01
5.340601593412774850e-02
1.049601168449475069e-01
1.191693303485170247e-01
7.486860610908832592e-02
1.052150804431958020e-01
4.728120694081664604e-02
1.576951096937147523e-01
1.215789627524692385e-01
6.654566918488266647e-02
1.510595382748592397e-01
1.378860006494733170e-01
1.619070376784553233e-01
1.446389739556983300e-01
1.797381114421835735e-01
1.084734269221298009e-01
1.710814667745665651e-01
1.724585412773706194e-01
1.516892993547956370e-01
9.985279893878751256e-02
1.713978758946297920e-01
1.890503639648035417e-01
1.350967829018144828e-01
1.750788450701970533e-01
2.088563692668275185e-01
1.663104736240201831e-01
1.892168370088123108e-01
1.891117949652691421e-01
2.507138202717225095e-01
1.692940199460788719e-01
2.068200181983606278e-01
2.213640206985087455e-01
1.818045977103751876e-01
2.154740782195084525e-01
2.137030804793747796e-01
1.471454896726447359e-01
1.435758246409989947e-01
1.656313371188156136e-01
2.086491596986777552e-01
1.689587068951050042e-01
1.500312005833482898e-01
1.496944910973952991e-01
2.248457619079049230e-01
1.933773887034016259e-01
1.961455607677010105e-01
1.800801791189605150e-01
1.981898222091613149e-01
1.268338133518241151e-01
1.818661363293156696e-01
1.664036401797880094e-01
1.837735506547324149e-01
2.353989054118980351e-01
2.645577704286386500e-01
2.716610808536946142e-01
3.266795884138868900e-01
3.823919466504417941e-01
4.361797793405652324e-01
5.059811464488501720e-01
5.399461283563794511e-01
6.457472922136999749e-01
6.547658211370555037e-01
7.157527695853849181e-01
8.973540144392609941e-01
8.359186516079163409e-01
9.362138639519032024e-01
9.910162427997996071e-01
9.987177874193923222e-01
1.018189187684984676e+00
1.116630900558680528e+00
1.086545036113246265e+00
1.107886780739766541e+00
1.038733473829001941e+00
1.018250610086260499e+00
9.779246092978518545e-01
8.805692960022533100e-01
8.460390795796466357e-01
7.882101720521064170e-01
7.388899569216395014e-01
6.375093493224803787e-01
5.428810955925593706e-01
4.792310439154735535e-01
4.783936373502469253e-01
4.013345533883468375e-01
3.418781212794002600e-01
2.741134344103530740e-01
2.459578354373243292e-01
2.580081157307381190e-01
1.872422039569752450e-01
2.441421916440767170e-01
2.125735046506756765e-01
9.476317006497379791e-02
1.605558158435191340e-01
1.700967729822740471e-01
1.456102659420066281e-01
1.738855745866089986e-01
1.333195758468990466e-01
8.521893426636677205e-02
1.589824512849103422e-01
1.285453955813827265e-01
1.057600940992274446e-01
1.239528942164550840e-01
1.285778285378578745e-01
1.753092587877950748e-01
1.597753957192201979e-01
2.091459165584454161e-01
1.431766030289182978e-01
1.961311087057943658e-01
1.493302589086272780e-01
2.049675942878513013e-01
1.800491948505689166e-01
2.049620841631319967e-01
2.095635722816653335e-01
2.222845876991350056e-01
2.570765237013621918e-01
2.316891096468280120e-01
2.485407122763723387e-01
2.691127358273188719e-01
2.217285503515078471e-01
2.189437519916039299e-01
2.508129575094322217e-01
2.732523036345478884e-01
2.364683581874528762e-01
2.407189894939874009e-01
2.585912090112370554e-01
2.751543825020742462e-01
2.286761307760099005e-01
2.913824011269172676e-01
2.850399936993001648e-01
2.265191815980382162e-01
2.938969036704462967e-01
2.277013036139149960e-01
2.093627487170034440e-01
2.959452863648898702e-01
2.888248775218749120e-01
2.101403647400249819e-01
2.895308208322291410e-01
2.694378563821137607e-01
2.128301850230590320e-01
2.410046813903880258e-01
2.453011129438413540e-01
2.371805777598974818e-01
2.740430816929589897e-01
2.491307266344261473e-01
2.419923593714812526e-01
2.324655278910570111e-01
2.381329562343797168e-01
2.501944869718356612e-01
2.125933892198038078e-01
2.232752280105142206e-01
1.966990162380624629e-01
2.304868065870501748e-01
1.648465330323347910e-01
2.003831383018868928e-01
1.834401459274659640e-01
2.052295736205606846e-01
1.740370113272469710e-01
1.783631965054400248e-01
1.291533085635226119e-01
1.402011930790856009e-01
1.759095428663606242e-01
9.364574511454731853e-02
1.175785909429101217e-01
1.631432966499667681e-01
1.592732095603266451e-01
1.620635452246804442e-01
1.032047449015586205e-01
1.347856532797150619e-01
8.083998585529120207e-02
8.915157299584494655e-02
7.239701292805168775e-02
9.852853903630798271e-02
1.164024206445496978e-01
5.553788003733300255e-02
9.819142379225481720e-02
9.489186792327826414e-02
8.044470735048860066e-02
3.955295525681040703e-02
4.335649214908635779e-02
5.796477154883060423e-02
9.543644051891694846e-02
5.936762304057579404e-02
8.080042747373335221e-02
2.890417782403991581e-02
5.241691761345032563e-02
2.381816647602721243e-02
1.992673598560181641e-02
6.551826991778647580e-02
4.992798457853241806e-02
-7.049832703224524419e-03
-1.690816412384702622e-02
-1.189320621919784035e-02
2.278565598551981000e-02
1.204854870766830163e-02
5.075636368483775474e-02
5.283774760420820171e-02
3.347847145588223744e-02
-1.795666162572727084e-02
-4.366389193401003579e-03
5.447659007367164352e-02
5.819328378577828809e-02
2.646198766483274026e-02
6.658364780273844097e-02
3.981106758088642089e-02
2.983269961536408332e-02
6.166597042838410647e-02
1.329103204798971760e-02
3.588477098849631591e-02
9.238732586718673145e-02
5.962843872026678260e-02
4.207220557732929689e-02
4.724899350775783879e-02
-5.661606129840916247e-03
1.147771296080782183e-01
1.310379024199092579e-01
1.100680883928552706e-01
1.746213184221429016e-01
1.144959761069422044e-01
8.763619623572349582e-02
9.101146915243700508e-02
8.644149035231130096e-02
1.845515639099920002e-01
1.037567447291757317e-01
4.890605974976686143e-02
1.494547640109359921e-01
1.032038928605838318e-01
1.111802843225352666e-01
1.177791566183970656e-01
1.647005464647725570e-01
1.728599151257454725e-01
1.732994193634943281e-01
1.790007659151857944e-01
1.948154019782083746e-01
1.416548235808758882e-01
1.148822747227255803e-01
1.319604439045766742e-01
1.287187298946302072e-01
1.773313964291958755e-01
1.192657563609847843e-01
1.104782278299271392e-01
1.836044491430088854e-01
1.299865931745514680e-01
1.494117509978742375e-01
1.109479462189325027e-01
1.326853034985827073e-01
1.534320466891872237e-01
1.590463945361382803e-01
9.394041212253614881e-02
1.159137234453118392e-01
1.331581856019624643e-01
1.297849028992918152e-01
1.862962133690425348e-01
2.464793338012819246e-01
1.599359912307180553e-01
2.015372809043534941e-01
3.359482652909238642e-01
3.173185867896597401e-01
3.935279141827096039e-01
3.379417100241089433e-01
5.121884656723930673e-01
4.908555696369560351e-01
5.755474748672674279e-01
6.705320325979562401e-01
7.901281198888620017e-01
8.178546550566802020e-01
8.095451629700521901e-01
9.061545090067451014e-01
9.503243134544712145e-01
9.663447085035663520e-01
9.830543188189349024e-01
1.059141309727683611e+00
1.030634575287664445e+00
1.053875510557011230e+00
1.035348384370679664e+00
9.145819487006076054e-01
8.964347994782753126e-01
7.934717432554818650e-01
7.964822534307354207e-01
6.932621944853921692e-01
6.010135168952291940e-01
5.770425107995209579e-01
4.568414817964010499e-01
3.899365588602269894e-01
3.887759025165709037e-01
3.601325384209228542e-01
3.023767408079869878e-01
1.846563148907926499e-01
2.075520352934722146e-01
2.016594872185553944e-01
1.196094488456206917e-01
7.185591764369961276e-02
9.860425450061688357e-02
1.303440486997358427e-01
6.330325178358932325e-02
4.999466391582710334e-02
7.560304495307247630e-02
6.945108891218851332e-02
9.809326101195421643e-02
7.919198246327392721e-02
9.915347800935796208e-02
2.826351962221185232e-02
1.097043019913595402e-01
1.304415735189368153e-01
1.322217505928318937e-01
1.089650499079589385e-01
1.578484669986904287e-01
1.272439568289218670e-01
1.113996876562773630e-01
9.142663333050386754e-02
1.153146477280219684e-01
1.253694582007273961e-01
1.216208747021121084e-01
1.996323659716680854e-01
1.792743265024850097e-01
1.946393453951772157e-01
1.591022021416402810e-01
2.011863124073041686e-01
2.244700036997150649e-01
2.045452267615686659e-01
2.486981511138446344e-01
2.175023346474899144e-01
1.883432101925889834e-01
2.074887792932091357e-01
2.497432255426856318e-01
2.170066493684557341e-01
2.540706674007157106e-01
2.119509678003243247e-01
2.066535530392248354e-01
2.894086623886347742e-01
1.734755420573448614e-01
1.761664167561396710e-01
2.558200193654952548e-01
2.100357124001006603e-01
2.087444264724716003e-01
2.243853386891234702e-01
2.254168731733251496e-01
2.479424197576761690e-01
2.163955789061134116e-01
2.746345432469142200e-01
1.865008807155381643e-01
1.736823999459672918e-01
1.673236642239629979e-01
2.309209668226367418e-01
1.702408066954196331e-01
2.079771253169382661e-01
1.955879921831071844e-01
2.127515220114289951e-01
1.993128288988172125e-01
2.194917717291967607e-01
1.548444958445129027e-01
1.746792567621989201e-01
1.994637025924789198e-01
1.710408654823805941e-01
1.494431587066007983e-01
2.126244901510870589e-01
1.103046466995506319e-01
5.664985034418684035e-02
1.285415113979879731e-01
1.084687646352718859e-01
1.430523206875049524e-01
7.341225413368218655e-02
1.140999568520416618e-01
4.095128778944653186e-02
1.276005222734959699e-01
7.044950511465167264e-02
3.111687368109768842e-02
4.474873194725234593e-02
4.831876256137621062e-02
5.599358389410925840e-02
6.727535104566481627e-02
9.548185971190552290e-03
1.379692853151544274e-03
2.585871200309695916e-02
4.677202986413399322e-02
3.129425374796399040e-02
7.820352541037471628e-02
1.466375564825440903e-02
3.057689781785675326e-02
4.094741079848661369e-02
2.429694553686000125e-02
2.556887491833131909e-02
2.425992959042636704e-02
-1.488125823022879574e-02
-5.865339691167723718e-02
-1.930481158344599102e-03
-3.776854937664927969e-03
-2.002765946429879013e-02
-1.505085851487737714e-02
7.347581568754681103e-03
-4.832270720737505409e-02
-3.898112837746954551e-02
-1.388383068905920531e-02
-3.733339585362566160e-02
-1.225618604577975376e-02
-1.620544562389902160e-02
-4.214413716246191710e-02
3.453087501883617128e-02
-2.861241039917933326e-02
3.792438984206476793e-02
8.388020478309735073e-03
-2.601307626428875017e-02
-2.863997662203787709e-02
7.771634707238933570e-03
7.892691263468198937e-03
-1.639281716366806224e-02
4.380335494245554684e-02
-6.897274106061507259e-02
1.754211220932833104e-02
3.682339973610831985e-02
-6.149694474011667411e-03
-1.757904183752680843e-02
7.914950248094090868e-03
4.354173678784468982e-02
1.599333617837610938e-02
3.427286847491404359e-02
2.787146386552409594e-02
4.235016699946406171e-02
8.540396219986871873e-02
8.485310531243285548e-02
6.246762603604483904e-02
7.579719075342138124e-02
8.903364920729224530e-02
7.775624406827731649e-02
7.137395899315199244e-02
7.478040627082925551e-02
7.068319108780016236e-02
7.730135579432347026e-02
4.048249432201311837e-02
1.041343611006784187e-01
1.435573819599930412e-01
1.238380909781265915e-01
1.170340594782867116e-01
1.695475909253185975e-01
3.968197411776080985e-02
1.020152105807896614e-01
1.369923358126778901e-01
1.091440831773643899e-01
1.199577042396165472e-01
3.283585906880076566e-02
1.083736088486203231e-01
1.366172771889924142e-01
8.292713075236524123e-02
1.007901559538928599e-01
7.882527479671797010e-02
1.417020932481438400e-01
7.326341960786650342e-02
8.018288025542383290e-02
1.102694233955251873e-01
1.138298470081249014e-01
1.084961304059407217e-01
1.285816895050489461e-01
1.027487017143938475e-01
1.836836598929415254e-01
1.583765144255617208e-01
1.690769039219563452e-01
2.476257293207626831e-01
2.377803946453968809e-01
3.354819668695692148e-01
3.522907071354979269e-01
4.045356932683689122e-01
5.260681001734209827e-01
5.648376101936071203e-01
6.221679354014255647e-01
6.334225312251406947e-01
7.850050485629846975e-01
8.286665403533510776e-01
8.529211062712893643e-01
8.807715036482905990e-01
9.423601731220805355e-01
1.003821782214824765e+00
9.973519989280548170e-01
9.909842311256827907e-01
9.792024822479092894e-01
9.661777166061162880e-01
9.013481430007906914e-01
8.850032308289793592e-01
8.808968388665814331e-01
7.537952511388563703e-01
7.272034121437755960e-01
6.165236335193483574e-01
6.211441782444122595e-01
4.848617857544372245e-01
4.432387065011749727e-01
3.991151296639876001e-01
3.204626702994654575e-01
2.887596554355837397e-01
2.029980784086880541e-01
2.178017950767306421e-01
1.616433153402919709e-01
1.647116929806728414e-01
1.384558308174698438e-01
1.439830153256311529e-01
1.268732348469775728e-01
5.641581157693896509e-02
7.578860458921088394e-02
8.949946205321865356e-02
3.781295808520965945e-02
9.514848326361338704e-02
1.150038846314257734e-01
2.257227739005988887e-03
2.993802338065144203e-02
1.063999195749281423e-01
3.337463227277628897e-02
1.006724119282125796e-01
1.460916270920363524e-01
6.334482661462786934e-02
8.345506009739062092e-02
9.521583588044452151e-02
1.094348637411339809e-01
1.424300301090377363e-01
1.181798122707680837e-01
1.053603962621256496e-01
9.868717363023521427e-02
9.437321473696767826e-02
1.611988213397193004e-01
1.317139143682812541e-01
1.820811818457287179e-01
1.532234708732714834e-01
1.635964833096886784e-01
1.387132967115541071e-01
1.449791903515520175e-01
1.911323026113141144e-01
1.737330076218677466e-01
1.565832029791976998e-01
1.690467318453234002e-01
1.916102769851356358e-01
1.565629853020873707e-01
1.845031750779669300e-01
2.142469900732801857e-01
1.990316000963452958e-01
2.226571521452661018e-01
1.782850480035029772e-01
1.860435579283659657e-01
2.103326202504520737e-01
1.746109656471725446e-01
2.142087610280726251e-01
2.600258015285931146e-01
2.051722311097680662e-01
2.091041743358197369e-01
2.101361550061919270e-01
1.759388036893383689e-01
1.552809201178512177e-01
1.791798005199947696e-01
2.178283667884316488e-01
1.766745955637346877e-01
1.697825286486604746e-01
1.630177152123505890e-01
1.942426695580378726e-01
1.729312936828034941e-01
1.511499724821566693e-01
1.881177449917759703e-01
1.353497005562670497e-01
1.205600572828517958e-01
1.304135814847352526e-01
1.316093214506399156e-01
9.600087161929662938e-02
1.372875824733437444e-01
1.376975118281840160e-01
1.249758154798873699e-01
1.021198719255352050e-01
1.384328157887142474e-01
1.129730574814685196e-01
1.031078208878666164e-01
5.616651679703371647e-02
4.915649670322018439e-02
1.301500570593577821e-01
9.631832776247800654e-02
9.576843865214293428e-02
5.977162807908743131e-02
5.440397240972821846e-02
5.285811841344334461e-02
6.119065348982783564e-02
-3.728440318096309936e-02
-3.144704150677302135e-03
4.264811145644018670e-02
7.166546649099041211e-03
3.710465355510929319e-02
5.886507561072854000e-03
2.453494209718994068e-02
-1.592386780435534749e-02
4.901039953450042619e-02
-2.870249836128844698e-02
6.262773316600525608e-02
-3.675791471572015245e-02
-6.339742084694507951e-02
6.658863979401033473e-03
1.566142038473825049e-02
-6.080312078222230993e-02
-3.846508538516037190e-02
-2.244945279893874324e-02
-2.988068397000576831e-02
-3.460434218601350642e-03
-2.770373367811693188e-02
-4.861503740336631935e-02
2.087447209099707601e-02
-1.734887607898344397e-02
-1.209173991231128620e-02
3.063131139159199628e-02
-5.111240702890589016e-03
-3.853036190932267180e-02
-1.677112045376051921e-02
1.439286080567804549e-02
-1.315827487651225619e-02
-2.970172285390801359e-03
-1.679173743171435279e-02
-8.766398804692571156e-03
2.871746487128438302e-02
1.813592766119108413e-03
4.704208852754680759e-03
2.925502146385326740e-02
4.583623118940220731e-03
-1.719732668064217346e-02
3.497370464053382172e-02
2.699028112370446125e-02
4.612386294784115437e-02
5.081148769799871678e-02
6.911059765180270487e-03
5.022039258715186444e-02
3.251759338653415626e-02
4.929711664671074245e-02
3.601025758813288652e-02
6.140743808788073216e-02
7.362163293805271125e-02
8.157400464934347339e-02
9.256944550171836150e-02
8.835252772723552195e-02
1.611141412525600725e-01
1.308638569268348872e-01
1.741365927406683389e-01
7.608677474414568542e-02
1.430887458505444298e-01
7.115029116670176790e-02
1.340304068741381693e-01
1.014339979776196776e-01
1.014886186033263082e-01
1.209049867768069719e-01
1.337515581628035966e-01
9.399693537573519664e-02
1.296820444094945179e-01
1.156216700145186599e-01
8.740734491996440814e-02
1.146262071064217125e-01
9.902925724327016344e-02
1.498782385267309891e-01
4.983591115510303815e-02
8.852968406594685646e-02
1.342398611818973742e-01
9.211815258802319439e-02
3.595946973490989074e-02
7.304921826361623904e-02
1.229333077164700971e-01
1.342136779718539064e-01
1.299533975812985909e-01
1.489064238835305087e-01
1.583315085917786080e-01
1.400607006403332688e-01
2.349049329432924271e-01
2.609738378142836823e-01
3.492801029916540179e-01
3.843409874024268924e-01
4.234015362147229289e-01
5.630535804524812171e-01
5.898107564579793127e-01
5.828870228265721209e-01
7.427403192519644870e-01
7.745031660306577193e-01
8.616666481989094795e-01
9.422049121650291070e-01
8.998751515139372659e-01
9.747578733555419817e-01
9.951444415742064509e-01
1.034132145063805464e+00
1.003420234682907530e+00
9.924360731367928290e-01
9.808647088807879166e-01
9.673282764836498293e-01
9.349202364613860006e-01
7.808191845470000558e-01
7.575912096770189841e-01
6.622745472543394296e-01
6.127373439734654648e-01
5.423112246463116515e-01
5.063706217774694984e-01
4.555226487437021854e-01
3.807050767631447452e-01
3.587589464290104613e-01
2.700714904121097604e-01
1.841613343670776837e-01
1.608334742983191790e-01
1.672966227444980247e-01
1.461529542004769144e-01
1.542383213659560826e-01
7.463005229787256223e-02
1.215196177031968860e-01
7.295062006523886367e-02
6.429150521811508034e-02
1.263829163109628784e-01
4.152706317083208754e-02
5.062857130534428179e-02
6.357636655253033620e-02
3.319220432105719765e-02
8.258309801470795075e-02
1.335683983950090581e-01
1.043929673206442366e-01
1.134401498920981077e-01
8.875203023217417830e-02
1.289615503247371620e-01
1.005514433402787122e-01
1.371772303059302089e-01
1.305982455716286350e-01
1.218954516944930760e-01
1.607240132255051135e-01
1.319839227969087092e-01
1.999445742120386782e-01
1.282276876535614063e-01
1.611363778840423644e-01
1.896196848540484536e-01
1.424723764305420859e-01
1.736077825926164997e-01
1.859795435005753006e-01
1.777927261720060881e-01
1.858619479428256227e-01
1.925509532180870731e-01
2.779541944787499719e-01
2.249837467824863657e-01
1.865901819537855721e-01
1.852569048713622879e-01
2.380943160884861909e-01
2.383971201304361798e-01
1.745904329968801516e-01
2.317147894900341565e-01
1.452806045642088539e-01
1.969072321390532010e-01
2.370448130409956999e-01
2.545767886899480414e-01
2.128746964001680120e-01
2.033476810984375105e-01
2.148844309170962474e-01
2.252083627519465003e-01
1.973188112957757201e-01
2.360262993484177896e-01
2.559559632824142672e-01
2.490175060039105936e-01
2.634508282161315273e-01
1.944326752381744239e-01
2.403613662710743226e-01
2.076668340099546151e-01
2.699339088179191770e-01
2.075379747765609684e-01
1.968208572029874481e-01
2.336654167118132897e-01
1.873057470845571337e-01
1.636573730842078855e-01
2.184165525668401164e-01
1.565141754929914031e-01
1.326259301897624865e-01
1.839376076453903552e-01
1.448834616848309609e-01
1.637579176476892939e-01
8.566184329991230473e-02
1.502231473301766929e-01
9.929305422190196073e-02
9.556028619631445897e-02
8.618788937384121163e-02
2.101709467198207282e-01
1.242748390154460314e-01
4.495143134515527938e-02
1.520199498071133637e-01
9.530084584319126195e-02
1.252354379762723458e-01
1.186027206187369176e-01
8.482000012611883022e-02
3.477998625247791936e-02
7.517833059171136201e-02
4.482355680721553104e-02
4.385181716615907388e-02
1.255546914907827161e-01
5.309290026860075812e-02
5.655005245937020503e-02
4.703263794083362842e-02
9.448011093019573203e-02
7.417901796576656381e-02
9.350141292174193874e-03
6.660857176572912430e-02
9.141722826125926044e-03
1.885667551745873541e-02
3.750538999955541075e-02
2.700412428300515491e-02
-1.683607977281602330e-02
-3.677479201376072926e-02
7.525391336819731158e-02
2.367480198078230486e-02
1.920139093363291971e-02
2.046636678568054118e-02
9.927422462728201225e-02
-1.318800035634143213e-02
-9.741352522561723057e-03
2.226020469008879385e-02
1.827405260560063804e-02
6.186903032488712262e-02
-1.201434501561001594e-02
4.103174833583753123e-02
2.318908217970631208e-02
2.534780436118271030e-02
-3.005732734147359073e-02
4.542742089424308023e-03
5.704899058614854024e-02
4.543968908615290958e-02
-2.406230461050783143e-02
2.835650351320909320e-03
7.129026029547901044e-02
2.388605527371256976e-02
8.837824970574240102e-02
1.287568070845530877e-01
2.767142315613940057e-02
3.578699769151903048e-02
7.726579696227768579e-02
9.238504308646235119e-02
1.434900370885952292e-01
7.860833741841237454e-02
8.044901565744436156e-02
1.049833460821481684e-01
1.228692086434409747e-01
1.627157023390962132e-01
1.901399180799246968e-01
1.579939911012711307e-01
1.430566942548228138e-01
1.818005786968540649e-01
1.433819891055313489e-01
8.380760576931746419e-02
1.756905727480638779e-01
1.648606609010034585e-01
7.461926578966623924e-02
1.496660214824424018e-01
2.022153270044897977e-01
1.980054020854663810e-01
1.015130980192211485e-01
1.519746718163985932e-01
1.486661416354666254e-01
1.676427163516949759e-01
1.410467519345414145e-01
1.622824172100373885e-01
1.517823747952279645e-01
1.252689288475321572e-01
1.691202177595027278e-01
1.977758125603560346e-01
1.844659587215473351e-01
1.315640340794579921e-01
1.111948466903038141e-01
1.630687875331472414e-01
1.654601084917567966e-01
1.403265747370417427e-01
2.094579341718734999e-01
2.082174190494610888e-01
1.821253852008765384e-01
2.241733502636104880e-01
2.811451288751469768e-01
3.426920924159247428e-01
3.347193908723459788e-01
4.512413566887468752e-01
5.367173288328455083e-01
5.102773013926510393e-01
6.036536173111562986e-01
6.494725481957506208e-01
7.679592085005100266e-01
8.159733791019235793e-01
8.148986381974097082e-01
8.677085278908687194e-01
9.551582059629615262e-01
1.013971820046770222e+00
1.062276845186004293e+00
1.069222381865203575e+00
1.056042984952400676e+00
1.067440191805124838e+00
1.029660608915228481e+00
1.022528098299419819e+00
8.908737282497589671e-01
9.229954869297951614e-01
8.838909422028390361e-01
7.432616253203836454e-01
7.364815176342687231e-01
6.467261032683337962e-01
6.022705082044461644e-01
5.344288224775982643e-01
4.786331121577015457e-01
3.970366052310945748e-01
3.380270037716581744e-01
3.061251073309115278e-01
3.181347359089852778e-01
2.649832634506258944e-01
2.316123480808262025e-01
1.682279135478288723e-01
1.680974906198609842e-01
1.734939599318468528e-01
1.353754204684030071e-01
1.755297702890894207e-01
1.244587649604604884e-01
1.852773994666201407e-01
1.112549350537976045e-01
1.337440056117694676e-01
1.667504112930261184e-01
1.908013685136551452e-01
1.379485097587686282e-01
1.274780188406859638e-01
1.385210433984977452e-01
1.175308111323012938e-01
1.321422595401018918e-01
1.552802862939222650e-01
1.656946211108688283e-01
1.624346579738547292e-01
1.719095370599669492e-01
1.920169134320555693e-01
2.385958109321743570e-01
2.357600392276370527e-01
2.084076116724743188e-01
1.871749518307403437e-01
2.440332769546906255e-01
2.060325314377284833e-01
2.117027325035167884e-01
2.597547002222070356e-01
1.822750056561769638e-01
2.796511933339751454e-01
2.287526307110513690e-01
1.903309687871777289e-01
2.970000774032643953e-01
2.853196958832583396e-01
2.623923132966186067e-01
2.889946074403866860e-01
2.622738286341285696e-01
3.353329424836714034e-01
2.437647238021416751e-01
2.502424991291349321e-01
2.284198558711490745e-01
2.929291660713134737e-01
2.990410132650800357e-01
2.203158843261333044e-01
2.750700900450523401e-01
2.646994823250533035e-01
2.945109592936247522e-01
2.535302548577505477e-01
2.415165498606537953e-01
2.406373734627983707e-01
2.639793881772932727e-01
2.745053540396534819e-01
2.810995992373916952e-01
3.385131393958428769e-01
2.295149063612343387e-01
2.459837960967325710e-01
2.127196650435125014e-01
1.956806381070974044e-01
2.440687481965405636e-01
2.705103836002700768e-01
2.675102734470423127e-01
2.138424805710377463e-01
1.906522173342734550e-01
1.852556569460722113e-01
1.656432572182006124e-01
1.830826019988198161e-01
1.691198134306936551e-01
2.394814033131351105e-01
1.915924430944737911e-01
1.586181591457483941e-01
1.307479495322026730e-01
1.471811662524104558e-01
1.551629403334000845e-01
1.227474217537615486e-01
1.566247214290177325e-01
1.304134466499845824e-01
1.244521242644121839e-01
1.371423232454983820e-01
1.348465288101335924e-01
1.522884097478729992e-01
1.392903784662478106e-01
1.168755192683609417e-01
1.202232464729606348e-01
7.851314502321206368e-02
1.129684046650321350e-01
9.487894623860916588e-02
1.204029502783088290e-01
9.998095740964674238e-02
7.539411310354401929e-02
3.959399100741128885e-02
7.191468230859850153e-02
1.516002435478109311e-01
9.783796040976072694e-02
6.251733926400053487e-02
9.792299485461264386e-02
4.761141913243591151e-02
3.337927555021525522e-02
1.170950626109330261e-01
8.125486750438398742e-02
9.576354035522099961e-02
3.770817588192671571e-02
8.984162292248278059e-02
6.049971911908439554e-02
5.253287257435235169e-03
1.068484883009297171e-01
8.721755969413477749e-02
4.972531790106335392e-02
1.198083187382434356e-01
8.423306018042187038e-02
2.601240739490536663e-02
1.111271221136418963e-01
1.006583936970733284e-01
4.458064032413199679e-02
8.182034048725847497e-02
6.022325568768470416e-02
8.703496835012419774e-02
9.164521035219314049e-02
5.281094079874806141e-02
1.263683372415429218e-01
1.178089797097528757e-01
8.813915345369596754e-02
1.736354651108308611e-01
1.177380554616142272e-01
1.025323960950496466e-01
1.066472666827288224e-01
9.890757836613370269e-02
1.540433207253585068e-01
1.257587441565888864e-01
1.133029975153505287e-01
1.467286790914693884e-01
1.665446987547469504e-01
1.806987100900820375e-01
1.416308856124000037e-01
1.819203745477363521e-01
2.078363970500202162e-01
1.899925633065245867e-01
1.645650543190069481e-01
1.983459110009926918e-01
1.905404007236315422e-01
2.336494473153660212e-01
1.883014369895262552e-01
2.032605514327675555e-01
1.780068040182794242e-01
2.259206088638474885e-01
1.781377401282221440e-01
1.391916345632173702e-01
2.402932039106504547e-01
2.398339447345278763e-01
1.769868351691238906e-01
1.671387769405756896e-01
1.974048713692490020e-01
1.985537290527134568e-01
1.596237402362863100e-01
1.808887527162045539e-01
1.605114647089795898e-01
1.686797165450514557e-01
2.030096767197565322e-01
1.833570413753345674e-01
2.206754734629395864e-01
1.577292828349028397e-01
2.380733621811068901e-01
2.179396837562171951e-01
2.084335254224096434e-01
2.653805420186350905e-01
2.946401276343285636e-01
3.246042827592554580e-01
3.482677667517787290e-01
3.774545815287461137e-01
4.507574648394698791e-01
5.323378987747588997e-01
5.611319701307045937e-01
6.777573736195910969e-01
7.223504445867310331e-01
7.930763727233463012e-01
8.729154720274293622e-01
9.467097048296666539e-01
9.588674300279318441e-01
1.027056784114024346e+00
1.000209406527817757e+00
1.121111148538597169e+00
1.065492120374777585e+00
1.088041333220013840e+00
1.079199340931761952e+00
1.091179045976737649e+00
1.051480951875531034e+00
9.500444925912716609e-01
8.892074174454823732e-01
8.710860849400925421e-01
7.300367922468241622e-01
7.480314324054743169e-01
6.791179651257054362e-01
5.684233236283213753e-01
5.168465416113076083e-01
4.582775760006164156e-01
3.813002845129344620e-01
3.776504635534453924e-01
3.149857860165617418e-01
3.093675979144449584e-01
1.989565074329338323e-01
2.566761939818854588e-01
1.917022444182616137e-01
1.633872855338884267e-01
1.346632628514267127e-01
1.808308083070368499e-01
1.792995678298162920e-01
1.573138189401933340e-01
1.569523990530233837e-01
1.725307717285158027e-01
1.244558644607865194e-01
1.832121483246553217e-01
2.199727908158309875e-01
1.732498010739164651e-01
1.639645581050727663e-01
1.725227513495773968e-01
2.091686574866889470e-01
2.046813194353120924e-01
1.587086924861131898e-01
1.945890075449646650e-01
2.236820069331454663e-01
2.097574186779867511e-01
2.043789102359891696e-01
2.167211802317065006e-01
2.816718564379703804e-01
2.072701051664062877e-01
2.008370049001692581e-01
1.976110119443713065e-01
1.986911166799416317e-01
2.893213206741093724e-01
2.377461417227023088e-01
2.589088692752140042e-01
2.692610361385802675e-01
2.746866219371453810e-01
2.917849840157438202e-01
2.913203625990823387e-01
2.374492236961882607e-01
3.059724280452791323e-01
2.980142210744838316e-01
2.960751441245031423e-01
3.206772927230336911e-01
3.825778262142360830e-01
3.210188448952061568e-01
3.214745970025284505e-01
2.524837954614341240e-01
2.932161586882765514e-01
2.886637123596280663e-01
2.963475032897296968e-01
3.025622071061385143e-01
2.866139737050305558e-01
3.175018464206142976e-01
2.979673348694648061e-01
3.104786943860765591e-01
3.332507500147687818e-01
2.781006093048172811e-01
3.468999237441970918e-01
2.455251745430708787e-01
2.381846586551503997e-01
3.554004283554513810e-01
3.423030114277467728e-01
2.867073134886859442e-01
2.430749877661966263e-01
2.563221999373243021e-01
2.473225345387757290e-01
2.479462402782766361e-01
2.719254936246782717e-01
1.943382673298901242e-01
2.298429779155305441e-01
2.653479676707165558e-01
2.452574578397898053e-01
2.108910071845894185e-01
2.025601957088122296e-01
1.817486724544606636e-01
1.834327539235903470e-01
2.029774003333387755e-01
1.810434557199203376e-01
1.154874444476725603e-01
1.880281185768469254e-01
1.437252000576640099e-01
2.001195747494576294e-01
1.466571233142064667e-01
1.984627852541412940e-01
1.415811658571139442e-01
1.116949360696259663e-01
1.314708253478560074e-01
1.398080339160655827e-01
1.714185001798793628e-01
1.133523643822816063e-01
1.174847383204742357e-01
6.892238854967942807e-02
1.067980763175694209e-01
1.305725551889207470e-01
8.920478217804297949e-02
1.254393474165650113e-01
7.142831848410390039e-02
9.692661380546334360e-02
1.212754054218045663e-01
1.386488906659460729e-01
3.319108753850297244e-02
1.029701231263619315e-01
7.764019341421182774e-02
1.626727729333125039e-01
7.233480056826907534e-02
2.940200123974915161e-02
1.056002829141371169e-01
7.037142937267570897e-02
7.708403962365635576e-02
1.109132307458753075e-01
6.104189840458804084e-02
9.564222503652475282e-02
8.853777798274965749e-02
4.528651950462492942e-02
8.973501994722396513e-02
9.468380652936130015e-02
1.024760622330826848e-01
8.396024808555205277e-02
7.446384155232362023e-02
6.446263647426542231e-02
5.623782114069377641e-02
1.115356017239251540e-01
9.826870730997935843e-02
1.530706871041972450e-01
9.488770335902563247e-02
8.612512579948401747e-02
1.108163269999921652e-01
1.820914258622127746e-01
1.200111370203384986e-01
9.011119647580798087e-02
1.255967234212211070e-01
1.567632536319397696e-01
1.194799945527880436e-01
1.888753590125223647e-01
1.445111965639947482e-01
2.042999139878608206e-01
1.703541921462617403e-01
1.743306857532187781e-01
1.460737371810090501e-01
1.749688005216186726e-01
2.064933548665017771e-01
2.083094123985198276e-01
2.026177745837745570e-01
1.728724544147618170e-01
1.937860561579818064e-01
2.040476456347199985e-01
1.445107844760897542e-01
1.989824573866763868e-01
1.640589976775572445e-01
1.702977453818267095e-01
2.267560852259468684e-01
2.157380823719715346e-01
2.403395104931287107e-01
1.849898285155112121e-01
1.962014083527529040e-01
1.999642322438874853e-01
1.732971067045583069e-01
1.752594792791625222e-01
2.450086926645613228e-01
2.042550098428206895e-01
2.008686444706274665e-01
1.593452560521021466e-01
2.042589262204449752e-01
1.404907563642717738e-01
2.035420380878093238e-01
2.003315080656090375e-01
2.665694809263349230e-01
2.468418730962289864e-01
2.964932485488217528e-01
3.142338743558936720e-01
3.541899706136014681e-01
3.620216036473275500e-01
4.273120125402073977e-01
5.013185191062622392e-01
5.598645356162562647e-01
6.017060272419778588e-01
6.912483598723219158e-01
7.100151435093814412e-01
8.010148687275746582e-01
8.954204970998279611e-01
8.797607715642885573e-01
9.398726248547102369e-01
9.927551201678382897e-01
1.097202132900807925e+00
1.122097625429127721e+00
1.046844319995134054e+00
1.086935002271613548e+00
1.002602661924903993e+00
1.075524195856093490e+00
1.018100894314304838e+00
9.831530410989318680e-01
8.801117406098200036e-01
8.320376115008273343e-01
7.347306531551698328e-01
6.614522622737684099e-01
6.058161631081475651e-01
5.829357916516459959e-01
4.698243656622700937e-01
4.532891317024534406e-01
3.765546290740439117e-01
3.672770843191577317e-01
2.590158135196932720e-01
2.954890193378895691e-01
1.981633274720628890e-01
1.327748364992256125e-01
1.615166029299841544e-01
1.742062823182232989e-01
1.223638595379777094e-01
1.777143278949901428e-01
1.302318405774460230e-01
1.244459525702890923e-01
1.020919145122694272e-01
9.503608433744353823e-02
1.789701146766662643e-01
1.919557924759855982e-01
1.384485200675914240e-01
1.709159075464267985e-01
1.359697849998167951e-01
1.418749266545605847e-01
1.726680187052894166e-01
1.729056082374529901e-01
2.005980386013027084e-01
2.023986863756762900e-01
2.391147599612369334e-01
2.213027342654767804e-01
1.837201934527548097e-01
1.792623924493194354e-01
2.550354146630609553e-01
1.675869016016124646e-01
2.374440078909040575e-01
2.236109706990119517e-01
2.645912267022272890e-01
2.421159263054305788e-01
2.375659469882443475e-01
2.108823914373586794e-01
2.186819919436550630e-01
2.746390353453606048e-01
2.952198707259758859e-01
2.668166360886343735e-01
2.507303285730557718e-01
2.779844077364440613e-01
2.346489336163278261e-01
2.866728676528652597e-01
2.905595452138479140e-01
3.224431153268499384e-01
2.604512791867817922e-01
2.597778706027229489e-01
2.763801135888577232e-01
3.235248975719869913e-01
2.596181178675400769e-01
2.652186135526212740e-01
2.434701754354102188e-01
2.766479645480993677e-01
2.879691190686179958e-01
2.848200444124823205e-01
2.952419086713261032e-01
2.518594133460489992e-01
2.370190017812899841e-01
2.269012814293067948e-01
2.874086323413306832e-01
2.612842779090754908e-01
2.841554125249032281e-01
2.760809651700099621e-01
2.435643210304851425e-01
2.088211525236894628e-01
2.081484987917323892e-01
2.440147466381237806e-01
2.428409851052519552e-01
2.092106919634808548e-01
1.969664218436609493e-01
1.519623933472130373e-01
1.444757418370187785e-01
1.692308815375879183e-01
2.128975112950559911e-01
1.513982523030640848e-01
1.906375816788238864e-01
2.228752288755663225e-01
1.576558513556514940e-01
1.285750682143050605e-01
1.500846394516483218e-01
8.182758593333547270e-02
1.622153652163620674e-01
1.212868543183213133e-01
1.455490211698549086e-01
1.149632032166795076e-01
1.406020577034728658e-01
1.222442672035972816e-01
1.232839280990807307e-01
9.107696137656341728e-02
9.962107511385358272e-02
7.080252072551455889e-02
7.113813372403704482e-02
9.666266456162500575e-02
7.803721095839324939e-02
7.633672694201143472e-02
4.087309793106214117e-02
8.011640304999427531e-02
3.248686323593084208e-02
3.857156890421352402e-02
7.426669495234144991e-02
7.051447421796429305e-02
2.818504685782499686e-02
3.561499612106651391e-02
6.128204434197874473e-02
3.526479984821655200e-02
6.710865776289016982e-02
2.443134139312638092e-02
4.360688926657242670e-02
-2.195884928227420652e-03
4.421662885690144651e-02
5.965784176286212381e-02
4.569119978690240613e-02
3.555972045293272904e-02
-1.359916965377648557e-03
1.598402679441971591e-02
1.229929540656826692e-02
6.747246955545246894e-02
7.422944250776888908e-02
3.365456295054854163e-02
4.404297476941767403e-02
2.769095983304146330e-02
6.172895149171932216e-02
6.131341884610851112e-02
1.052941352401950137e-01
5.709804715927016550e-02
7.895443030464265044e-02
1.452855665202072710e-01
1.656331159522775320e-02
1.056964026080056129e-01
1.113981702214713737e-01
7.727808739405493677e-02
7.201224506781073176e-02
9.156530099054591143e-02
1.568916343679780945e-01
9.683782009354610643e-02
9.948087088069491879e-02
8.476555062075287472e-02
1.057844066795144422e-01
1.642310683598180998e-01
1.386714253134341268e-01
1.160130115749665319e-01
1.253822068863709172e-01
1.331610077029322381e-01
1.229465791588225665e-01
1.537608200758361909e-01
1.285312695250094839e-01
1.307395033505138748e-01
2.060224239080462316e-01
1.360048131934252225e-01
1.162065509875294528e-01
1.486071171294166271e-01
1.191521493607809734e-01
1.644313379435062283e-01
1.762126988634957481e-01
1.203234686293504080e-01
1.583232408390572166e-01
1.748550409753973633e-01
1.398275286294342612e-01
1.694046939729046963e-01
1.170675845676018428e-01
9.973720529323791550e-02
9.495294317863028910e-02
8.410807134553702213e-02
9.219635916950422172e-02
1.509493137465868495e-01
1.302689264746142994e-01
1.322679761999357440e-01
1.717579033352725770e-01
2.421298707436637387e-01
2.321389043508154948e-01
2.426914063015946643e-01
3.092140922006011983e-01
3.830200057909265987e-01
4.208633581558840486e-01
4.720302941257162321e-01
5.517462388806702034e-01
6.059166317847163308e-01
7.145925136614929007e-01
7.050516087145596300e-01
8.111967168282837592e-01
8.480832090382767197e-01
8.859863608307392280e-01
9.225700443384809990e-01
9.702134880375039572e-01
1.019796961225276188e+00
1.034971987323372922e+00
9.741273430227106456e-01
1.016124208131086171e+00
1.015591900583135976e+00
9.482158657570821658e-01
8.781308824078664088e-01
8.670633085142536167e-01
8.367382021318885421e-01
8.151056929876193680e-01
6.550847204014585978e-01
6.256678460508853235e-01
5.393523303093913368e-01
4.210210551470391915e-01
3.297541612643142273e-01
3.327726991602797946e-01
3.395025538186434710e-01
2.884530520855934088e-01
2.148788862141830791e-01
2.119345369285863812e-01
1.504266781532667685e-01
1.509868653045411124e-01
1.459788074579106143e-01
1.351047344618547252e-01
1.346958579738718464e-01
1.042036169770145237e-01
5.614472788678985526e-02
6.600677446256493497e-02
1.228612727473561150e-01
1.270058162767899457e-01
8.279512009424969121e-02
9.233336224928341551e-02
8.025352454503340005e-02
8.827056678084127528e-02
1.209050971437128641e-01
1.548080444297935676e-01
1.627413918928268255e-01
7.954645902795930146e-02
8.270220207194779738e-02
1.246721931582856352e-01
2.040103802833183599e-01
1.129892417276986277e-01
1.572304732274944494e-01
2.116571743961446761e-01
2.207515463873911121e-01
1.341934581038531915e-01
1.910376803916027377e-01
1.505293460582664000e-01
2.200575013729254570e-01
1.965487154197190223e-01
1.878332137450006434e-01
1.746172950338245045e-01
2.340712156719800818e-01
1.878970256325866728e-01
1.511709266358175485e-01
2.043374016770370394e-01
1.420871486168774067e-01
2.888395835788886701e-01
1.793401749833670178e-01
2.161990780491380715e-01
1.935949834636705724e-01
1.984473781729919617e-01
2.727900591803069652e-01
2.158753248330866348e-01
2.671266033175806465e-01
2.523572491744481283e-01
2.317153302829070283e-01
2.210672426314682915e-01
2.173739638266564689e-01
1.889260475457902322e-01
2.034961421757089939e-01
2.387587834099920980e-01
1.929046830249126487e-01
1.596355814643490301e-01
2.055015145816045108e-01
2.200145074536586087e-01
1.694786657552584952e-01
2.525360079775069710e-01
1.877117767885161104e-01
1.662364768850049801e-01
1.927080747408446149e-01
2.127603181483640749e-01
1.700883402168601177e-01
1.388556836400317018e-01
1.686398185027899177e-01
1.118486587347314182e-01
1.047252243815499223e-01
1.433122408883992227e-01
1.456405193798939735e-01
1.454988829355122193e-01
1.444279358437902672e-01
1.393507916462382590e-01
1.003751623798328496e-01
1.535254036805487887e-01
6.738474063598270947e-02
