1.033899932202249961e+00
9.912317550476810180e-01
9.315151986958525310e-01
9.371512136337465382e-01
9.287691186195790038e-01
8.602833720891787106e-01
7.986559092297700335e-01
7.467992488479253677e-01
7.096702561761304429e-01
6.025325829302622394e-01
4.779948141194189093e-01
4.703082269008489469e-01
4.388397949733432446e-01
4.090380085216320794e-01
2.927078892098440854e-01
2.197112189068572974e-01
2.085465020553133875e-01
1.742848120222786346e-01
1.119238447307124851e-01
1.035160891614332196e-01
8.400283562945115579e-02
1.208835615751071291e-01
3.843550474937878353e-02
3.282032946545579422e-02
6.392478868350001675e-02
5.054281890156204354e-02
7.887657455950211616e-02
8.523479194917532586e-02
5.612475092249544217e-02
1.044569582672967289e-01
5.043398008455581699e-02
6.480304192680576281e-02
8.610125657828239520e-02
8.395988327447380384e-02
1.538340075072431867e-01
9.579861428280951607e-02
7.505897872876204913e-02
1.044908613912376438e-01
1.382733113764521571e-01
1.377485296620946098e-01
1.840866730695024656e-01
1.993313561732429073e-01
1.496002121244544569e-01
9.183897399838858444e-02
1.850613188961545141e-01
1.561269322930730619e-01
1.779683361418994969e-01
2.047311692764686719e-01
1.701501906172256107e-01
1.340357028463357580e-01
1.670309196972483423e-01
1.856278640887082942e-01
1.704068072373752241e-01
1.694460306499151470e-01
1.640017763480372537e-01
1.593873726275824021e-01
1.690241246706457312e-01
2.075354114916721227e-01
2.545554732200774328e-01
1.747354561403607343e-01
1.133717595844319359e-01
2.789914211695564972e-01
2.076885519993162954e-01
2.147989475523461311e-01
2.350115110124514350e-01
2.357413764613255358e-01
2.092479723816789983e-01
2.226370079375041278e-01
1.730376408666099708e-01
2.009515429565957578e-01
1.543983014729492509e-01
1.425855688587053804e-01
2.537502586764505130e-01
1.569303165580025472e-01
2.136170348829247168e-01
2.195202996663058181e-01
2.084880995488100908e-01
2.319317150629721103e-01
1.888539346625285886e-01
1.616506221454610537e-01
1.622886401041374327e-01
2.153937880832156870e-01
1.360642241819982889e-01
1.251588322525785113e-01
1.407992050865766176e-01
2.026928151271695233e-01
1.617653882998882353e-01
1.435864394194808213e-01
4.135099523436793628e-02
1.338364584673875646e-01
1.645845177467243903e-01
1.334009581717889303e-01
8.937311132192954366e-02
1.700112953716250153e-01
7.690322299407785500e-02
6.105307856108593140e-02
5.128534600067762017e-02
3.688208383906182997e-02
-1.021394322356282414e-02
5.461962431143199681e-02
7.026196411238103123e-02
7.224462159096604885e-03
2.869892596352802139e-02
4.364752177522383120e-02
5.723521001977164430e-02
3.712508247689590146e-02
-6.758480857217280535e-03
4.822658749738879813e-02
4.842381810211824483e-02
-3.105500810683108071e-03
4.490366647388839560e-03
1.082678978202955555e-02
1.099928264012333540e-02
-2.524263546655757667e-02
1.064955449920974850e-03
-5.134215145834946509e-02
1.295891925609163331e-02
-2.964661284065983615e-02
-3.041818569711624357e-02
-1.208442762616375454e-02
-2.322010139498295947e-02
-6.166186992977902570e-02
-4.396585497171819762e-02
2.876658601735946480e-02
1.855793954604811891e-02
-2.176963820003427127e-02
-2.976816095466386369e-02
-5.612982825980215168e-02
-3.371548989763970688e-02
1.402028935094160045e-02
-6.066073532444024585e-03
-4.451977686409072654e-02
-4.084015132493640232e-02
2.536742363341448758e-03
-2.018606791415280058e-02
-3.577089092617123656e-02
-2.391095072667034568e-02
-3.153651438603276291e-02
-6.142619730676100037e-02
-3.994044196078578440e-02
3.423912259246492118e-02
-3.184387113278942805e-02
-1.483792952014397620e-02
-2.816589329830394839e-02
3.133423273895009908e-02
-5.996345561588817263e-03
2.900436103728673554e-02
-4.746135714110290976e-02
1.289841524835594333e-02
3.952057561312657952e-02
6.958464369093787794e-03
5.378243056415166895e-02
3.081005421862682142e-02
1.000130563089730029e-01
3.213812846945542090e-02
6.789799247749472855e-03
4.759328197946242206e-02
2.813596753164618325e-02
7.072456577119570764e-02
1.164632214854658399e-01
3.661936796964871538e-02
7.237916071498333437e-02
7.273379618778286204e-02
1.333102580258330172e-01
8.274260741933968377e-02
7.714921458120560516e-02
1.611451737852797883e-01
1.495578499909455961e-01
8.577501715855108400e-02
6.604872876018197392e-02
4.760990852641647925e-02
1.468878961368488001e-01
4.972660156556149569e-02
1.728182685406919605e-01
9.317315815492413500e-02
6.141515396910441488e-02
5.890121878022910873e-02
1.731659239614338208e-01
1.166020861569947442e-01
8.639954087901835500e-02
9.282924290683666757e-02
1.039191841850107545e-01
1.357914538112124370e-01
9.104319777496856780e-02
3.264094177284715403e-02
5.896202781265730275e-02
1.185727218740117994e-01
1.149166455828267708e-01
1.104742919247478639e-01
1.241449960630224003e-01
1.211476269238114800e-01
1.624874311642958702e-01
1.992272528907935436e-01
2.329879161689762390e-01
2.358650781968230081e-01
3.211963182454174448e-01
3.318988048484904363e-01
4.529653770429986626e-01
4.814692015217522103e-01
5.737099389938854488e-01
6.179411877322555924e-01
6.717195760913587943e-01
6.950985867708867616e-01
7.739610142438057006e-01
8.851947055278530652e-01
9.144154553487982007e-01
9.337627608189444928e-01
9.206374069621060530e-01
9.572257361260496644e-01
9.957091155304874652e-01
9.750775692252432458e-01
9.587276963401176744e-01
8.234727750321749751e-01
8.322416188646620805e-01
7.799467607627479371e-01
7.877121075744855094e-01
6.819739727272785546e-01
6.017394580705391904e-01
6.011586744027217488e-01
4.947422987398211736e-01
4.117600908776452018e-01
4.041212108018422122e-01
3.336983667713637192e-01
1.853318624593116304e-01
1.655611297933201331e-01
2.079567203237155382e-01
1.434830013430278273e-01
1.102664224382064739e-01
9.397950863392720566e-02
7.987944000239899367e-02
1.297999534350308126e-01
1.492685154236294276e-01
6.221403213875872917e-02
3.210887547962314875e-02
6.915889766756554147e-02
5.291302138290931989e-02
2.869036296181042694e-02
5.101887142789557350e-02
-1.312447813234959154e-02
3.902135827177354716e-02
1.078485148544883199e-01
5.157076212747201127e-02
6.186967387271367219e-02
7.834915548232447569e-02
2.686189944433174659e-02
1.232136648383991562e-01
1.035036900151100614e-01
1.333912338492013738e-01
1.440936724637926214e-01
1.081798360343990267e-01
1.131563998521334102e-01
1.151506546404675729e-01
1.167917737020396918e-01
1.711732563293236198e-01
1.134534343247149135e-01
1.999647753187729915e-01
1.467556569077712036e-01
1.658889244957154063e-01
2.191557033948320909e-01
2.023560886927461278e-01
1.743224894435034533e-01
2.325408720553604203e-01
1.192513685689622072e-01
1.799862165066607733e-01
1.481896095800193658e-01
1.642902875284542319e-01
1.919831153881513541e-01
2.037068318947630741e-01
2.163769183990196521e-01
1.907910985432401674e-01
1.832749750285957990e-01
1.859175434951714223e-01
2.240752117910222996e-01
1.740403537537520695e-01
1.948110558471571052e-01
2.238784125208943543e-01
1.685010797702619911e-01
2.113656472610899451e-01
1.381949599655684091e-01
2.300149395301611110e-01
1.853970923702329965e-01
1.834846767203118512e-01
1.800290554440336366e-01
1.868550875386083554e-01
1.768648755045553744e-01
2.035347621594832124e-01
1.471163898598772390e-01
1.885038738050512364e-01
1.493229960131208789e-01
1.683449499386308057e-01
1.673735266012802703e-01
6.798075275183815269e-02
1.696849203465774780e-01
1.433069661704054198e-01
1.590886981590841631e-01
8.948039924947995272e-02
7.503937778148356275e-02
1.027907756201735523e-01
1.205514457365569059e-01
9.165489600718162988e-02
8.272739796594966166e-02
1.138833674549124958e-01
1.006939272133642593e-01
6.035655338767270672e-02
1.032953917807804545e-01
1.187753206068358214e-01
3.406420282021359325e-02
9.661221959902793754e-02
8.424699443528921305e-02
5.540185832473289856e-02
7.672142100478132609e-02
4.445798814826989326e-02
4.219412984971319946e-02
4.514832308047390941e-02
3.397473589922100912e-02
-2.402675627258570729e-02
1.308806292882803979e-02
-1.138027459821640622e-02
1.720773620278680249e-02
2.141861277499625127e-02
3.278913757110799021e-02
2.468060492634843728e-03
2.304297016609764548e-02
-1.761523704367043072e-02
-4.529314732084062378e-02
1.305483539894711914e-02
-5.317763640974139394e-02
-9.474468647176811920e-03
-6.663287341913555484e-02
1.351852467202296210e-02
-4.265555945389847697e-02
1.521363189091320262e-02
-2.138800484004915389e-02
-3.792415911544792795e-02
-5.663527332675197257e-02
1.094629313821999378e-02
-1.466760131850154691e-02
-7.128836156807150104e-02
-6.125390110219425949e-02
-4.548293452574189710e-02
-4.815052665147111916e-02
5.539174153447574966e-03
1.663958474907669544e-02
-2.800998964001111258e-02
3.472419858037791018e-03
1.966215453821590353e-02
3.913640189712866424e-03
5.809638273161062128e-03
-1.147467773247798362e-02
1.988766384022640221e-02
2.352085197052550258e-02
-4.285553764203406391e-02
3.685465537109959555e-03
-3.386271875174116930e-03
-1.513695886466425930e-02
-1.822771555951910316e-02
1.093729487158801028e-06
3.757462759555542375e-02
2.182194921196049103e-02
-5.773394036281263852e-03
1.140950172803806006e-01
8.153619716003829287e-02
4.362772856827921292e-02
1.904524898539335098e-02
4.907025693890907508e-02
7.331109319999640217e-02
9.174259248098207142e-02
1.159467143627985197e-01
9.436773257726366326e-02
6.573759456948553848e-02
5.420429841395304343e-02
9.849957442809686992e-02
8.984360271057173497e-02
7.163875566412430951e-02
1.032615334933339180e-01
9.863964550113848984e-02
1.252102163739923224e-01
9.876587592942581706e-02
1.083314779519271437e-01
8.036338751786498147e-02
8.520450485361444337e-02
9.466570318671328754e-02
1.502970674909136495e-01
1.351761967367960116e-01
1.304761024292221128e-01
9.713942232994721149e-02
1.593386163918664444e-01
8.562889607103635337e-02
1.168554949525674735e-01
1.037692829143032347e-01
1.132933165793826857e-01
1.079710125974995133e-01
1.355401079980078083e-01
1.321200073515035600e-01
1.540975873832634013e-01
1.146369185906850885e-01
1.220934750885834669e-01
1.288314852208269357e-01
1.125853288007580832e-01
1.334907219240046850e-01
2.582058742412891572e-01
1.684353935636245803e-01
2.615956804265592850e-01
3.430206197084598729e-01
3.493832498485557880e-01
3.765408667778165075e-01
4.242344842715269904e-01
5.129471247561044889e-01
5.609049635081876373e-01
5.890454090076738813e-01
7.352707487525225183e-01
7.652888832858756318e-01
8.458678474287503191e-01
8.652782580916041910e-01
9.201484036812115352e-01
9.986825911454474403e-01
9.636436862338594311e-01
9.882741650925144228e-01
9.937374838650439024e-01
1.039195055947835344e+00
9.924515367614316075e-01
9.282636668012415049e-01
9.220360391556502444e-01
7.942024991457440342e-01
7.904716521252233008e-01
7.749669104170565648e-01
6.427993491353400923e-01
5.586385859466554971e-01
5.056771182636780049e-01
4.559365100538061433e-01
3.849819918389429385e-01
3.602766051686299154e-01
2.805125410260155272e-01
2.141622585287419334e-01
2.359168656624481830e-01
1.730039876528148557e-01
6.987837120011952674e-02
1.695885080069316486e-01
1.221182588363468047e-01
7.935312902335273089e-02
1.258972799974922563e-01
9.561259634083901782e-02
1.016162104862528143e-01
8.465794746471737298e-02
7.490603028746611880e-02
1.076211961951493573e-01
5.863964949070644972e-02
9.720665675967200825e-02
1.086799270718474264e-01
8.186593812207020038e-02
1.805049235863004364e-01
1.404934182508734974e-01
1.021769705857797639e-01
1.125580135239920426e-01
1.219492429845206172e-01
8.564369217568801318e-02
1.980683161358182953e-01
1.407751391868656277e-01
9.069509847737936004e-02
1.565322341706231191e-01
2.424901421000395518e-01
1.562963807603712230e-01
2.003422577082730749e-01
1.897002552846698831e-01
1.924392876957226606e-01
1.971150166350080779e-01
1.664687550809635375e-01
2.434298164853228030e-01
2.472483359995785723e-01
2.491316064375467265e-01
2.023970549757651838e-01
1.956913142747393197e-01
2.649895189484509639e-01
2.378955742170738852e-01
2.058838924281465588e-01
2.588181326873902899e-01
2.535476809663392284e-01
2.867162607525720053e-01
2.069965772063373788e-01
2.156064854810785802e-01
2.775464796995307792e-01
2.083527988996194957e-01
2.267730610426502702e-01
2.101500474726790690e-01
1.779882131986378624e-01
2.503497420259286899e-01
2.387562658903002732e-01
2.173490390950372497e-01
2.816228026626487746e-01
2.693812700010924099e-01
2.302713300399046314e-01
2.080959185409000378e-01
2.782099920403410809e-01
1.978230705932353395e-01
2.379834353893467702e-01
2.028339442650805013e-01
1.338818767521439690e-01
1.436570943807664036e-01
1.619895931856150106e-01
2.091234556186445381e-01
1.626300013314062598e-01
1.974796768157270066e-01
1.445080020931996945e-01
1.676953233428304102e-01
1.997404625558498459e-01
1.252775772651910924e-01
1.811961243854539327e-01
2.151965786487197441e-01
1.212246274406388324e-01
1.495008487843198508e-01
1.411231173452236753e-01
1.762789229805000468e-01
8.349022651557146124e-02
1.211188271801274391e-01
9.994974183502082499e-02
9.321699729936834544e-02
1.372301558323918980e-01
1.132617274337229113e-01
8.170379382723404194e-02
1.063303838889782943e-01
9.104544951144011300e-02
7.708364526174228681e-02
3.991829215868481634e-02
7.896301277531640739e-02
7.173426192568731208e-02
1.523176282393695277e-02
6.326852159850621105e-02
6.406066146642458436e-02
3.841774120666784087e-02
6.633497930452755820e-02
4.114410770012515151e-02
3.882242651426638658e-02
5.453555386269394456e-02
4.879783660302540460e-03
2.475501493625538799e-02
4.756732108929041108e-02
3.826936863053950755e-02
3.863504247243318077e-04
5.235387112536706716e-03
3.492544014437656136e-03
4.419426801567753749e-02
8.790265876648362120e-02
-1.083423636041084930e-02
6.222690033291482237e-02
9.828475389241076582e-03
4.178332047275666594e-02
5.064948528058229454e-02
7.691453634678951934e-02
-4.563131380912761187e-04
4.297056381924405088e-02
1.393136177685238772e-02
2.733243207501331873e-03
-2.291377397767293753e-03
1.485135607676704196e-02
-9.696964968245409822e-03
-1.938097805707804724e-02
3.186787992823608695e-02
3.998385490094555350e-02
4.934072856003192398e-02
-3.700058758926422567e-03
4.705947225574101667e-02
2.377612758312096231e-02
8.464348630692924980e-02
1.132726052481420470e-02
1.168005934443465538e-01
7.142479216663047414e-02
2.496230390319718190e-02
8.015088050546645415e-02
1.192538234929595986e-01
7.568157011079705565e-02
8.404168001306408509e-02
1.191450637116177880e-01
1.451481127174139851e-01
1.618033613780999191e-01
1.372105402419895037e-01
1.536583932868930968e-01
1.626019017619248497e-01
1.531231120743226648e-01
1.149343543474161955e-01
1.562061975802095382e-01
1.457194528789572674e-01
1.102563452352977869e-01
1.340988879587029781e-01
1.633388038079202076e-01
1.851541605868873286e-01
1.594350358074605456e-01
1.692581262028979294e-01
1.773470509932673911e-01
1.483027794152358136e-01
1.555684911819872340e-01
1.937929381258040318e-01
1.860410618524644955e-01
1.847067881337156325e-01
2.371675132488970661e-01
1.199266895795932097e-01
1.797897131436743123e-01
1.633336194994156609e-01
1.814011805299631241e-01
1.555360533913839050e-01
2.125552559987664569e-01
1.566742650097432410e-01
1.596362163495517184e-01
1.536336567910372986e-01
1.671862150434257899e-01
1.280720632185293473e-01
1.687251622181875632e-01
1.863495937840124461e-01
1.879524636368289092e-01
1.994619714033450675e-01
2.428803668424997786e-01
2.860957837517105196e-01
2.652882774546671540e-01
3.328660676302446775e-01
4.303315311615715233e-01
4.275693727442457237e-01
5.353359910720540960e-01
5.750590425965567132e-01
5.948687264282103149e-01
7.097976761877416996e-01
7.613826607517382161e-01
8.270223163579889514e-01
8.881091211881889658e-01
1.002195897681826153e+00
9.913581056745629505e-01
1.027343822929519757e+00
1.046433024066812933e+00
1.049746345308812723e+00
1.094859892975445170e+00
1.014774923334292422e+00
1.057105863583726935e+00
9.809806043822186794e-01
9.680711950953517775e-01
8.440109291417734472e-01
7.974252406729166465e-01
7.137393692993890815e-01
7.143580019136661630e-01
6.067714526878722481e-01
5.333788666027605707e-01
4.941933510003301278e-01
5.145912978264739479e-01
3.333177072984661593e-01
3.171523764240802290e-01
3.128480656955903161e-01
2.426526974974937967e-01
2.170385563722847244e-01
2.383073723559693269e-01
2.162263880246487746e-01
1.609719984566926609e-01
1.520540694602195986e-01
1.376158002016993342e-01
1.118312770002858059e-01
1.160570319464608868e-01
1.679769642674711072e-01
1.151744576547886756e-01
1.385341758218142094e-01
1.187607633403041513e-01
1.656418923652194231e-01
1.175311169314472437e-01
1.745188773200679333e-01
1.664395307504495936e-01
2.083775728464545285e-01
1.660142712190319225e-01
1.852568547762517837e-01
1.308473067200975337e-01
1.723544267612952541e-01
2.070097889467051033e-01
2.271723318411462689e-01
2.155446777521732582e-01
1.958830268766860172e-01
2.353350656447006917e-01
1.653131599917694872e-01
2.458021378557743164e-01
3.175308213896081422e-01
2.734941869795838310e-01
2.674766713907567039e-01
2.439489737453514606e-01
2.447496542754888926e-01
3.041949908555363624e-01
2.379808247291452794e-01
2.121928452447547353e-01
2.527608721009118598e-01
2.677132694202767338e-01
2.674557369937187734e-01
2.850928704943915815e-01
2.782380325037776547e-01
2.816213322106183581e-01
2.028593317391327033e-01
3.324761669629046623e-01
2.556184227596316472e-01
3.097401001288160871e-01
2.761205287626129490e-01
3.176114309398193614e-01
2.682057589164937306e-01
2.525543968309515441e-01
2.842092365500410445e-01
2.651561275345873936e-01
3.527077882486746030e-01
3.116155295004813253e-01
2.742724269245420121e-01
2.200324512740220173e-01
2.376077936955455772e-01
2.592782147897000899e-01
2.291745985556035703e-01
2.411846431174219096e-01
2.525356352785478320e-01
2.680120579489927990e-01
2.451610763090155132e-01
3.021088293072992093e-01
2.214295293470887049e-01
2.032605614139676165e-01
2.372040832138909427e-01
2.388785254512910128e-01
2.376344253238465709e-01
2.610169627217203692e-01
2.262249874473081790e-01
1.956557814496752423e-01
2.437712912993988956e-01
1.595975736470094386e-01
1.685679980404553024e-01
1.523846726013167729e-01
1.466346522914105110e-01
1.251071126731948535e-01
1.551689048164113238e-01
1.778207361311515411e-01
1.322781344010128535e-01
1.264094966512467333e-01
9.054201463219740953e-02
1.452186401810075800e-01
1.025611014805753868e-01
9.885153994399537014e-02
1.206585444145715780e-01
1.080658934530866755e-01
9.968255703448899996e-02
1.569530481110980591e-01
1.110884176171992310e-01
1.582623402668686396e-01
1.010877534327864480e-01
6.820615962118142805e-02
6.727070147530118949e-02
6.003295975137694362e-02
1.088842358741589633e-01
1.281856712951139898e-01
7.416687026016596795e-02
4.845927741853622850e-02
6.551572923369003432e-02
1.167460950062280955e-01
6.430874798136657078e-02
1.028059452319812911e-01
8.432177800161048953e-02
-1.190954778183900969e-02
7.005716337967236862e-02
3.762412599145553704e-02
6.799269378425523702e-02
5.259371360919737337e-02
5.914719067712614908e-02
6.426471107921558068e-02
8.346938101056597392e-02
5.623317960311779995e-02
5.787655466199542742e-02
9.866322589127926590e-02
6.560132979445110202e-02
5.028959990792808421e-02
6.698887098002509477e-02
1.915248176177697728e-02
8.261188944798443512e-02
5.398146220286005603e-02
6.367504386154675122e-02
1.180612898748749640e-01
1.038947519827367744e-01
7.009312731358872950e-02
7.442181388661446573e-02
5.050315594493865606e-02
7.287183872213374991e-02
1.252663545750846708e-01
1.239228913284238509e-01
1.458225246368136108e-01
7.488902084084952948e-02
1.228090686012437704e-01
1.451984228109576280e-01
1.218760201983666025e-01
1.214658213383933150e-01
1.426535934696477326e-01
1.658784660387396248e-01
1.231423105600715218e-01
2.078482705895295934e-01
1.663669382265266783e-01
1.510312728039242547e-01
2.020357700917046195e-01
1.843370441410305260e-01
2.423065391508362199e-01
2.004957521803512610e-01
1.195670010949150541e-01
1.714691743205379315e-01
1.957820146671323536e-01
1.829767437398443775e-01
1.681878923990224317e-01
2.316071821742550774e-01
1.845451364868519462e-01
2.114059100587280249e-01
1.538639643774673549e-01
2.032998199002895023e-01
2.060156661086635366e-01
1.961215814100013277e-01
2.272099608168928753e-01
2.276955480506633878e-01
1.854754434692162668e-01
1.583333720988182314e-01
1.825140875935555851e-01
1.932002936078976996e-01
1.673756178753560697e-01
1.560599891444401366e-01
1.583337326777800591e-01
1.684309881991765678e-01
2.320995229516496228e-01
2.227540773511709760e-01
2.543390088379562375e-01
2.574890735713001311e-01
1.831531813138550513e-01
2.519481575144387198e-01
3.048562348090187446e-01
3.072327945830019558e-01
3.899780451637492318e-01
4.219203299064404611e-01
4.552302692718729338e-01
5.655865719388366575e-01
5.836252101769897616e-01
6.703545017338131684e-01
7.651761497879909779e-01
8.281608604992993783e-01
8.733273182255956169e-01
8.939839637256420390e-01
9.582701970490485888e-01
1.020522241260967133e+00
1.023341986270506432e+00
1.044455752566018969e+00
1.069250909696174867e+00
1.099664883779654989e+00
1.066988376998619925e+00
1.027111157175386147e+00
9.726933613975555781e-01
9.079888264839925949e-01
9.034856511927535916e-01
8.564687798324968071e-01
7.774479013692436880e-01
6.922413884915002980e-01
6.148922203583135904e-01
6.240220302317358581e-01
5.077494348664643997e-01
4.707035266859719291e-01
3.880839267841388329e-01
3.352648482623736270e-01
2.892790474314377858e-01
2.402165097541710259e-01
2.130606434603549981e-01
2.294863862031686352e-01
1.464589950285212216e-01
2.459633431890510258e-01
1.565312601007377291e-01
1.314012870312351866e-01
2.287495643699863912e-01
1.674952420950587828e-01
2.033355050639914230e-01
1.502188944715445174e-01
2.083467217702084928e-01
1.141388515783910429e-01
2.408287831593649564e-01
1.178852696930150767e-01
1.808176326178656534e-01
1.991579420471212836e-01
2.016639125375205566e-01
1.922530507297914304e-01
2.143259668723663525e-01
1.852254240928792040e-01
2.443118235207217270e-01
1.823624383235980806e-01
2.158634160121759571e-01
1.728046633101515406e-01
2.276788538828793118e-01
2.528690746447531112e-01
2.120463726594901399e-01
2.496476449615291360e-01
2.794290683212449777e-01
2.237243504513749537e-01
2.372490492383560468e-01
2.180896921530797727e-01
2.892835391990095095e-01
2.503228578655887770e-01
2.679702129802288280e-01
3.047279036892982518e-01
2.089140275566696847e-01
2.919913173411355367e-01
2.997884732710418554e-01
2.739833783152638702e-01
3.114698812126567296e-01
2.575706582958826041e-01
2.821404326642612537e-01
3.074847697009684966e-01
2.270432342162713724e-01
3.192694727259129395e-01
3.209406125054273806e-01
3.019178543534988823e-01
3.077571945080905813e-01
2.995242924725493028e-01
3.016242932344241345e-01
3.090033991181668216e-01
3.034242415887929978e-01
3.484261366149202788e-01
2.797494011014620696e-01
3.090440227503097326e-01
2.265794738434913635e-01
3.140591911699365246e-01
2.852329218995091065e-01
2.267082073551191235e-01
2.730340301655730384e-01
2.614709394602448556e-01
1.932513762546319291e-01
2.744376922686430631e-01
2.948967770247096776e-01
2.714512152249479726e-01
2.317245951152315520e-01
2.471774145026123526e-01
2.331565099840366140e-01
1.626906221148440301e-01
2.294955611595734246e-01
1.487590061680836295e-01
1.711741451529387448e-01
1.534631781792483440e-01
1.777019519967156791e-01
1.315306006267642214e-01
2.161952465148415659e-01
1.458610678609019162e-01
1.421414336271195900e-01
1.714130421253974579e-01
1.241903720267652778e-01
1.747402241392690403e-01
7.937402782206071095e-02
9.539759607074776993e-02
1.127505455375799465e-01
1.288306313896377953e-01
8.799078213558647610e-02
1.396441603000471987e-01
1.154918385852745644e-01
1.474206237436111733e-01
9.365144375120776354e-02
1.218964324176724512e-01
1.097356431585732317e-01
4.656536451648851660e-02
1.189636580697630008e-01
5.903953881095794221e-02
1.416715630676784188e-01
7.204743901192812994e-02
9.807354583149829885e-02
5.362064665249796636e-02
5.380934356152781983e-02
8.259127817117056791e-02
9.777937872521338947e-02
1.037135730926209837e-01
5.171544987968595963e-02
1.099580049756904987e-01
5.743622375097132138e-02
8.472617566384731125e-02
1.696898342995181372e-02
8.286348015948596935e-02
2.544268878820798996e-02
2.864448597701125740e-02
5.353447481059128710e-02
6.704204199990236590e-02
8.649360833753486077e-02
1.070487755964998067e-01
4.306643925019651431e-02
3.561887337077250526e-02
8.439929240315968695e-02
8.101416921000956228e-02
5.353089432031366002e-02
5.123835755708537609e-02
1.236756579262530131e-01
2.785891658463813397e-02
3.691805645332099650e-02
6.923818066349196609e-02
6.890134658758034769e-02
9.733643216598039660e-02
8.337134599035858629e-02
1.001603284978840880e-01
1.018413719751762314e-01
9.133161309214488099e-02
1.289499810398484492e-01
1.252234735340020388e-01
1.294947378977447938e-01
9.629134907290148870e-02
1.722390713074856972e-01
1.434742718971628028e-01
1.187422225499444456e-01
1.570321315032582876e-01
1.002396098381574119e-01
9.750104931515787832e-02
1.838250387672296926e-01
1.230211132351550218e-01
2.013931186634020376e-01
2.030355456482318688e-01
1.829377322840226305e-01
2.092662302447242939e-01
1.860601797806746283e-01
1.614166421938036389e-01
1.922522785511751042e-01
1.846580628985954597e-01
2.203262717572199991e-01
1.654564381407550022e-01
2.164035968325751513e-01
1.624143407448895293e-01
1.715677753878971645e-01
2.192879937916847877e-01
1.971006695850610335e-01
1.486705177988229265e-01
1.728423160773833178e-01
1.298578095094111151e-01
1.600048240864838378e-01
1.546850425966309339e-01
1.271054007882433112e-01
1.419390014914297948e-01
1.861669670277940891e-01
1.589204193983221325e-01
1.666940377651575100e-01
2.125050372505342122e-01
1.633223167759804417e-01
1.555100111821499653e-01
1.948134886710592983e-01
2.479075286667426492e-01
2.298125964116018993e-01
2.661312131903414979e-01
3.358508220839478420e-01
3.255213163394553577e-01
3.994351561009455986e-01
4.740448776211232396e-01
4.874655162532794406e-01
5.717089227378513439e-01
6.788986784812602870e-01
7.219378683604358304e-01
8.146079333820530621e-01
8.343523914095024585e-01
9.229900831018548191e-01
9.568516998960681086e-01
9.841766980241144491e-01
9.919722544080932236e-01
1.080293893562946916e+00
1.019622744274637727e+00
1.056467969701765597e+00
1.059903138980052173e+00
1.022552618094037635e+00
9.465304188625282000e-01
9.048787889235652138e-01
8.342315826555202207e-01
8.407115880141484698e-01
6.881432107510581098e-01
6.412803475276527276e-01
5.272422048585941878e-01
5.009527573609142692e-01
3.985217914698653274e-01
3.817361721439484490e-01
3.304414559849783717e-01
3.115764873596101325e-01
2.386413815410619310e-01
2.129888696343048560e-01
2.225446302032735579e-01
1.470715013164374807e-01
1.636757017537535108e-01
1.681238385630696164e-01
1.149772215927890584e-01
1.213466036871859027e-01
1.646926170053637228e-01
1.006977243938226713e-01
1.542046378065212719e-01
1.733840981019259542e-01
1.606786438406067608e-01
1.603276317925408645e-01
1.280776541002990043e-01
1.764050236400916960e-01
1.340454772045871212e-01
1.078272751852085987e-01
7.523308214275656325e-02
1.865667147224043532e-01
1.968252719080053614e-01
1.539990889879052638e-01
2.108833890110880516e-01
1.604125394807656979e-01
1.723805488853167867e-01
1.678882657163932035e-01
1.861225897920184280e-01
1.729337817117659881e-01
2.139503138044568653e-01
2.608388034284415125e-01
2.149831869626880332e-01
1.947808310228526518e-01
2.285510743057423411e-01
2.166950872662812833e-01
2.055003433181907813e-01
2.366464109481459521e-01
2.443162416974107298e-01
2.281149032605549465e-01
2.647283923778834813e-01
2.891582679538872713e-01
2.221604740191953087e-01
2.532787402838589386e-01
2.351920337597160071e-01
2.389743058720810720e-01
2.428164238249654605e-01
2.288361525623508475e-01
2.388497179230424650e-01
2.170010261030984322e-01
2.301265140824596545e-01
2.387837380108222551e-01
2.542104781513757628e-01
2.620221154165061073e-01
2.466085479097105126e-01
2.867763495043448296e-01
2.633021979390629541e-01
2.516226811988126477e-01
2.303072485257848800e-01
2.609407619516711518e-01
2.110603956607677856e-01
2.183200412965550508e-01
2.384432812947880898e-01
2.255382433228783901e-01
1.541292866856181498e-01
2.253259304741880020e-01
1.660649131912241838e-01
1.768291234950486179e-01
2.200660019277505819e-01
1.857815686362175589e-01
2.052607910650037504e-01
1.973069334611415315e-01
1.596152318186885022e-01
1.980897279052156734e-01
2.045625365697582576e-01
1.651923928233154371e-01
1.658093592697202912e-01
9.835103166447460576e-02
1.541542815971245484e-01
1.205405265968807760e-01
6.739705233806241036e-02
8.537591470480199174e-02
1.077056448051525589e-01
1.418120078534475526e-01
1.414397184929810369e-01
5.372478749328284120e-02
7.572557276282826377e-02
9.293824786347013034e-02
5.323343463483529853e-02
3.762781765226032304e-02
4.331664883829095675e-02
9.413448211320812886e-02
3.595611023466107475e-02
6.672637821566926308e-02
7.814683971140587437e-02
5.438908511855895106e-02
4.582569972128057445e-02
4.027309850768039101e-02
2.398767954953609505e-02
6.002037124770849032e-03
2.212438765825546286e-02
8.561358780969665488e-03
1.110565784597993336e-02
4.144896941358142822e-03
3.298635481994433710e-02
-1.466820595701252838e-03
2.690384703727171159e-02
4.653456918408001991e-02
1.519576814965219527e-02
3.905752482179877111e-02
3.343383665121995793e-03
4.301733202663301364e-03
1.821758069792149895e-02
-2.346483513496251672e-02
1.842825676566894888e-02
-1.708698151541518384e-02
5.171483580011335124e-03
5.642818146454111478e-02
-1.317110625905502930e-02
-2.147627811301196926e-02
4.124768412960497926e-02
-3.262306759691323277e-02
4.044759497743840443e-02
-2.458331849123601004e-02
1.918501505799499046e-02
7.353203584354995812e-03
1.353198708811279016e-02
-9.306261445890303546e-04
9.538597948512204938e-02
2.969333551462133985e-02
1.394336212616507746e-02
4.217955938301569396e-02
4.223747948737190117e-02
4.966886752348304707e-02
3.789768138408257381e-02
8.402642975709634365e-02
5.424034102385946049e-02
4.590140337399042231e-02
2.891492070415491861e-02
9.315243383459959059e-02
4.890792564954261207e-02
4.800728103859427942e-02
9.059659054228776098e-02
7.467931659685393686e-02
1.058508458908812844e-01
1.825219240422834288e-01
1.293893022585720642e-01
1.279431895110145767e-01
1.423935246401016874e-01
1.808424728863983477e-01
1.345287785500109135e-01
1.421021696143730806e-01
1.148545616100156430e-01
1.165397664399067668e-01
8.791061643673665771e-02
9.739928486558055432e-02
8.530066761187082847e-02
1.321558539410671862e-01
8.957860232459190220e-02
1.550262736904308158e-01
1.322237129862346983e-01
1.460138782915031408e-01
1.536767890125186886e-01
1.250104928214791633e-01
6.062584435679578554e-02
1.352010933527776904e-01
1.504765474076659726e-01
9.396689221408897896e-02
5.496963200924834259e-02
1.002190601107620788e-01
1.160350392562161798e-01
4.302769401927921539e-02
1.423439506632077634e-01
1.299547008188142172e-01
1.602662611892729239e-01
1.157036620029437829e-01
1.250044989819144581e-01
1.748338201869957531e-01
2.353238733512125758e-01
2.416334512061079909e-01
2.961299318420095306e-01
3.648901781667082123e-01
3.422408787560974885e-01
5.198673188013464008e-01
5.201174880284686886e-01
5.350045327717011245e-01
6.297355409275169347e-01
7.035985349107873876e-01
7.863514157255779846e-01
7.648899574501492049e-01
8.684985638232138871e-01
8.988762238766213608e-01
9.366639571481543136e-01
9.865631221732447109e-01
1.028267677120835000e+00
1.024104339904561289e+00
1.021278445287559622e+00
8.896365950907081377e-01
9.777440554724176058e-01
8.741045844653434482e-01
8.096014358249750131e-01
7.722921088050860305e-01
7.075529161968399094e-01
6.893328066213937344e-01
5.818833453856739890e-01
5.416399528903804717e-01
4.707373718440381882e-01
4.639047543843671795e-01
3.198931538017325549e-01
3.202946461279685408e-01
2.422309631060725055e-01
1.764651673633645390e-01
1.674071754447997995e-01
1.389267389889743687e-01
1.234810411958593424e-01
1.440547089013859694e-01
6.998507195918556023e-02
6.051602163842147858e-02
7.776631625632036970e-02
5.241617363390570911e-02
8.316188718814865322e-02
4.678546071317244565e-02
4.121366015510150721e-02
9.422060762562532721e-02
8.433380844089252704e-02
1.006460687311402091e-01
7.865610881299461843e-02
1.132941978770397873e-01
3.325752833120261542e-02
8.231244794841924284e-02
1.015092417496448324e-01
8.120038781918723081e-02
1.335202933238831269e-01
1.511744739151428818e-01
1.915649266185211752e-01
1.483086129804192521e-01
1.294020099415112979e-01
1.390428200450831986e-01
1.142046787721660295e-01
1.591329686910316066e-01
2.101410899930091503e-01
1.473013575220500915e-01
1.811072023581268842e-01
2.137890212054385786e-01
1.276464981810660759e-01
1.537946854734437152e-01
1.414104437135422498e-01
2.118706004383253405e-01
1.853282536627523513e-01
2.031027776440149646e-01
2.187700883680554764e-01
1.732639707701094101e-01
2.350055091362993898e-01
1.921917551607629226e-01
2.207134818876503868e-01
1.934850278203348317e-01
1.879090449151389064e-01
2.256470515813444599e-01
2.228531950976901654e-01
1.542293696460528274e-01
2.143256588278898422e-01
1.730047351879511197e-01
1.563096010577792183e-01
2.374793788819350715e-01
2.151301436602514328e-01
2.363279718227010717e-01
1.686766647471514835e-01
2.286638859357571496e-01
1.834417216584908195e-01
1.872620912960184514e-01
1.859190476707805462e-01
1.770881197005938767e-01
1.842102012579714676e-01
1.813821053443499809e-01
1.784497767452130068e-01
1.433366503689472715e-01
1.984223588495231116e-01
2.047686002895170443e-01
1.425942083595722054e-01
1.591956844945595084e-01
1.384669433777515057e-01
1.143424548200370622e-01
1.279904248574587899e-01
9.504487703741815174e-02
9.191049957641689305e-02
9.677897398422888320e-02
9.527371897822364821e-02
9.365395493062374233e-02
4.852903312091830929e-02
5.275677879677050791e-02
3.380457381852287890e-02
6.353059530995393278e-02
7.883825326106111420e-02
7.175072200794725685e-02
7.316036312709248146e-02
-5.144341025238238774e-03
5.701567496375925526e-02
3.966361977783978976e-02
3.680529366867455604e-02
7.044753374786735800e-02
1.527818046988147632e-02
-3.038616645069452255e-02
4.179025395514857077e-02
-4.310462807012657716e-02
7.089297015219868381e-03
-5.796668146925365583e-03
1.362873677310576237e-02
1.370568739433218608e-02
-1.219950326876938218e-02
-2.394988327933830069e-02
-3.827939969855537194e-02
-2.396194710534788747e-02
-2.934658474659143645e-02
-1.468688492148748082e-02
-2.646819184293350280e-02
-1.981137406918504970e-02
-1.146794476055787437e-02
1.022281204983814529e-02
-7.726625599063077776e-03
1.109914300982468155e-02
-9.540447052529252292e-02
-4.747917490428923970e-04
-3.478688433899371907e-02
1.992610484935555815e-04
-6.784458270218271525e-03
-9.426589330710485881e-03
-1.352850874385368857e-02
-5.623350491663300921e-02
-2.708300744570550991e-02
-3.147043659345427624e-02
-5.785289830448230031e-03
-8.008985877709345891e-02
2.170406290852787412e-02
-5.660822794359469251e-02
3.757883381400303757e-03
7.727074356943801348e-03
-5.423004073184346796e-02
1.006369895075644172e-02
-2.505566841096486252e-02
-1.747109289295968940e-02
1.220854881163419697e-02
1.344636228180857984e-02
-3.482190127468913488e-02
-1.556028855822494394e-02
3.858868896373730123e-02
4.054449099278299024e-02
3.474046832725403988e-03
4.400072032044970161e-02
6.550584198703993111e-02
5.312627532036645617e-02
1.278552557475998441e-01
2.287264589380655355e-02
4.232583477513559428e-02
7.848093786683615902e-02
9.647083740509969363e-02
8.260270523151963529e-02
7.577553641404363716e-02
6.687426014501209048e-02
5.874749465126682252e-02
1.528760808692637974e-01
7.591480289109051038e-02
9.693273182723859127e-02
9.084225118459410275e-02
1.105694381923328501e-01
8.704709105467724195e-02
1.495503830970737191e-01
6.812558502580698394e-02
4.999371320551623116e-02
1.363568180575140676e-01
5.420403992888907230e-02
1.040901178430799490e-01
7.031431587578867992e-02
8.479918594487922956e-02
7.252757441908649905e-02
1.225479515549033338e-01
7.137311638637686140e-02
8.292155051497634988e-02
4.198407272412969793e-02
1.061428608393604200e-01
7.217382560952891046e-02
6.292861343230160553e-02
9.268355317357637735e-02
5.712705253127375871e-02
1.193087956184414322e-01
1.449476184220014341e-01
1.870787869002309423e-01
1.715705372753021929e-01
1.753840712819136893e-01
2.283780897482973193e-01
2.967735481143510823e-01
2.978193000027253845e-01
3.502539199336057174e-01
4.510641452019791831e-01
4.434729730889955812e-01
5.555868158907670828e-01
6.508853012453024167e-01
6.919939280094598022e-01
7.042817647725241326e-01
7.857457208813015681e-01
9.043513714878956833e-01
8.460528554951217695e-01
9.304189047585011973e-01
8.995449091084904980e-01
9.812233559713876563e-01
9.687695110143700328e-01
9.915850030614383748e-01
9.719931371490267979e-01
8.531897238132863936e-01
8.950651963963468516e-01
8.346070739050260867e-01
7.881055965723809953e-01
7.087446789599988195e-01
6.052544876124269502e-01
5.679385914143524339e-01
4.692291337077766911e-01
4.514105153392569680e-01
3.089682044252295423e-01
2.420050973210674528e-01
2.660322981198386949e-01
2.322976806788959181e-01
2.264637963534746334e-01
1.050601600790681128e-01
6.609254821212394437e-02
9.049555806156350801e-02
1.184641416220540006e-01
3.799602711431207536e-02
4.429412871972183280e-02
5.882864616860078444e-03
8.456545538231152737e-02
1.005312133514725953e-01
7.463802334756286516e-02
9.091468673181613003e-02
6.238699979809327056e-02
7.356587215881515984e-02
6.288897711984502148e-02
7.788361603733830185e-02
1.421128122437838870e-01
7.874087801947950160e-02
1.061722919950083277e-01
8.023527929722260033e-02
1.652493937134258684e-01
1.384364226156535316e-01
1.058881971546887790e-01
1.053796765308527561e-01
1.423194165999122907e-01
1.585081599399528196e-01
1.902776570745686735e-01
1.486495026522186569e-01
1.194356835283552770e-01
1.206779799972585998e-01
1.731449288220905380e-01
1.551170160908309503e-01
1.833496047726346778e-01
1.800837868028862809e-01
1.928704123118697156e-01
1.842198149863884249e-01
1.759342633315431337e-01
1.936832252610185545e-01
2.282171543639063827e-01
2.026062025119020338e-01
1.941748781298900384e-01
2.076949108836032565e-01
1.692970618238088254e-01
1.871028486047493500e-01
1.503995286030623824e-01
1.961756489020955452e-01
1.930705575646765593e-01
1.856445636899730078e-01
1.811300832773659886e-01
2.254438993989184015e-01
1.949936665191811247e-01
2.052084675347265463e-01
1.958692907888295032e-01
1.942076660627897466e-01
2.039356234425510339e-01
1.722131799745782454e-01
2.342217021063508764e-01
1.750709344270680867e-01
2.081780561667136709e-01
1.625178446614075900e-01
1.612574554028642637e-01
1.590957465189231368e-01
1.206938737307252929e-01
1.482107726053364660e-01
1.808535323903145420e-01
1.540954998626033190e-01
1.184042630467855850e-01
1.438972481606322351e-01
1.484177603726407890e-01
1.168661513087000531e-01
1.263818346366919199e-01
8.252616982301652637e-02
1.193522149880610894e-01
9.793664702560581081e-02
6.702446902066200307e-02
7.236994779145783374e-02
5.532981055424351230e-02
1.174538371683244153e-01
2.777127493933156943e-02
5.892795712391027396e-02
5.958607296484347282e-02
9.037297486539759561e-03
9.616659839866548154e-02
6.135404600010775644e-02
9.177309373944209092e-02
7.364503980512340786e-02
5.560283870726086958e-02
4.053948847225832819e-02
2.219887380932982629e-02
-7.313502632767449052e-03
1.053959215899717000e-02
-6.007575087509479939e-03
-2.597922676685503890e-02
-5.495404723857531815e-03
1.004017099424050347e-02
3.022247624367235819e-02
-1.799901106821921379e-02
2.596463258812217734e-02
4.384087560915232717e-03
6.390722430143741528e-03
-4.385356561927344909e-02
1.474951978128940383e-02
-2.429130354990038931e-04
1.049020940901701504e-02
-4.755535791401502982e-02
-3.204982935999911575e-02
4.448676849285540524e-02
-6.904339457572944427e-02
-5.871121379223935566e-02
-6.359125136722890148e-03
6.995714575011011127e-03
-2.649632019112349579e-02
-3.118474879305162956e-02
8.698032386354331846e-04
-1.937107660236622730e-02
-1.064910132910702745e-02
-2.357393834293721596e-02
-5.627940360868909087e-03
-4.348792207303887186e-02
-1.012704280633939039e-02
-9.218986156764363837e-03
1.863416002449837933e-02
5.655242780848127038e-03
-6.295305630081904358e-03
3.054655546843494662e-02
-6.885544937725057713e-02
6.585097578363063864e-03
2.946280464361849399e-02
-1.673395566328545608e-02
2.151204779689198932e-03
-9.680498528185355750e-03
5.825854707680109407e-02
9.587220401516322044e-02
-2.887903075126659752e-02
4.476830824901452399e-02
7.920731538544781292e-02
4.001773501662243826e-02
3.311046881983652213e-02
4.082951077715887139e-02
3.936925648775547321e-02
1.036134975079329723e-01
4.638341293780117586e-02
2.686957395320627856e-02
6.949952076298719639e-02
7.220776163674119674e-02
1.096295070645523922e-01
1.582304966118448231e-01
9.573462375638881749e-02
9.611165672666624471e-02
8.931695736220353343e-02
1.223114541385429410e-01
1.038808958247113140e-01
1.141922006231459313e-01
9.863615279653223378e-02
1.244160926996912553e-01
1.532563791750756743e-01
9.561889533670080155e-02
1.553230048937892516e-01
1.147321446913087684e-01
1.004903353740107530e-01
1.188936453738924648e-01
7.779240745386017952e-02
1.160073212262776043e-01
1.017241838617423955e-01
8.931682237907694055e-02
1.616378911029497933e-01
9.072271319868163708e-02
1.191880738569660314e-01
1.290016045621101837e-01
8.430762244840779573e-02
1.166393434024649567e-01
1.577588403279893969e-01
1.038198652464155936e-01
1.430325109054435828e-01
1.429024730664919529e-01
2.087723365296638156e-01
2.098537178313910900e-01
2.432228502240098011e-01
3.180382838306459181e-01
3.399267408803191004e-01
3.770797046489058335e-01
4.887140138975920034e-01
5.189547091841882898e-01
6.129693024714063521e-01
6.805530804713165738e-01
7.041629015030271832e-01
7.836592552203623940e-01
7.896160496824592423e-01
8.994111002456008919e-01
9.676898104670540457e-01
9.760228479245273148e-01
1.028894856698703730e+00
1.041127484203172582e+00
9.954116582047871642e-01
9.824794910573484419e-01
9.955018320116495456e-01
8.907169339769833716e-01
8.384373196413235085e-01
8.315488088991221938e-01
7.353937988087184685e-01
6.574495512550629917e-01
6.077558553448350054e-01
5.665090202625354676e-01
4.909237869712674285e-01
4.031952874576784085e-01
3.949413516656520295e-01
3.767634236879326970e-01
2.481502890027396380e-01
2.389132525536116769e-01
2.453044057233623731e-01
1.412738125292521407e-01
1.388987816562284039e-01
1.188264140927244028e-01
1.283299591694372355e-01
1.250318250269398246e-01
9.644596788970097312e-02
7.852388314359105836e-02
1.575979828508351221e-01
5.482958344303696940e-02
1.281750641073311769e-01
9.879029660037304261e-02
1.042035466803033772e-01
1.085185186897943549e-01
9.383823861081816431e-02
1.612801878625021168e-01
8.764784003504508259e-02
9.739960097990457699e-02
1.103738622228438993e-01
1.161811734530283913e-01
1.503019486752201761e-01
1.190111414298648806e-01
9.821833182416125907e-02
1.749656023386643999e-01
1.275662162010691714e-01
1.309455793681935376e-01
1.759345540122578821e-01
2.145620444721160480e-01
1.557626773201775672e-01
1.792304417798464000e-01
2.234134503119585002e-01
1.688636875852553287e-01
2.166113054012901995e-01
2.711983801236974023e-01
2.006902013452342981e-01
2.403931720230093327e-01
1.936324905415229281e-01
2.493581280390658184e-01
2.531400644374635078e-01
2.484810242045098760e-01
1.846143024421594003e-01
2.747301836148730025e-01
2.357969381714104529e-01
1.726466006281485721e-01
2.652914508760806922e-01
2.581106733957780341e-01
2.850657535003513487e-01
2.516266180203518554e-01
2.447946493225909292e-01
2.595672825397599692e-01
2.031318836057505461e-01
2.450758953037497079e-01
2.832025027019105523e-01
1.875138973271162079e-01
2.372213309647941970e-01
2.518790363596429827e-01
2.058983685124314567e-01
1.997310118281456215e-01
2.518843309020978305e-01
2.346939538220080557e-01
2.456530536222060190e-01
2.430400486426554651e-01
2.507106701453145070e-01
1.947673858484766374e-01
1.848862776053964152e-01
1.599355396461286383e-01
1.927830816221409171e-01
2.046708967669292889e-01
1.649866742143976384e-01
2.115949216823226342e-01
1.446709454705938092e-01
1.982908008544845835e-01
1.102550292263431292e-01
1.334986248175622503e-01
1.448656910724011593e-01
1.715573850420930302e-01
1.449696337309610283e-01
1.689376682530308871e-01
1.068933956109129890e-01
6.730056117954807959e-02
1.133136125651479087e-01
1.121704495767165966e-01
1.259533970401366387e-01
9.005866265445150454e-02
7.896562671655282806e-02
6.267727333019423863e-02
5.684958226218529698e-02
5.055853762996981304e-02
4.872799313436072810e-02
7.024089021047739967e-02
9.530039794101649586e-02
2.064986012635867257e-02
7.974534692375265243e-02
8.165419124762823833e-02
1.949474189111814401e-02
7.411194995648219541e-03
1.110145078584988225e-03
2.401394140923720708e-02
6.261419622200353752e-02
5.530059041496633750e-03
2.037808561374676239e-02
9.536651321880521004e-02
5.736116976651044891e-02
2.805892979063445355e-02
2.024436536079751714e-02
8.859914967540644115e-02
-3.046597917267798022e-03
9.835937703721773021e-03
2.459756936913801845e-02
1.751582100303454570e-02
-2.728220068618397373e-03
4.101295935570425932e-02
3.009236930578274710e-02
3.898794136000575256e-02
5.880169893413326326e-02
1.219923675491682152e-01
4.933870460915541767e-03
2.950430483457476202e-02
2.724042299340916073e-02
-1.677431215395975422e-03
4.666936590437899268e-02
-4.867723395839124514e-03
6.179503375943951049e-02
8.624787460800631411e-02
5.686932488160958976e-02
1.062150652928761790e-01
6.694890574426515251e-03
1.793345254119173629e-02
8.816639120981346889e-02
1.032061909423274831e-01
9.193013518621313829e-02
1.448752540082194340e-01
8.353506548983261060e-02
1.217090681032288596e-01
9.572408227850376372e-02
2.378554655585862071e-02
8.594690534317894759e-02
9.499427820565500835e-02
1.261860493799838168e-01
1.305351872207091701e-01
1.802394160214906282e-01
9.301734412958050091e-02
8.966769238808201814e-02
1.560328751240328549e-01
1.310999067458308298e-01
1.430658754486565098e-01
1.327427538456392997e-01
1.561558502850796393e-01
1.236948967855584919e-01
1.566312397223839359e-01
2.177324231556366230e-01
1.745221573687675831e-01
1.686133936433482361e-01
1.929542906325335261e-01
1.492819367724488311e-01
1.257317748823670867e-01
1.532967768029291356e-01
1.554702147403519419e-01
1.002812266092321658e-01
1.673021626728997402e-01
2.123746976861647651e-01
1.854376623681254499e-01
1.949024464102948884e-01
1.275698187368447534e-01
2.388300226331515896e-01
1.031461956735749974e-01
1.583674981121490632e-01
1.386784505893331465e-01
1.692361382229804201e-01
1.509946486325625670e-01
1.516665473636113204e-01
2.293638484869032768e-01
2.055858040495999461e-01
2.471126577413430558e-01
2.027410743390238301e-01
2.793891430986840119e-01
2.780113827859785891e-01
2.939155264769685583e-01
3.204377304794334691e-01
4.088202326700363654e-01
4.201640188139998955e-01
4.964566844005749435e-01
5.841945544102156163e-01
6.244054264993529335e-01
7.101196164239150788e-01
7.692961594699410099e-01
8.359115920148847412e-01
8.549059795459054145e-01
9.071100449805182819e-01
1.052448099702859352e+00
1.057662922593260779e+00
1.061886924142604549e+00
1.024001696234443592e+00
1.055544953545699993e+00
1.034232921410399353e+00
9.928814031426350661e-01
1.020461841101333311e+00
9.281540389783152767e-01
8.534306767149085760e-01
8.230527660024693493e-01
7.616046749376579328e-01
6.655623549588182142e-01
6.711378562016666605e-01
5.561707564895411737e-01
4.819559141018641135e-01
4.258351086152574183e-01
2.847793985563683572e-01
3.360218865534821964e-01
2.869352673027345535e-01
2.329404892043136222e-01
1.683392903656761308e-01
1.758524843582191799e-01
2.138896816679787816e-01
1.584987651031116440e-01
2.163950023271750400e-01
2.282362259302548047e-01
1.445022456182158965e-01
1.566994287078177783e-01
1.052030795411859621e-01
9.751584890204482992e-02
1.452333622059319151e-01
1.650106923518157853e-01
1.529666357817768829e-01
1.149716420492762348e-01
1.208768026303256304e-01
2.021729469411614744e-01
1.794721644923372161e-01
2.229617127932967402e-01
2.039804794983860470e-01
1.783275489221866072e-01
1.470344997305813028e-01
1.767926517137753950e-01
2.365524896207892303e-01
2.633103357730603999e-01
1.970585424192288493e-01
2.308167729286325631e-01
2.261227373860935641e-01
2.346172544594302689e-01
3.058644569935789481e-01
2.924085080932123937e-01
2.613324599791522762e-01
2.322685234838187396e-01
2.626082055694388129e-01
1.986419401428778098e-01
2.944065844840840773e-01
2.947359026942238391e-01
2.812552384183956700e-01
2.795733928761157117e-01
3.260621337708148326e-01
3.590072537339680236e-01
2.949340829379266116e-01
3.043891015625901919e-01
2.498072745877998879e-01
2.412314863709788260e-01
2.847873662914790494e-01
2.816966442695312822e-01
3.393302371740778423e-01
2.872245818093984160e-01
2.836245206979910449e-01
3.046350661391177272e-01
3.155822113757805747e-01
2.886514627418643175e-01
2.674011828987993833e-01
2.951162477683162422e-01
3.628926788917160029e-01
2.847705930255787221e-01
2.749431709196485385e-01
2.821208936644228893e-01
2.891096772453822794e-01
2.409492739768087644e-01
2.447548862976016149e-01
2.128901345422617719e-01
2.447692109911807634e-01
3.067388833048377839e-01
2.625187417880227025e-01
2.130331723341530870e-01
3.315850120748381480e-01
1.984489559969899730e-01
2.253420861715700330e-01
2.216826410699389849e-01
2.399705177041424609e-01
1.640038467221791862e-01
1.801829563943170009e-01
1.819687398605319417e-01
2.758528522332340804e-01
2.055821900016935322e-01
1.222004712459496267e-01
1.275037354713768611e-01
1.499826601770637979e-01
1.156261592939322597e-01
1.313120452641817204e-01
1.401571458441861484e-01
1.029355417119813543e-01
1.399004890134172563e-01
1.432024920857398465e-01
1.192033683391496846e-01
1.377265106044337772e-01
1.009886149850369730e-01
1.190457037740075830e-01
1.139813314390346333e-01
5.481404852331146077e-02
1.952293771143026602e-02
1.294308408947772437e-01
5.959265337283175396e-02
1.218437389094645940e-01
1.155017945971200943e-01
4.636970662506290086e-02
4.439673211501913436e-02
1.071489817427872110e-01
6.740232326817627295e-02
1.112267041423987135e-01
6.453506526830772583e-02
4.155070295652409790e-02
8.679411382387387797e-02
1.121768520552684778e-01
6.252130674791833709e-02
1.194039301557809629e-01
-8.396478711625243729e-03
7.893193795864902884e-02
4.080169109727412036e-02
6.297155934587631010e-02
8.117121558999693121e-02
3.636929401551033947e-02
6.766863791151339624e-02
9.056442876165651801e-02
8.987206209549215841e-02
7.358676173044961799e-02
8.537895209110787920e-02
8.522676907440908389e-02
1.261380200146738906e-03
9.042025028000653941e-02
1.263485224725324763e-01
6.821917595110177368e-02
7.942519216157553630e-02
1.188998032004131705e-01
6.444198280703032633e-02
1.174098904041697422e-01
1.155932527405133386e-01
8.815781905180092304e-02
9.566522673186193815e-02
8.143412472831476623e-02
1.171315798347214443e-01
1.509992324243675244e-01
1.666588708928637141e-01
1.306987869694855586e-01
1.505779823506353532e-01
1.531324620455463970e-01
1.416344683173511865e-01
1.486516242575748326e-01
1.376587513928338447e-01
1.087702431168951767e-01
1.748490087581187069e-01
1.125317938195818934e-01
1.617486585532053045e-01
1.418122459156321846e-01
2.053543881822017803e-01
1.933641985977350153e-01
2.104343630127193943e-01
2.157806423949552299e-01
1.770338898294269714e-01
2.122410577191018721e-01
1.469638893187224515e-01
1.947908417899423261e-01
1.885167937376494574e-01
2.626675084797604476e-01
1.764050767568131617e-01
1.775138048430393578e-01
1.830975591113428447e-01
1.904275020557625875e-01
2.803880849523444629e-01
2.493921905780892290e-01
1.822268233254090153e-01
2.011296425763298701e-01
1.777310381582562215e-01
1.717765430174160446e-01
1.675118849448619662e-01
1.939038582202246008e-01
1.947442369078039026e-01
1.960964678604633360e-01
1.851265512892179554e-01
2.357887606382553514e-01
2.334907095589727755e-01
1.867293370886031478e-01
2.628246069086670467e-01
3.198902645197262418e-01
2.884958406526224040e-01
3.752738305518621420e-01
3.541709083189052421e-01
4.713358578588435210e-01
5.152186109220195931e-01
5.920455850755551586e-01
6.336091583886078737e-01
6.513424561367679999e-01
7.405377619511975817e-01
8.020477208601208829e-01
8.243574759039615785e-01
9.575680539541175929e-01
9.591528131072591945e-01
1.016994709641910077e+00
1.077302592826749228e+00
1.093282363128190937e+00
1.107149534797211121e+00
1.078330137244997822e+00
1.045813407940059392e+00
1.022912283008923229e+00
9.865810675244448547e-01
9.647602717687764340e-01
8.858210507272091805e-01
8.090805901477764461e-01
7.922699542572249065e-01
7.415137837200588278e-01
6.336414750360070958e-01
5.453889568215730677e-01
4.606168808464377040e-01
4.842231914370737633e-01
3.700221741124272157e-01
3.593724477634387404e-01
2.523900582013683946e-01
2.455558944693692902e-01
2.264415791967904490e-01
2.117818778603235419e-01
1.758279073124972836e-01
1.883731282013617336e-01
1.277452934985239819e-01
1.719272407192535268e-01
1.758952714363951064e-01
1.334572509289290443e-01
2.242413579159687753e-01
1.855381987880820593e-01
1.727700953791164451e-01
1.535549854583772578e-01
2.224869079517731718e-01
1.738914462405133365e-01
1.496404691409550791e-01
1.791048323814145027e-01
1.819369133235616554e-01
2.144830686560338373e-01
2.304629276253362113e-01
2.177873311362386877e-01
2.219112183861957077e-01
2.045599722786247132e-01
2.138654611863517463e-01
2.526118092488743860e-01
2.639540629173932063e-01
2.247836850700311861e-01
2.399446138289299257e-01
2.237602993544780539e-01
2.277000091533817328e-01
2.598778309637058137e-01
2.709955649732997962e-01
2.799258026423108170e-01
3.376750586827919620e-01
3.056182090473269497e-01
2.578095314596475784e-01
2.968156601586112719e-01
3.283877451484287224e-01
2.621490601630604989e-01
3.073997000144414460e-01
2.539956573996535183e-01
3.244099097076539318e-01
3.079440357025198249e-01
3.299596908618437907e-01
2.923027057179172217e-01
2.177380677805666465e-01
2.905817384240205192e-01
3.010582189280802123e-01
2.977478883601638593e-01
3.196496475430709583e-01
3.467181618057381676e-01
3.178868877738202370e-01
2.721345250349491707e-01
2.426646354162578234e-01
2.945506599583708751e-01
3.160636313224416405e-01
3.365639202205426561e-01
2.728881636822162449e-01
2.519323052950327435e-01
3.147281299392191700e-01
2.265663593821303501e-01
2.052843516698301674e-01
2.735932447591365446e-01
2.713705858638992829e-01
1.664389384832543617e-01
1.741284956195303935e-01
2.015866685125220492e-01
1.940138241315798318e-01
1.876379456970538873e-01
2.481751193464778737e-01
1.691561300819741653e-01
1.864732283405814428e-01
1.652442626389576952e-01
1.763488871005933212e-01
1.699168329621073559e-01
2.186608863206353504e-01
1.377095994515993849e-01
1.214421507160423769e-01
1.799670293723261982e-01
1.717294521401645513e-01
1.567873769645006243e-01
1.057196828090944951e-01
1.555619526610789727e-01
1.538337392993238129e-01
1.355609032777922163e-01
5.556211587787327627e-02
1.732404496308629638e-01
8.508042248822124398e-02
1.136177311609835039e-01
9.288143723587448386e-02
1.032648393345246135e-01
8.129575451579824918e-02
1.055524903058766284e-01
8.310944428649284788e-02
9.962100922612512899e-02
1.207164469954903757e-01
9.870763877625697569e-02
1.108323337943992876e-01
5.907117081453404361e-02
2.399229650637175332e-02
5.480844926718375643e-02
1.138889771806055468e-01
7.722932398036531920e-02
8.835949174615517765e-02
8.010367606760371295e-02
5.375383327357255436e-02
1.113481147660995707e-01
5.504321308386233430e-02
7.532738813622597007e-02
5.874945294433828180e-02
7.123902103718965373e-02
6.498886056747088524e-02
3.588105278300326995e-02
6.161169200131023926e-02
3.013591132947801912e-02
1.039916349977872134e-01
1.798538909621220580e-02
5.794504039856362282e-02
6.537317681864227015e-02
9.121810756853063196e-02
4.848156808000242401e-03
8.306790510909679848e-02
1.727603731948858592e-02
3.833942351865264608e-02
1.028483977656145104e-01
6.346075278430990396e-02
5.779419656297463126e-02
3.480744166163400599e-02
1.255679520695905937e-01
7.135959659580380643e-02
9.091048363089460072e-02
8.346953541298074430e-02
1.572661287599327051e-01
7.740308036408535819e-02
1.885352269730448116e-01
1.191268416913062456e-01
1.268758654839149125e-01
1.279080126684038476e-01
8.920223994241721632e-02
1.898330970141996477e-01
8.815237801590183886e-02
1.490004991365621034e-01
1.214759031410634904e-01
1.763296458564301283e-01
1.444945474930043883e-01
2.063604875245866332e-01
1.433573668229663756e-01
9.263096466070268320e-02
1.498438859686896107e-01
1.357487174948957265e-01
1.438106640535681269e-01
2.327269772307842266e-01
1.643860323107101673e-01
1.913569639080914264e-01
1.898427466308956757e-01
2.081159313139709643e-01
1.755828450225353499e-01
1.992440981031961544e-01
1.842635583479932393e-01
1.513856013485429808e-01
1.788374220250681379e-01
2.066538402514093986e-01
2.436466919917850138e-01
1.306471548705012420e-01
1.833174009969388285e-01
1.003055464909932554e-01
1.797851382660025088e-01
8.549678705106161791e-02
1.498201033520496217e-01
1.687973043799809725e-01
1.253210390313942713e-01
2.209589603819379910e-01
2.201580672222519797e-01
2.648852017826370808e-01
1.915313910792476315e-01
2.575625840361759344e-01
2.596836006882623504e-01
3.501793209829851539e-01
3.776804916017164615e-01
4.447553942948469508e-01
4.594729264490725607e-01
5.706629261088972394e-01
6.235405849040196458e-01
6.313264816038363092e-01
7.250386585721021460e-01
8.134409173738786913e-01
8.416685087726302195e-01
9.125515641489964080e-01
1.006448528773041806e+00
1.027658972887311783e+00
1.055908058460788723e+00
1.068780774740570871e+00
1.035009650956625116e+00
1.098287279480081535e+00
1.057802621848909164e+00
9.887751798398390912e-01
9.554804752658596634e-01
8.895415303093281434e-01
8.508542909621603645e-01
7.838442700840276833e-01
7.138974338899340966e-01
6.849275834700961907e-01
5.835123977283506180e-01
4.844739348647037480e-01
4.810086665107138892e-01
4.107373351951694729e-01
3.500184767011842446e-01
2.987793965731531109e-01
2.366651210751159751e-01
2.297451191066100518e-01
1.801886393233714245e-01
1.943746445812540302e-01
1.842011153689013248e-01
1.555932163248920919e-01
1.186225583044799858e-01
1.114683608078257532e-01
1.957566822195253853e-01
1.549854991646154034e-01
1.238183052295219050e-01
1.539180770697884115e-01
1.454608643499665788e-01
6.879071370675068908e-02
1.456795905594533425e-01
1.140524108126883124e-01
1.652125968510346488e-01
1.193999699717775281e-01
2.044580550619591319e-01
1.536540444557806251e-01
1.295040925067251214e-01
1.651692749855867837e-01
2.053006264887419219e-01
1.682450545296820810e-01
1.712981379442679031e-01
2.256400282036599148e-01
2.066345041089562296e-01
2.094278823540638990e-01
1.940177165672149484e-01
2.249032750720358909e-01
2.054159415921113785e-01
2.414786086135119192e-01
2.403482597564690071e-01
2.334944004483472668e-01
1.955930088853599369e-01
2.527124977699100605e-01
2.500973168366978916e-01
3.051497283406051642e-01
2.162417847293689188e-01
2.251091833548261312e-01
2.449539255092467727e-01
2.268501861845332312e-01
2.494486273978464841e-01
2.567178566040572707e-01
2.681634537287060360e-01
2.371231519689088740e-01
2.275284292260418839e-01
2.482621801384249371e-01
1.938257928924156381e-01
3.071766696718959411e-01
2.900920863415516471e-01
2.231595294985779798e-01
2.714788537827643733e-01
1.825812366303888323e-01
1.909381775320573293e-01
2.076593007332172003e-01
1.719318380996420204e-01
1.884960862930829817e-01
2.193163286208576757e-01
2.317160859138845952e-01
2.311585975232686163e-01
1.936558766831190659e-01
2.279237409709065076e-01
1.899773457101958662e-01
2.282449340279650296e-01
1.834381685641337245e-01
1.974312804960435541e-01
2.056233998940492635e-01
2.001394995720383874e-01
1.667655643543707045e-01
1.946824725762997255e-01
1.708312967024362972e-01
1.707169240954969358e-01
1.266612680770480281e-01
1.465576795962464929e-01
1.089172330691460799e-01
1.367827649448597749e-01
8.149257988492199234e-02
1.289695873868998144e-01
1.134255389877437126e-01
9.545286719252915608e-02
1.493185662243889655e-01
1.217726626901255577e-01
1.202352241693873808e-01
1.008532761397290256e-01
8.324216738587587872e-02
7.651307276229683818e-02
1.023255057896627351e-01
9.430945383104774593e-02
9.299448262180794178e-02
2.643107947548829773e-02
1.455026430390529008e-02
8.624830520016774082e-02
4.898545304532632427e-02
7.611198215093940844e-02
4.097013504963328834e-02
7.530225193668914352e-02
3.270321353051637570e-02
4.587624792841023258e-02
4.143298929290583493e-02
-3.061064554407432609e-02
3.399183195161405158e-02
2.932205753243059473e-02
1.865169726573244827e-02
4.949080350207666484e-03
1.615357085001728477e-02
2.687292718316449877e-02
-6.908319356381436085e-03
2.861815931736990531e-02
-5.565878575466489536e-02
-4.384474952863572778e-02
2.582154133729732542e-02
3.802299748818095682e-02
-2.916781959324634549e-02
-5.312937800003904483e-03
-1.607550495358933684e-02
-1.606666954158429000e-02
-3.326460518873106814e-02
2.473748616339958850e-02
6.690282778381574993e-03
-5.852923195963804365e-02
1.436025008778619647e-02
-3.369771881927678681e-02
-5.717561889938024139e-02
-5.823475654360221049e-02
-3.649183232331407178e-02
-1.296364676579253236e-02
9.645038617078993681e-03
2.529475725648144824e-02
-1.371041708853370199e-02
-5.303601957072256318e-03
-2.313182368130787050e-02
-6.777851370681035881e-02
-3.946649183422085150e-02
2.759763632890924190e-02
1.641213750563146057e-02
1.456547742580688656e-02
-8.994564372957875031e-02
-2.758831450778076802e-02
-2.264337017558720744e-02
-8.899268767344439834e-03
-1.926993590015313104e-02
-2.270279476513412109e-03
-6.452648405680132260e-02
-4.539301035568187731e-02
3.664026964097785721e-02
-2.674979514485198440e-02
-2.224360827014235445e-02
-2.692522126184582892e-02
2.083755833197642113e-02
-4.054469718837366843e-02
-1.856335584342020881e-02
-3.990209543181062746e-02
-4.279086032515132254e-02
-7.797135982321222805e-03
-2.000394504691302075e-02
-3.102272483166271938e-02
-2.392333988513272586e-02
-1.655981148486656424e-02
-6.482135599079239321e-03
-6.645447647796223420e-03
-3.326905029678792897e-02
-3.043357551473178935e-02
-3.685239173956220832e-03
-1.677344568215721060e-02
9.846510071943065379e-03
-1.787051801184911387e-02
1.628120300941368268e-02
-6.011991257531934529e-03
-3.710535491659815860e-02
-2.594082004568398075e-02
-4.837106739951087253e-02
-6.036903772507219018e-02
-6.869373642544265857e-03
-3.365419798694303799e-02
-8.478111710303742887e-02
-3.099167706988605400e-02
-5.831548450783929222e-02
-5.675137643002223925e-02
-5.735171996176570419e-02
-3.413105128323439680e-02
-6.976008546578259251e-02
-2.649739486530094598e-02
5.569274515519002933e-02
-7.738591908454665880e-02
8.970288120018037048e-04
-6.052281129386967440e-02
