1.127063885542554322e+00
1.123914245826817648e+00
1.094733304661089646e+00
1.067317767325347777e+00
9.378291753732485025e-01
9.409493757657378943e-01
9.156994553560394712e-01
8.100088542221763888e-01
7.864690751233214261e-01
7.090681788707978717e-01
6.004667857698293698e-01
5.343259386813675738e-01
5.019509816965374016e-01
3.796960242448585987e-01
3.353255618281075767e-01
2.965661757006641253e-01
2.748628546212846246e-01
1.457564440865339317e-01
1.664173245481766206e-01
1.604119252239674109e-01
1.344321746899075631e-01
1.246591011578074837e-01
9.988055122744787795e-02
1.453566866130041602e-01
8.496524115946085809e-02
1.056602708014829639e-01
1.033550541221224806e-01
7.594876862488803004e-02
3.494439715855454653e-02
7.936716521902981158e-02
7.277102861607401274e-02
6.548721397770283781e-02
1.312383474151341267e-01
6.388448374169169997e-02
1.099499815541199882e-01
9.499894076994107317e-02
1.196452987451568084e-01
1.258783945551467109e-01
8.729679643491611296e-02
1.072716393288465353e-01
1.631654215810071640e-01
1.257139225600940879e-01
1.839944849052135845e-01
1.358454001625740148e-01
1.658702255397505043e-01
1.739668517929809366e-01
1.789046330454465983e-01
1.866303118151036167e-01
2.093727659990916035e-01
2.144006613002352180e-01
1.862202989125357200e-01
2.009267496662733299e-01
2.018672354280523495e-01
2.178740463155355300e-01
2.235883719376165479e-01
1.761489864309045417e-01
1.723947864743956560e-01
2.026149240434983734e-01
1.937257706407403690e-01
2.193453314996144099e-01
1.899012078607794640e-01
2.162111836073236093e-01
2.209537597060413083e-01
1.837828682397544822e-01
1.310973319994623854e-01
1.538984173360057606e-01
2.156053573306316584e-01
2.204567937191166949e-01
1.653301881556378250e-01
1.904382968774841756e-01
2.541415440451432195e-01
2.019819873344492756e-01
2.224044877129809916e-01
1.705107974864524256e-01
1.363667326242335165e-01
1.905263968280432318e-01
1.448343791785767498e-01
1.970887621906053655e-01
1.384387832757954517e-01
1.329386227486714922e-01
1.644697823847976748e-01
1.440690548713589036e-01
1.291541585563239503e-01
1.450131229638074726e-01
1.329755294118908082e-01
1.168157359597386397e-01
1.071164103137837720e-01
1.589301190617022908e-01
9.532280346733351672e-02
1.182297422296507139e-01
8.312367011813277806e-02
1.024841884148189330e-01
5.723047000492940961e-03
6.652427991619229430e-02
5.312628109826554590e-02
1.044554262053518923e-01
7.317989019374497583e-02
6.216157568824022539e-02
6.754137862579692730e-02
7.727399980254504031e-02
8.642626675543418902e-02
3.091792364398387311e-02
4.924743939372137891e-03
6.099234966609263370e-02
1.971466136056401058e-02
2.209956680349195457e-02
-4.283414624917495500e-02
5.620352149173320211e-02
-3.885472079408579249e-02
4.544217891009547095e-02
1.315888555647751201e-02
-9.199543795046796757e-03
-6.545549223614430256e-03
-2.047503830132509431e-02
1.327134215095934766e-02
-1.947451732792179757e-02
-5.859074557387169979e-03
-5.047090576957890401e-02
-4.146692747468978812e-02
-1.585465432526873830e-02
1.601956261242970525e-02
-4.150024101069425819e-03
-2.757328842189296983e-02
-3.075437345039324158e-02
-4.329974229899200000e-02
-4.010008013204399008e-02
-6.664877830698323624e-02
-5.562891407152416312e-02
-1.176302715752292755e-02
-2.540532140614113268e-02
-4.353321260165966822e-02
-2.920787236413904461e-02
-9.863520198791982108e-02
-7.297891133364758920e-02
-2.039838231392957640e-02
-3.570803641451598953e-02
-3.991339586534459888e-02
-6.692087521495863889e-02
-4.174748961145914594e-02
-3.434166636268137784e-03
-3.923040274757345902e-02
-1.721793135771030811e-02
3.766233384764255260e-02
-3.466524341735954112e-02
7.957995559587593970e-03
8.199839948967994896e-03
-4.612736091246062015e-02
-3.908260135309059302e-03
-3.354198605776717579e-02
-1.778562442276378566e-02
1.779142420692304133e-02
-5.165127996881788142e-02
-2.669769345042510844e-03
5.200792823869974935e-03
1.361107073816490709e-02
5.015255563273380429e-02
2.053833245187495354e-02
8.954217750772880402e-02
3.911832696576488660e-02
3.538914420276491335e-02
2.984042769386018729e-02
4.153785359341148620e-02
9.010526462267805237e-03
4.790625111525392832e-02
4.953141450561114600e-02
3.478333302716875297e-02
6.869252820604745957e-02
8.115067063675290848e-02
9.429385716142237028e-02
1.097532100839215818e-01
1.655005716634241897e-01
1.240780354885947234e-01
8.848432603475406277e-02
1.029301372586020336e-01
1.206689682128213592e-01
1.525975771444467166e-01
1.293036955012515088e-01
1.505919704837707096e-01
1.527675002469651433e-01
9.432315719975842283e-02
7.639424251587451087e-02
1.350284545780227607e-01
6.738092769214343303e-02
6.383590748104085721e-02
7.067850776252562750e-02
8.823333526783536107e-02
7.055982358843831959e-02
1.448580728127164541e-01
5.709348580407730411e-02
5.819669670064488848e-02
1.002675200563195312e-01
9.188081501853193056e-02
8.781218716112276779e-02
1.147486822699122083e-01
1.249911212225302548e-01
5.970354986711187695e-02
2.223001040849247323e-01
1.984304857260673627e-01
2.600102783531151873e-01
2.867322519728607855e-01
3.119208858141745422e-01
4.452145749569546007e-01
4.673724550542263656e-01
5.138438203743721511e-01
5.877223824767342508e-01
6.168197620694850780e-01
7.947178593711758943e-01
8.413282482268427120e-01
8.442423996021592991e-01
9.541749232017827653e-01
9.821327376460690095e-01
1.067854667572377236e+00
1.107605559799453854e+00
1.081941326475361675e+00
1.136042675476308883e+00
1.055300787163000464e+00
1.081541185407227657e+00
9.875146593912704773e-01
9.827354153397886982e-01
9.201903057602700553e-01
8.339457873281187483e-01
8.094179248508699409e-01
7.472841622391596106e-01
5.908658898960976735e-01
5.254918977162996718e-01
4.508233775431207957e-01
4.317671832794933717e-01
3.315503326134927597e-01
2.916821808101836000e-01
2.285495612630368267e-01
2.086534882906343480e-01
1.429957958599347434e-01
1.144320791286963790e-01
6.820990791042444434e-02
1.448323284573220238e-01
9.160562155470027002e-02
3.905990760420798708e-02
9.112005983554306854e-02
4.347544765831146824e-02
6.309526057107481267e-02
5.625583817303671241e-02
3.434622929605991859e-02
5.859008386410406027e-02
3.289471217318601370e-02
7.102800576532240784e-02
4.961047726946543612e-02
1.657595027011999067e-01
9.786180744449440860e-02
1.117281767213016974e-01
6.969118632659586365e-02
9.953221014509394671e-02
1.194669349187707647e-01
6.784794893644433000e-02
1.333678119491935321e-01
7.883824355861024369e-02
1.423485207668790942e-01
1.006323246241211805e-01
1.439751992070533726e-01
1.454260337234501987e-01
1.452538535482324200e-01
1.195644747065521818e-01
1.622627748317953533e-01
1.964198611808041228e-01
1.701695056681357121e-01
1.818777740206249938e-01
1.711684835590533693e-01
2.094812128447037791e-01
2.051318035697861641e-01
2.681012433542606099e-01
2.125060415977099160e-01
1.693223095189403671e-01
2.232660608898673349e-01
1.986905284611800715e-01
2.117802213080870188e-01
2.340854879031490643e-01
2.005086579956111836e-01
1.474376620544331773e-01
1.846157809260732252e-01
1.654266633627571037e-01
1.595676869184903812e-01
2.404992805834514080e-01
2.055699453747563688e-01
2.012701611623611275e-01
2.092110868847419924e-01
2.146796577053195487e-01
2.618765860877380058e-01
1.839091335732254973e-01
1.983112322182821463e-01
1.049489912841484740e-01
1.571179357393470144e-01
2.597576366418430371e-01
1.631757385023760720e-01
1.777884956526343263e-01
1.835585700492570749e-01
1.658220467568654322e-01
1.912231389968532536e-01
1.127538877865323641e-01
1.229627701038583654e-01
1.689918022250186391e-01
1.181324471987424407e-01
1.481889086297044911e-01
1.259441065022606221e-01
1.234712795326869117e-01
8.599466215959176985e-02
4.332596136037308865e-02
1.935803221001820007e-01
1.131886083625938400e-01
7.707580588897947060e-02
1.052853264975259495e-01
1.131715551911604556e-01
1.283476020550645691e-01
6.852687863382117550e-02
5.629045583913422357e-02
-7.826936150308327900e-04
3.415535196431326859e-02
-2.957502652147361161e-02
1.896848186618859539e-02
2.307637937214150614e-02
8.354135083459907074e-02
9.985419104370744925e-02
5.386376295381656298e-02
-2.622997934491699129e-02
-4.166419263197373296e-02
3.113756670398996201e-02
6.258429770904896938e-02
-2.039840942215072339e-02
5.741319591729855676e-02
-6.441697570184812260e-03
-9.762385175533679765e-03
1.540444100287633594e-02
-3.636196237697117417e-02
2.258399756052893032e-02
-1.321693257875580785e-03
-8.481246232137723551e-03
-4.335396170458841181e-02
9.886123413414063532e-03
7.038146753191934502e-03
2.472338032983099898e-03
4.690904296946130092e-03
-1.948162541193070377e-02
4.249123465488079121e-03
-4.036317781224996182e-02
-4.959989263904433093e-02
-3.177957198648554554e-02
-7.317935263981150545e-03
-2.140844361018091890e-02
-3.639099838371222251e-02
2.171064504652273075e-02
1.175710510556964711e-02
-2.802769201489786408e-02
-9.760590049554374037e-03
-2.848722639906240209e-02
-3.116518058369693173e-02
-1.005240088475082005e-01
-3.366682718563861199e-02
3.797901168548174777e-03
2.716136983627839840e-02
-2.729102874416731647e-02
-8.495345714610441634e-03
4.094130145833228818e-03
-9.485307124258116063e-03
-2.388499331650272006e-03
3.118246300890670925e-02
-1.435134146023088128e-02
1.868136125476228815e-02
-1.468842514203391736e-02
1.847487416388113313e-04
2.765987252532997598e-02
-1.270686717791166820e-03
2.707469891636361814e-02
5.513208699079811398e-02
5.303006712274230261e-02
1.813126447090077781e-02
8.323955842329568144e-02
7.182741648272111812e-02
8.203730479610552018e-02
6.215046195919982780e-02
1.021785534744227564e-01
8.913088660006786290e-02
1.071560920875943707e-01
5.290732113253002189e-02
6.245334228497256834e-02
1.509243390250018524e-01
9.013764811139308997e-02
9.694242476352391003e-02
8.790487047307102286e-02
7.692274274730964700e-02
1.113733138072541540e-01
1.039275593584407797e-01
1.042417402844060814e-01
1.234049524518160690e-01
9.846393355806777603e-02
1.534103524685846709e-01
8.442101395538248454e-02
1.334734274222358907e-01
1.108301849947586626e-01
8.634407716889024031e-02
1.107489756732002867e-01
7.857400059537829329e-02
1.478428832592292297e-01
5.882941505626021472e-02
1.224181921624286212e-01
6.950556650335158737e-02
7.302669811313329540e-02
1.198946017126395758e-01
9.694589234230610586e-02
1.444812412744979624e-01
1.373266086275853337e-01
1.913870192751929711e-01
1.756733113487263243e-01
1.327508443714857100e-01
2.267338314746115691e-01
2.613567496449621941e-01
3.779031240269987713e-01
4.021230714293791975e-01
4.525283764172212120e-01
5.085520095558158093e-01
6.079742794102811487e-01
6.210933953458355194e-01
7.684705425319970917e-01
7.628323175983865445e-01
9.028935447201746900e-01
9.447380591485610157e-01
9.973667400626309298e-01
1.022915288045927129e+00
1.109969680247244295e+00
1.133307140541114810e+00
1.172119373782779750e+00
1.118759123659451404e+00
1.107336671728890387e+00
1.080504389338827753e+00
1.068280877392692618e+00
1.014307558189194047e+00
8.764571992135175016e-01
9.267019415663976245e-01
7.412651886989553018e-01
6.998725491757517014e-01
6.692709314552500732e-01
5.437205679588098528e-01
4.831529331875720201e-01
4.520407288632200538e-01
3.848251600918273230e-01
2.910065194769010932e-01
3.023212089588234175e-01
2.551881450243109750e-01
2.040311862410773280e-01
1.911263826309145542e-01
1.281727210722254651e-01
1.268308682961327705e-01
1.175752201020109494e-01
1.645119444620293525e-01
7.061427972514755513e-02
7.316423563756585535e-02
1.707528779615964942e-01
1.440937068041224789e-01
9.888998539200807847e-02
1.274387890811067847e-01
9.648043599941980020e-02
1.221363063484833256e-01
1.074532348102736623e-01
1.062265893032293407e-01
1.639477387743293602e-01
1.269376083799345634e-01
1.277968468576878014e-01
1.534932326054216367e-01
7.319959526937194760e-02
1.564676976652116525e-01
1.179558822116738431e-01
1.776188185985687340e-01
1.701245979011276055e-01
1.594949254540993788e-01
1.530580988081281513e-01
2.527614919947820948e-01
2.148764240900293554e-01
2.422963657590027631e-01
2.204944837447589956e-01
2.116354181624736930e-01
1.985512567301120912e-01
2.118661489834233747e-01
2.381812456142653189e-01
2.497198182282608647e-01
2.005931402614655190e-01
1.907730656000257152e-01
2.507100179918954619e-01
2.308782062326001916e-01
2.368637617487928948e-01
2.030451431130811391e-01
1.973963519068785144e-01
3.065119401627869333e-01
2.311690733692161881e-01
2.321659651943476232e-01
2.433682839944005249e-01
2.518439793121586279e-01
2.785074623942452310e-01
2.344865834747161815e-01
2.545381750452211378e-01
2.669343385850245776e-01
1.988375504097679158e-01
2.540872778581049762e-01
1.954355422896923988e-01
2.797374195615733861e-01
1.754101481434346410e-01
2.505463330037888126e-01
2.003209180315251858e-01
2.077523086204759728e-01
2.064108906679031907e-01
2.400937138111292612e-01
2.016217846663767854e-01
1.709353540512096870e-01
1.567208916495936577e-01
2.285301543551053471e-01
2.039359585727827384e-01
1.753847302502750949e-01
1.882494076296428454e-01
1.609145421460284608e-01
1.376345735966350015e-01
1.577718042487211703e-01
1.574471976449371979e-01
1.435805156959056861e-01
1.763964724971942288e-01
1.646311663144602866e-01
1.416026782392844630e-01
1.411129962059091414e-01
1.601688932009577016e-01
1.291946345682982444e-01
1.212677848061384234e-01
8.784192890586459135e-02
9.662278195479631626e-02
9.319662773169268277e-02
7.604464398096850986e-02
1.493333158735024868e-01
9.571013457986418671e-02
7.905921967155284114e-02
6.766849183831033510e-02
1.805543718380109644e-02
7.601103105990436593e-02
4.820971674482456282e-02
8.230826230461300852e-02
5.749154685914993623e-02
2.745381378197967251e-02
3.058919790761005508e-03
6.356862795847281755e-02
1.587487943985629521e-03
-2.144838858495921180e-02
5.701757195203528694e-02
4.542733688584388307e-02
4.660801446203753640e-02
3.475109199712136249e-02
4.244743683082066732e-02
9.220973178008951693e-03
-2.958587183693062519e-02
2.844722418088246538e-02
7.273962660406931013e-02
3.346824949552654888e-02
1.842928881019094411e-02
5.382469064236189427e-02
1.035144737043536094e-02
2.249269415905892633e-02
1.649270375355706142e-04
3.883660631744834113e-02
6.649721491633792114e-02
5.072411181162828769e-02
3.587236689510935050e-02
-4.545924687819464377e-03
-1.062615825121319621e-02
2.150380291821510012e-02
-1.230920187720563851e-02
-1.003645312345418164e-02
1.491637029199786857e-02
3.507513132989092952e-02
5.046763082364475600e-02
4.127703402125935256e-02
6.501626862108245142e-02
7.304837744906617081e-02
4.758745119311882238e-02
7.333975380904560193e-02
6.019834847277687889e-02
1.028059333781646822e-01
5.762258380368216748e-02
3.833777184624204137e-02
6.141332974457182348e-02
9.970789777657701469e-02
5.788353263644543945e-02
1.105601388945299524e-01
7.301412139000586221e-02
1.079663963251963482e-01
6.741643067334068817e-02
7.936230293931045843e-02
1.249134883653792161e-01
1.507122564001928677e-01
1.230770149764914001e-01
1.409880413700788093e-01
8.722327958646608481e-02
1.434909376667557745e-01
1.401130299107242461e-01
1.143407139717263904e-01
1.500683601917508214e-01
1.561116163914575972e-01
1.952792805515198293e-01
1.476342267645332773e-01
1.465153872813287073e-01
1.829967433559903101e-01
1.828135057825827914e-01
1.748229141813629761e-01
1.591248096136650969e-01
1.768809844675393317e-01
2.207985531848624117e-01
1.574479553572744051e-01
1.395930294926318316e-01
1.760436682127075325e-01
1.769298320212862319e-01
1.516958574127935666e-01
1.232927206345641874e-01
1.962046042977191040e-01
1.395878763775660336e-01
1.671445346744894200e-01
2.075124652690951144e-01
1.349159195689237090e-01
1.543354463206783600e-01
1.481497068510069515e-01
1.786959254155405241e-01
1.409123829301751618e-01
1.788407204964085340e-01
2.749397197037787843e-01
2.636547574400058269e-01
2.911869503529878056e-01
3.311095194877016201e-01
4.194714153855294003e-01
4.326862309579583288e-01
4.775416547573003712e-01
5.465530910857938629e-01
6.990284140990439266e-01
7.177354351333998794e-01
7.900943483404433421e-01
8.844046972084637082e-01
9.848828799345724638e-01
1.025645761684855994e+00
1.100920771919079444e+00
1.203033698814133690e+00
1.136247173067079785e+00
1.212404183352604470e+00
1.166461960840865730e+00
1.185133949492918060e+00
1.134171379223551268e+00
1.134500354158034074e+00
1.029372064750028404e+00
1.035245695849953629e+00
8.953534741260225083e-01
9.028936352330153570e-01
8.110321852366182416e-01
6.966583414838701804e-01
6.834405331199586708e-01
5.991583078133722040e-01
5.416179349135005205e-01
4.945394797030705503e-01
4.326234269370179408e-01
3.428601419376407500e-01
2.832615283283984042e-01
2.633812523382534354e-01
1.808368278452168465e-01
2.082977125817911945e-01
1.253978179080854072e-01
1.648654481473063593e-01
1.783691099488901033e-01
1.214178631076617831e-01
1.760492534768181849e-01
1.414066965964208833e-01
6.616373197901373460e-02
1.148023260373648158e-01
1.490833255577871108e-01
2.680962976229734340e-01
1.825115608605309969e-01
1.165122656854807315e-01
2.018055387617538887e-01
1.265548076735790173e-01
1.430777253987922104e-01
1.792054853048548058e-01
1.370348371045922442e-01
1.897121409032146433e-01
1.975547800750497296e-01
1.889544355883245041e-01
2.604802942423401491e-01
2.201954495573550386e-01
2.158066418792422281e-01
2.326671856790863968e-01
2.559755857776456756e-01
2.122970980609474034e-01
2.701770099727311969e-01
2.020781816001628595e-01
2.105079431955739211e-01
2.400199916927979737e-01
1.888897611025221190e-01
2.535094577155433404e-01
2.857973655292445625e-01
2.329960994379035311e-01
2.953418529953406035e-01
2.843969860441123432e-01
3.071408530937116410e-01
2.685801930391612524e-01
2.905518725936718227e-01
2.711661157949465939e-01
3.333366710665677246e-01
2.346628706470001158e-01
2.619283544919028817e-01
3.590231791621970592e-01
3.061028621436289177e-01
2.640832570305568505e-01
3.097013843566496227e-01
2.474474399748438080e-01
2.791440536700743880e-01
2.302845816793475942e-01
3.056136497107106997e-01
2.675878954795067877e-01
2.917079352843284790e-01
2.985697266489726331e-01
2.694701232626594556e-01
3.042421499193225798e-01
3.083839992109765338e-01
2.517507444950358164e-01
3.016703869830003049e-01
2.394565211368294422e-01
2.190281263074085882e-01
2.554154412071682478e-01
2.318290107998327576e-01
2.254595299857673762e-01
2.564909659587883972e-01
2.163049136359413704e-01
1.859173723948329970e-01
1.973771078868189199e-01
2.338402270331501887e-01
1.921053173347095078e-01
2.181890116200734808e-01
1.749744408197844714e-01
2.057714647575037692e-01
1.659009331616866922e-01
1.801433290080765859e-01
1.926362400277380760e-01
1.307979296043631778e-01
1.161026186034166963e-01
1.243759370608000236e-01
1.594315588427532848e-01
1.224406909649806002e-01
1.444425631388224773e-01
1.356281933704945319e-01
9.531059867672216079e-02
1.134474170096660683e-01
1.479253052214991315e-01
1.291904965924135784e-01
1.258666892791438230e-01
5.283162963029285064e-02
6.505937206435766229e-02
8.797552079456921748e-02
3.689175380719336705e-02
1.460997162457420839e-01
1.038574644665563873e-01
1.093098760256261404e-01
5.886496111162664580e-02
9.089106287357037739e-02
8.759174068593336693e-02
9.202168204064387069e-03
4.389547850141103935e-02
9.788806255928245159e-02
8.151574762684557496e-02
7.316091486050430026e-02
5.364681729227535611e-02
8.318592178029145245e-02
6.225477260436419746e-02
2.402815336367942686e-02
4.784525170023098961e-02
7.695518027864439725e-02
4.570349568730015799e-02
2.454538732049104527e-02
6.550867889163916602e-02
6.172981046835858410e-02
4.369488756804478652e-02
5.535371865370974920e-02
3.131527649882219488e-02
1.552253427055178686e-02
5.387641146800616065e-02
3.976514883814772500e-02
4.232192879089402560e-02
5.982423423274321750e-02
4.787199881814876989e-02
4.706638668006295212e-02
4.858443460071423803e-02
7.593368580810846979e-02
1.331631337834339734e-01
1.212057252562790260e-01
6.280448330187694828e-02
7.768362630648076306e-02
7.947692639796735681e-02
1.036501285890324975e-01
8.361023211160131807e-02
1.186829310935038351e-01
1.352769044443908331e-01
1.506221608621165775e-01
1.046341608246476457e-01
1.373909167407694754e-01
1.866494641144477995e-01
1.551300732824064665e-01
1.102219961163049822e-01
1.183612227029198494e-01
1.016354135674600867e-01
1.957714633845927810e-01
1.162595521988206149e-01
1.853294743163285130e-01
1.400831648995836953e-01
2.026438908037688502e-01
1.731029022576181520e-01
1.764525814622160682e-01
2.003040433395902875e-01
1.733857632696005069e-01
2.509400712961610269e-01
1.143739478393372977e-01
2.200042178601121501e-01
1.867253868732531852e-01
1.804241645287081863e-01
1.559721439666108544e-01
2.169330179822419602e-01
2.024968316079247543e-01
2.181143756498072905e-01
1.849178287958008760e-01
1.615778450611491390e-01
1.681743459197843904e-01
1.572347594531636472e-01
2.355552010195136881e-01
2.095344583075630374e-01
2.458753261573740356e-01
1.831279552345096151e-01
2.345655160006850648e-01
2.092181077676890655e-01
2.283464263207983513e-01
2.447087834841256693e-01
2.078070835779549652e-01
1.884820970121941497e-01
2.793816547253219484e-01
2.105985730367265218e-01
2.805677880052113715e-01
2.853082790004499159e-01
3.638865816797790531e-01
3.567869110811744959e-01
3.936465109329067569e-01
4.943226227434331932e-01
5.420250269233676255e-01
6.621418247685586511e-01
7.419419040730848014e-01
7.689580897399375115e-01
8.769628874070720670e-01
9.394191007286967210e-01
9.669337239092472558e-01
1.000610485669453542e+00
1.069989743230984836e+00
1.119288719448063185e+00
1.192833127526124581e+00
1.208352388173623559e+00
1.186765426174611227e+00
1.136558386558730316e+00
1.117093465036080202e+00
1.106893614210333610e+00
1.106858683626208428e+00
9.666317729696655148e-01
9.732885336674320653e-01
9.236226133547370543e-01
7.599994062879592560e-01
7.396789853055022457e-01
6.267887945640590042e-01
5.925851660938544763e-01
4.602953013695115780e-01
4.599238459997416206e-01
4.014760080229523576e-01
3.155570708852528661e-01
3.191247932784474495e-01
2.465792811946685981e-01
1.536418855395071947e-01
2.155071575612194923e-01
2.393381056426628073e-01
1.865172443656322177e-01
1.129094272320157188e-01
1.976501543042957776e-01
1.397629706910191172e-01
1.698923448091846089e-01
1.901365957988312427e-01
1.896394618014052014e-01
2.017344887609708037e-01
1.462693297144490867e-01
2.261512035151927447e-01
2.115180295273952349e-01
1.241862392524200609e-01
1.786402239627505606e-01
2.083500383147024460e-01
2.280271739062965097e-01
1.531095659911030915e-01
2.320710194324866749e-01
1.861047313701473249e-01
2.142251737189147520e-01
2.274021439096152453e-01
2.666897226477348282e-01
1.705941666346799390e-01
2.563674899655432049e-01
2.532291181244893385e-01
2.642989188576518322e-01
2.938858837545508251e-01
2.626683986077648636e-01
2.479211204384947353e-01
2.911363896724782352e-01
2.451884204260169620e-01
2.393883912975884598e-01
2.485086674401610074e-01
2.648180387007240122e-01
2.451813443785748614e-01
2.802905224992836564e-01
2.846375194221684168e-01
2.560720459181737851e-01
3.302015340920123609e-01
2.886917736670552292e-01
2.705837109058615852e-01
3.439682175000415287e-01
2.953659999044486728e-01
3.194692463830850482e-01
2.832724368652085323e-01
3.531439394910681484e-01
2.679527175013995399e-01
3.382263916006825744e-01
2.724748990449983310e-01
2.727251755700751401e-01
2.967727874241792296e-01
2.331840381823097608e-01
3.285105376681725087e-01
2.044797143739792433e-01
2.500011891767751626e-01
2.734579524593125921e-01
2.671336574334955971e-01
2.678826519906169490e-01
3.111623731731384401e-01
2.272350062295967754e-01
2.565982096494169862e-01
2.962648461004899758e-01
1.991453149617886109e-01
1.876661627105222774e-01
2.792102561898229807e-01
2.443564945639454811e-01
1.932550403256828586e-01
1.405090704632786514e-01
2.013251883149315136e-01
1.718785451889868199e-01
1.414549457471327432e-01
1.545946364918827087e-01
1.913483165028884159e-01
2.147562344711228532e-01
1.983532856728981997e-01
1.213623233482689079e-01
1.121858354963743698e-01
1.357868750879155650e-01
1.629793320157025549e-01
4.520233646115268122e-02
9.852355375512872326e-02
1.168434313594748086e-01
1.026194503023302451e-01
8.122891331364132106e-02
8.239679406999381173e-02
1.249775008631318490e-01
1.001481403383419067e-01
4.579433171717952472e-02
1.052392662111080179e-01
9.107351414386474775e-02
6.207763592097750166e-02
4.220615234614645550e-02
1.105557493218432275e-01
5.857556858895611451e-02
5.391892639992717368e-02
3.247907831575939930e-02
1.254709867841351523e-01
6.376391841125030047e-02
4.497384220331707150e-02
-3.011813387873291115e-03
3.177729754929484174e-02
4.357034568645289790e-02
9.883143986678968873e-02
3.360319133849536816e-02
6.694272826381414410e-02
9.337344121975060807e-02
8.154906702199836432e-02
1.304200818728523115e-01
1.884502216464744445e-02
6.194323404464434357e-02
6.424333275631369244e-02
7.736736028907584273e-02
5.431590542979924940e-02
-1.698970480275854844e-03
3.667715143190414945e-02
8.504334579730146726e-02
1.970757171925710191e-02
7.529945457351897020e-02
-5.329908003711456010e-03
4.153789668917633876e-02
7.194304130788836682e-02
5.915133233525381867e-02
5.385989770916778385e-02
6.349609089157445818e-02
4.003565054662778372e-02
8.969933759382495153e-02
8.939295940336600133e-03
9.646062999974452934e-02
6.972716526917611957e-02
6.807996651465647586e-02
1.134406801649429503e-01
3.675667379133908813e-02
1.075759596841538435e-01
9.223495900876020615e-02
9.804228821867630450e-02
1.130285860343384630e-01
1.043138531476272557e-01
8.981013512608904126e-02
8.578002984203339509e-02
1.272324622606000877e-01
1.267483561471006437e-01
1.151423333371449365e-01
9.217114289346861611e-02
1.416850157369060059e-01
1.598619381153257579e-01
1.774455479053390350e-01
1.681674510624782959e-01
1.590586038787223933e-01
1.757542713015095848e-01
1.241014902487326405e-01
1.740450250159828460e-01
1.782918607274175393e-01
1.747087007425186522e-01
2.494133353780840501e-01
1.694437340888163002e-01
1.770318461049659176e-01
1.562950416338245441e-01
2.242140300333444469e-01
2.060232633906734501e-01
1.750673118310316356e-01
1.611802829539289994e-01
1.780281190313598161e-01
1.151674107632761485e-01
1.546223178658694686e-01
1.518407226395916410e-01
1.441040194559908005e-01
2.056522174894694632e-01
1.249534107977769426e-01
1.741749851233175272e-01
1.610822711671529017e-01
1.678434338062570197e-01
2.216212720744935583e-01
1.644611598292348154e-01
2.144398301027648224e-01
2.369440922880836631e-01
2.198443568097835088e-01
2.486295055741689353e-01
3.702067504536107334e-01
3.561420972629352755e-01
4.039598286289243778e-01
4.540010687536490952e-01
4.999616502131353224e-01
5.250495473298969484e-01
5.880986265034116034e-01
7.286485720764774854e-01
7.333371474763277220e-01
8.698078923257125394e-01
9.324748225908281452e-01
9.900156005684459526e-01
1.069291002563048876e+00
1.113730346981195662e+00
1.137830511365623298e+00
1.159869629210855457e+00
1.149460108519667401e+00
1.173133749527395020e+00
1.133831943604608261e+00
1.072149462059635461e+00
1.067065848665211147e+00
1.047809022458529915e+00
9.977182290167456724e-01
9.075466287924539577e-01
7.418310404351184939e-01
7.284199332967724594e-01
6.759707481915031568e-01
6.547135996263920843e-01
5.215221567339264341e-01
4.974997884142762783e-01
3.923414627236881391e-01
3.523111775812488577e-01
3.260506005176801447e-01
2.569901733936267307e-01
2.444311524235778799e-01
1.417770429660481224e-01
1.968406964252173152e-01
1.656501608997861252e-01
2.438205056812995097e-01
9.833859976855556517e-02
9.486293901684751673e-02
1.238109893050222399e-01
6.929877420625707440e-02
1.308961173785625764e-01
1.160013234008917399e-01
1.728606038390529398e-01
1.321281755728123397e-01
9.912212123995883806e-02
1.256026685387035824e-01
1.641270453173483690e-01
1.123886073290532028e-01
1.676879088694048503e-01
2.215360096853506156e-01
1.597520912937594462e-01
1.456229415711263186e-01
1.137950489299325296e-01
2.006763346748065280e-01
1.674635240222853705e-01
2.262986445066378360e-01
2.159847323416719811e-01
2.014989217385867171e-01
1.907593412773356811e-01
2.574189644595062387e-01
1.887538278694714799e-01
1.961944996601430458e-01
2.078638133520565034e-01
2.210954254639657390e-01
2.586896079636039625e-01
2.116847800909829602e-01
2.209827311384642279e-01
1.905663046114947357e-01
2.576765392108719133e-01
2.223934822587388394e-01
2.520162885716588641e-01
2.787556785019503214e-01
2.787544627360808436e-01
2.400008949059601326e-01
2.742437382198611440e-01
2.345024974876275536e-01
2.679142813662481193e-01
2.540788682076354221e-01
2.435927774630771703e-01
2.853503688091748036e-01
2.277280134101311304e-01
2.226783729058446348e-01
2.385031930769685726e-01
3.047114352187356157e-01
2.288075314198840249e-01
2.346814305102290776e-01
2.405984606067038678e-01
1.938238295700155378e-01
2.654621062885738070e-01
2.065962163916879035e-01
1.799344018552188618e-01
2.039175875846557517e-01
1.576002275644522166e-01
2.106181015840551674e-01
2.337174393522133409e-01
1.811990141341212890e-01
1.543866887639749885e-01
1.676318124938609155e-01
2.133712484829888567e-01
1.559747266112223585e-01
2.259110716419267251e-01
1.965618345217460816e-01
1.351548481105834809e-01
1.401708030942995786e-01
1.537979724544545068e-01
1.024291340321483862e-01
1.318071117509280465e-01
8.266181274849987437e-02
1.083874571926230490e-01
1.356676812547951139e-01
1.051043722044106843e-01
1.462783845235558766e-01
9.840033815577371723e-02
1.293452249350112992e-01
7.863885784724020112e-02
1.149546349492787667e-01
6.184168469846555716e-02
6.687252965982676267e-02
6.282708567147068934e-02
5.178382623656008904e-02
6.911997017623454365e-02
1.449968562837491287e-02
8.062254694433397539e-02
1.742232060698231666e-02
2.916596574454008439e-02
1.400310594415440750e-02
4.841568886719902626e-02
5.960265227408773764e-02
-2.727093404189391557e-02
6.709595699426948445e-02
2.113655158620583036e-02
3.867199965940175052e-03
8.175005902460447116e-02
1.111345847554712739e-02
-4.988544955258834152e-02
-3.194385312840992280e-02
-2.938219871038422540e-03
-4.579269011497869024e-02
-1.587612759016301250e-02
4.961904023990943574e-02
7.353433646210653929e-03
-4.139573019955170019e-03
1.812351088079785025e-02
2.880027069409887147e-02
-6.329590755836327076e-02
-2.901663489855457051e-02
7.325650446471296956e-03
-4.875754568820691442e-02
-2.704093246224842373e-02
3.328219915737448686e-02
4.171785121349254333e-03
4.152163193835690935e-02
2.219971420929133660e-02
2.579669479589681916e-02
-2.473272430643141603e-02
-1.554999904994934512e-02
2.290781784347939443e-02
-6.093963528087237985e-03
5.298041575174938789e-03
-4.177126743171256928e-03
6.900806441285292636e-02
6.772149145588476915e-02
1.051987143645226677e-02
3.247937344835141737e-02
4.349034389374384357e-02
7.862955303687675646e-02
1.763100883718109191e-03
4.772425091754886606e-02
3.642853200694882998e-02
9.025108868018838493e-02
1.737629417249928268e-02
1.213923390065932070e-02
5.578701938681970840e-02
1.019050761392578802e-01
9.931565782939835718e-02
6.469771987279740455e-02
4.830185424940283689e-02
1.120862342456158262e-01
1.114946424002049713e-01
1.356789631653245176e-01
1.025091482907323215e-01
1.380283127815405964e-01
1.189042788432661257e-01
1.292549205468373763e-01
1.140625595509772300e-01
1.298867038556557330e-01
1.707653458459768292e-01
1.468230792733372370e-01
1.525340870966789553e-01
9.174901345914923678e-02
1.567511894864444533e-01
9.516195286317805091e-02
3.937610456899106465e-02
1.100062216678441146e-01
2.002912277396013963e-01
8.855355929532587878e-02
1.227161251212246784e-01
1.267850762703891798e-01
1.171850899570046761e-01
6.696017144305224655e-02
1.071950407744766132e-01
8.031981558661524523e-02
1.408893229048816809e-01
1.218446196135187926e-01
1.233802989756415946e-01
1.271704857885450624e-01
1.253377151650549304e-01
1.459538838808640271e-01
1.554125519271392086e-01
1.766405957961303397e-01
1.952133524882410653e-01
2.677540246691503256e-01
2.977169285976290491e-01
3.760683515668109544e-01
3.557155788598179713e-01
3.997133254213651177e-01
4.985305370742499353e-01
5.944642107863877811e-01
6.631859458611746305e-01
6.967463618620904908e-01
8.302485748489666362e-01
9.026384824198564472e-01
9.705160290464679429e-01
9.883327361483777995e-01
1.061286127438910043e+00
1.083094170635423348e+00
1.123097185761968930e+00
1.135705649290571939e+00
1.112090511426687911e+00
1.054553229867984054e+00
1.065772211165325389e+00
1.072231894268226737e+00
9.295380943255413531e-01
9.162613807050173920e-01
8.013979493916821850e-01
7.988027726208354329e-01
6.779306690252354661e-01
6.224085142070000520e-01
5.619741009500128781e-01
5.048290487998793319e-01
3.863266381100460278e-01
3.246590105767395151e-01
2.740183913604052890e-01
2.303110833040402372e-01
2.437555337936479216e-01
2.137598218497210323e-01
1.326163564972481779e-01
1.626286490137928142e-01
9.626848245325286824e-02
6.972266707276489339e-02
6.933639621906147188e-02
5.716499830980112384e-02
8.000292051365219537e-02
1.055081487939999729e-01
5.020134212327312384e-02
3.408138434972044634e-02
6.497358408027804899e-02
5.872998827423001056e-02
7.187898187118882398e-02
5.094118316488865233e-02
7.019874261292462225e-02
1.206013664585102452e-01
1.757072449880273668e-01
1.312396652552488274e-01
9.955628254641640806e-02
1.241722061177202574e-01
1.084076150460799581e-01
1.286384468785824464e-01
1.216718881748491410e-01
1.645750818565944740e-01
1.339276535514663247e-01
1.624267670569389255e-01
1.571437881206736165e-01
1.938918047818768142e-01
1.384113836782287776e-01
1.416397061811921487e-01
1.749636459111672260e-01
1.864283785813880545e-01
2.086164578610492371e-01
2.482301560605841562e-01
1.785957847785230590e-01
2.111779431643891480e-01
2.367651477072352795e-01
2.370584548881170261e-01
2.197846843149706131e-01
1.668033665969542723e-01
1.805677747872260208e-01
1.859760748493235749e-01
2.119851262841202788e-01
2.201382140501516038e-01
2.283780318186855451e-01
1.794032817522554224e-01
1.835641718679698609e-01
1.792479829612622644e-01
1.671271127863250550e-01
1.690578368589876757e-01
2.022742484553052278e-01
1.783098559930436089e-01
1.874514118786605732e-01
1.793565262269456451e-01
2.169182461530395345e-01
2.248562335478210827e-01
1.608962516984966673e-01
1.617328872748184931e-01
1.469636641467288729e-01
1.529073274682138661e-01
1.428842277986738796e-01
1.293158862347918991e-01
1.261187428882125650e-01
1.669323077715587356e-01
1.361018583509399915e-01
1.349422196172664623e-01
9.993681055044956185e-02
8.083866565766736900e-02
1.178839388829985430e-01
8.118173642497608644e-02
1.315737322239879104e-01
1.271583616189345123e-01
1.067573237345032511e-01
6.585738394260734485e-02
7.694927243233272429e-02
9.424204357488219497e-02
6.688240352796491484e-03
8.912048400663408199e-02
4.294205851092578602e-02
3.279876955954945383e-02
2.501598031594540195e-02
4.037391229030254380e-02
2.741531322391089348e-02
-1.634984810644385389e-02
1.339440628857984511e-02
-2.140586809081941599e-02
4.155741372737987993e-02
-2.362127732562939453e-02
4.414164407811081020e-02
-2.681466625588798530e-02
3.752803949718495902e-02
-5.368303026124462973e-02
1.250685089960204555e-02
1.843518629425435623e-02
-1.893031558017191363e-02
-1.348534537286497775e-02
-6.903005246053442456e-02
2.047274540319746206e-02
-2.897942128798324662e-02
-3.808331940223574907e-02
-4.061585149985591503e-02
-7.720622720946085371e-02
-2.486103866227683257e-03
2.031980974340775320e-02
-1.056631247677958241e-02
-6.048864778632825900e-04
-7.344477420451905880e-02
-3.668281405072523066e-02
-2.090944160811410157e-02
-4.291176820123319968e-02
-5.558005558158560233e-02
-1.333484569706267636e-02
-6.291345569584194664e-02
-1.504287018031914558e-01
-6.537941217535328531e-03
-2.197195698148197290e-02
-7.651461412611547386e-03
-3.049067908300362104e-02
-2.224577105877102029e-02
-1.895807447026897838e-02
2.470046517415100396e-03
-2.118909619259450733e-02
-2.394427927667804046e-02
-8.142865861023418361e-03
-3.244676546661595662e-02
2.784792110543776733e-03
-6.432714648131417079e-02
-5.394339623322509658e-03
-4.100073135653600764e-02
-2.613344225653648628e-02
-3.601655275316961030e-02
2.121443670444513735e-02
6.128674014550270638e-02
-1.177204571312987641e-02
4.172993714522968411e-02
-2.156174955301739388e-02
1.940707828634340160e-02
4.298612267573590634e-02
5.310886599189416218e-02
6.581948481791413674e-02
6.495209732335448238e-02
7.396879814050913438e-02
4.484434349205999870e-02
9.152184967004009519e-02
9.624262344708012229e-02
9.220278056633367247e-02
1.040434705236045199e-01
8.951647149846006513e-02
3.942576075243115624e-02
7.360387190609157804e-02
1.060379082573892906e-01
6.075846114291113403e-02
1.101385624470603286e-01
1.123402049929593249e-01
1.172636804156858836e-01
8.319057060749171506e-02
1.029311241595556314e-01
1.543670110810723695e-01
1.267999391508357609e-01
1.181682953573616468e-01
7.315734953304212085e-02
1.024558632794215218e-01
2.534462780623553124e-02
8.634592196070678405e-02
7.272077029793556913e-02
7.955741357314390083e-02
7.101017218296518108e-02
1.202758196610061586e-01
9.353561342383365229e-02
5.777159713158108723e-02
4.783211340185561378e-02
1.074568834214456731e-01
9.600227142233819233e-02
1.555207744976390971e-01
1.224839519718003839e-01
1.301285942299671983e-01
9.409814806993474501e-02
2.058321151004826044e-01
1.719979297556962217e-01
2.486301296553445894e-01
2.285030898024212609e-01
2.509190480764373343e-01
3.666645169960515704e-01
4.191118886520798226e-01
5.155856003055701020e-01
6.154021216421431406e-01
6.886210912288786012e-01
7.367151001407032940e-01
8.022942426685133466e-01
9.096973863334271160e-01
9.862866756982345828e-01
9.710584707741726218e-01
1.053283999058345133e+00
1.051986375735685986e+00
1.148250918765769235e+00
1.141966809182267450e+00
1.128142180865472133e+00
1.065917424033603567e+00
1.078038529128505507e+00
1.031149207812373181e+00
9.319984623146569946e-01
8.657445311708320546e-01
8.081514076013133208e-01
7.711815800522628939e-01
6.309077618932523723e-01
5.515037525725229317e-01
4.580473196789658363e-01
4.729124657428279144e-01
3.735915399821801985e-01
3.545666499731192634e-01
2.782501427241311220e-01
2.520409602623835399e-01
1.345675860223330966e-01
1.306304758519653553e-01
1.002660537606922808e-01
1.443974896016108067e-01
1.279103839038794876e-01
9.300439240201552327e-02
4.394803553349471703e-02
3.124933795097956102e-02
1.097096189194055188e-01
2.824764961502410771e-02
8.833880589694602381e-02
3.250657300823436846e-02
9.133811425641745474e-02
8.753263713429926263e-02
7.658739336014586119e-02
9.646226469120589009e-02
5.453869182485261008e-02
6.730514611177576545e-02
1.223347223732587086e-01
9.858220066119208203e-02
1.436381988085615180e-01
8.124842793356132353e-02
1.111914478668597217e-01
1.190429798763873170e-01
1.887875621410183835e-01
1.367877989188133747e-01
1.514227885454029199e-01
1.771432695729782958e-01
1.325162626379208231e-01
1.582652970600020303e-01
1.847513598369795729e-01
1.399973985006960076e-01
2.251363142971634923e-01
1.904224818526729368e-01
1.920474896170810686e-01
2.439604533371503847e-01
2.290827594410720092e-01
2.214744449935057979e-01
1.587092754273183859e-01
2.178846214099019185e-01
2.581077083420820761e-01
1.630801796611483778e-01
2.005578607823632342e-01
1.882200796198673920e-01
1.775029793072530615e-01
1.991864040351115639e-01
1.748985145408900876e-01
2.303987275182727557e-01
2.195611452827248566e-01
1.624819209169991174e-01
1.730509580273029147e-01
1.948906457098732170e-01
1.670092923117959260e-01
2.140440249934309203e-01
1.454819143259031000e-01
1.978957284403180805e-01
1.578518864301392544e-01
1.645730728690549538e-01
1.845097313643405401e-01
1.938281613512369828e-01
2.218686727769369205e-01
1.947469660356558052e-01
1.273843828688621116e-01
1.498220524952923738e-01
1.417952435475655359e-01
1.541807153599414615e-01
1.353066563688430646e-01
2.212500970136992984e-01
1.418808635758886383e-01
1.075178877470909511e-01
1.690097289117564183e-01
1.269205367123169004e-01
1.217751657704256307e-01
8.832621362991027736e-02
1.111934916630184511e-01
3.894153369115002650e-02
9.850526417134655710e-02
8.897815912023349094e-02
4.750759061219171631e-02
7.241874812340506895e-02
1.278377160157871395e-01
4.645142697201053161e-02
5.385417105668082599e-02
9.469273853304274735e-03
-2.165623980357703204e-02
9.702520452298198095e-03
5.466983418827212060e-02
7.175923446904998448e-02
-8.353869338347669204e-05
3.620489626542135186e-02
2.415161666234591498e-02
-2.187087735047744258e-02
2.866167119601648744e-02
-4.852976577591202462e-02
3.025367489153894807e-02
-3.329100308969239197e-02
4.469478767815904946e-02
-5.738611316431656284e-02
-3.116977649606882811e-02
2.371850808445145897e-02
-2.463954482418947642e-02
1.667228220699379371e-02
-7.160698850611009469e-02
-2.071870525501993618e-02
1.868445524529738916e-02
-2.535391661356724280e-03
-5.243657191286790753e-04
-9.452998917393987816e-03
4.483390813644627659e-03
-1.903984298620417515e-03
-4.010825088562563340e-02
-5.547620600480009101e-03
-4.624091246478239520e-02
-1.704597574351202766e-02
-1.945956834448595366e-02
1.629609918605199811e-02
-2.737595176937061836e-02
-6.063903750480496846e-02
-2.071282853269361748e-02
6.069909240438914333e-02
-1.799587721459236164e-02
-2.341964440474473413e-02
-2.905159119433854339e-02
9.012768222022078668e-03
-4.267327846480279546e-02
-2.440515446359160442e-02
-2.149392955373096575e-03
-8.781335458797261823e-03
-5.604736975166859508e-03
1.225750086777682712e-02
4.561488428778733700e-03
4.802622568123075808e-03
-2.878766626298843306e-02
3.919366046322454722e-02
8.025530787839062208e-02
3.364358392315187907e-02
5.706048814174442818e-02
6.867445547425164720e-02
5.118888118310885305e-02
3.278846892286481352e-02
4.171233022395032242e-02
1.160001860643411070e-01
6.235205485207732934e-02
8.417536738716248357e-02
7.572665550523942357e-02
7.970094517726393490e-02
9.036921742909122257e-02
7.049083913131980184e-02
9.036511195780547179e-02
1.029100833308686791e-01
1.046839799800549226e-01
9.568860023400919956e-02
1.436650377749368324e-01
1.177169106519155295e-01
1.159760694657582109e-01
1.211331486039677885e-01
9.062567972246560188e-02
1.082744791961743752e-01
1.426655933470729054e-01
1.239809657065308185e-01
1.242777137493285278e-01
1.273415721993428895e-01
1.505242072157952637e-01
7.722101304489090157e-02
1.565072273608300313e-01
1.526194104227226178e-01
1.268325264188047696e-01
1.231150809859092587e-01
6.482986477252378199e-02
1.406266275893239548e-01
9.328223081392582328e-02
1.226649289417793831e-01
1.748143429825152750e-01
1.746367056833744436e-01
1.366919125732591889e-01
1.543890327898400638e-01
1.431970853993020931e-01
1.336010001196517583e-01
1.977794781554168824e-01
1.870336542589967621e-01
1.994357585586465642e-01
3.041592758869786639e-01
3.282428292347723819e-01
3.913006394414066391e-01
4.740961767192252152e-01
4.584029752048318640e-01
5.983105723955225441e-01
5.968345225349647176e-01
6.911028168083132028e-01
8.320076725909800741e-01
8.816056359116282160e-01
9.593135605708371649e-01
9.947788368521990332e-01
9.862728672467283575e-01
1.087846910423548419e+00
1.125998684355770996e+00
1.099900067254711455e+00
1.085739390292042250e+00
1.107835998257528543e+00
1.077482552309039665e+00
1.051954634256516030e+00
1.008457178166476398e+00
9.575001716831793575e-01
9.164810759786901073e-01
7.827894144806526455e-01
7.704684759689405249e-01
6.848671451447317926e-01
5.746471690157238799e-01
4.687173246155193485e-01
4.693783184340257764e-01
3.881693007814177587e-01
3.558369447240177230e-01
2.404043526723192437e-01
2.624721138295235123e-01
1.934889681693600649e-01
1.910909920859286126e-01
1.135479075215614642e-01
1.692439008787719468e-01
7.539583972331176387e-02
1.584375125774533655e-01
1.411451228552393355e-01
1.125046252344270858e-01
9.681086559375737255e-02
9.929492235503574460e-02
1.596176494904728571e-01
1.095678791090455989e-01
1.241975959482085473e-01
9.817824057765037193e-02
5.978556703267224465e-02
1.273387889915175986e-01
1.092336349657682948e-01
1.007477685374761900e-01
1.376465035456105046e-01
1.317456261276541696e-01
1.623610901927715899e-01
1.805765029017321055e-01
1.761414318790631983e-01
1.533804776839149953e-01
1.647168486842293667e-01
1.415636159306452313e-01
1.683350627516398690e-01
2.391069263173919990e-01
1.958611878100859627e-01
2.112428035504323731e-01
1.874053655889562631e-01
1.916964510655130849e-01
2.172241109809520676e-01
1.939917841048384439e-01
2.180498797249507681e-01
2.154379103730001133e-01
2.962975740391160517e-01
2.171610486302049670e-01
2.570587488064625670e-01
1.964954374009223181e-01
1.820413221781936597e-01
2.686526818295386088e-01
2.488937955862018381e-01
2.220891444134664161e-01
2.468577551615308563e-01
2.609903301001112452e-01
2.686257676474715916e-01
2.398696848416700389e-01
2.626803244610630417e-01
2.692999897491371031e-01
2.575770455641161472e-01
2.493955488809479204e-01
2.294851689382867710e-01
2.506094434079175759e-01
2.236542186848269886e-01
2.678543143296233664e-01
2.063715410176353571e-01
2.359027745414814803e-01
2.256405952284306904e-01
2.575234284056960865e-01
2.069411007803586000e-01
2.702899971067725393e-01
2.366639443622089167e-01
2.244066753455590812e-01
1.810120909022100988e-01
2.169535154926653664e-01
2.292163657822875733e-01
1.976370936824711488e-01
1.672712853231195784e-01
1.579187501434562158e-01
2.060099637218233137e-01
1.452596723038733495e-01
1.074782939002462689e-01
1.528569007721070905e-01
1.615425030253478944e-01
9.186473197819160219e-02
1.459375184184256158e-01
1.496986008736176377e-01
1.778861554251019716e-01
1.278039078498949266e-01
1.529246965181741413e-01
7.874912089304608731e-02
1.317620835811015578e-01
2.890848675730461892e-02
7.982015190680685768e-02
1.120591459648026256e-01
6.045352471812300704e-02
5.647285994698422740e-02
7.084071616123370496e-02
3.020883206969697532e-02
2.576836420393915569e-02
3.051574771520976920e-02
2.484868232501420693e-02
2.022844529946173781e-02
1.019499941487318623e-01
9.811803795642429563e-03
7.480974957469610498e-02
9.268123889616346200e-02
8.045052920576260813e-02
8.363866541717746017e-02
1.036724373017315626e-01
2.363454218873401944e-02
-6.274028103639861520e-03
4.939471947352941372e-02
2.723125333041307577e-02
5.365962040449295811e-02
-4.878316161141843521e-03
1.157127080091698013e-03
9.676123806954509132e-02
1.652378626567169856e-02
2.732964546425445396e-02
5.284915301102192930e-02
6.088419065206607250e-02
7.066567032802212323e-02
5.394418714077978128e-02
8.792283424799599012e-02
-2.052003899119377375e-02
-1.606183212493113299e-02
1.978298363117017566e-02
2.019671259304960109e-02
7.222391576251332990e-02
3.497325824036265352e-02
1.535809742674031433e-02
2.993151020322786654e-02
6.255274985587910841e-02
9.238832037816291365e-02
3.724210863951778888e-02
6.157859089408790343e-02
8.432280360465657654e-02
9.510080574737134196e-02
4.074628277445413449e-02
5.986179005186974267e-02
4.223811758138228123e-02
1.487763179227391541e-02
5.126038956536301677e-02
8.840422397380984232e-02
6.445440090862286642e-03
1.016002129654906688e-01
3.996944368060144359e-02
6.938860058657404795e-02
7.928341119271423154e-02
1.338098639288904101e-01
8.325183180426061480e-02
9.014598280714743173e-02
1.129962591197752886e-01
1.394146159029387710e-01
1.395901907440242340e-01
1.414378914118203379e-01
1.665676532929968034e-01
1.540357476408089898e-01
1.712516183918280643e-01
1.243095273370631582e-01
1.918025578287073374e-01
1.806117949653305299e-01
2.068144332838589838e-01
1.975238337485858420e-01
2.340519757003136914e-01
2.186478917302817349e-01
1.875527007165245508e-01
1.773276144569109203e-01
1.606537999840477460e-01
2.200605621664967204e-01
1.821797375609503222e-01
1.760974769486657876e-01
1.288913687756746695e-01
1.230130018045212659e-01
1.447114049916783662e-01
1.802852451070210693e-01
1.137013484700614141e-01
2.215275217271227004e-01
1.637143561308952722e-01
1.931265836625939425e-01
2.052558773652549406e-01
1.599798336624150275e-01
1.787149344809169371e-01
2.116519551388946208e-01
2.065659680721457225e-01
2.210136742903340279e-01
2.778958282524814360e-01
3.055551599905252935e-01
3.177763960030668411e-01
3.050094916195994488e-01
3.672776420837667311e-01
4.417699867283555459e-01
5.291214915679872677e-01
5.317200136578333902e-01
6.845074841577740710e-01
7.332458059396160799e-01
7.975156401760101765e-01
8.429673014485323801e-01
9.161386885088553811e-01
9.943823038176684559e-01
1.070292948779328679e+00
1.137008082637090745e+00
1.108671230999940915e+00
1.200351545180827761e+00
1.220640054295057286e+00
1.177070713924806666e+00
1.195925209267681089e+00
1.139924053623948774e+00
1.055296138620369417e+00
1.125156632422462666e+00
9.258588242283360970e-01
9.573903918235696642e-01
8.241566044329893259e-01
7.678383200057558033e-01
7.075449876088615309e-01
6.293751372098033148e-01
5.324705086812410171e-01
4.840415547020676668e-01
4.463589963537519800e-01
3.947710298196844825e-01
3.261961783924035574e-01
3.121098911681198795e-01
2.154812130557206273e-01
2.226623238638039126e-01
1.993832394444727540e-01
1.731438437371883021e-01
1.667465248505232978e-01
1.870821068799611575e-01
1.671223081598153803e-01
1.470864841995624117e-01
1.298578984427705696e-01
1.295287587867764989e-01
7.914377721277135458e-02
1.324206552966333827e-01
1.771034739023469307e-01
1.803282502424440326e-01
1.649129877779423881e-01
1.266440692187861816e-01
1.649290468076136940e-01
1.920007902267470423e-01
1.937833717781059506e-01
2.691221869177060078e-01
2.105269550830463077e-01
1.892499044542578779e-01
2.679816850138766471e-01
2.105736363326133342e-01
1.628557383556906157e-01
2.628976756037303963e-01
2.539169567357313917e-01
2.701053240479615036e-01
2.450136250319031039e-01
2.102680767615324464e-01
2.396959570276950280e-01
3.276946254387751445e-01
2.622025822377443971e-01
2.727197852859274962e-01
2.105577215404028091e-01
2.097982235038721721e-01
2.979233078621418840e-01
3.052125375254945983e-01
2.711581240909955448e-01
2.616251731291228677e-01
2.422595777343364842e-01
2.858547773346863941e-01
3.080728198325862199e-01
3.000480617090149904e-01
2.894805329648439396e-01
3.269458302369610547e-01
3.360289317484885796e-01
2.732365377495967751e-01
2.698795810488520686e-01
2.912990450715873259e-01
2.747691034146629296e-01
3.344240684295491928e-01
3.195609553660031521e-01
3.062960370579465574e-01
3.108269090235790122e-01
2.698520569637232747e-01
2.637066517865307991e-01
2.943022130440848261e-01
2.854869595990487952e-01
3.454967585159371413e-01
2.540826124155725063e-01
2.381866614832617302e-01
2.601397050129070632e-01
2.435666690463647865e-01
2.714969998343778057e-01
2.357495140891155971e-01
2.953301018555098967e-01
2.213886530206316539e-01
2.502888327646380917e-01
2.867099516413195159e-01
2.257220533507254545e-01
2.067044794836816468e-01
2.191677549500913313e-01
1.733340420489387357e-01
1.546947751299055096e-01
2.073503638862553844e-01
1.504370050996814978e-01
2.049171944976461157e-01
1.564454729428777779e-01
1.220541007225909719e-01
1.720118843780552575e-01
1.592464622246615169e-01
1.664603157519586318e-01
1.639813179449224612e-01
1.476210988753635378e-01
1.376786838940539381e-01
9.139951133873178146e-02
6.228901860877369967e-02
1.330882908395633057e-01
8.963998968740138906e-02
6.953648258964451045e-02
1.053092228371633465e-01
8.112086184261424471e-02
7.535715594553585306e-02
6.689558276995083430e-02
1.165977221663138941e-01
1.256071895066986355e-01
7.249269416198764193e-02
9.932569521356561515e-02
6.363599362519779812e-02
9.613524639096417135e-02
1.207805748556657899e-01
1.039931579197219541e-01
8.190769030682544527e-02
1.889715953192196152e-02
8.212113678246411863e-02
1.018788547337346473e-01
6.628941975757160487e-02
5.036752876737909945e-02
5.328367905760104939e-02
8.159023145282542910e-02
7.383383487091139952e-02
6.112200170756666717e-02
5.063722218474137060e-02
5.594077288870847459e-02
-2.164859730106154234e-03
1.285920522782769693e-01
5.083154727358853153e-02
9.154137928425781778e-02
5.397252390005791850e-02
4.256990664127667523e-02
3.122251545108896062e-02
7.512768781885416358e-02
1.007738513188860818e-01
6.963098302450412835e-02
8.783826465522676097e-02
1.307415565132619695e-01
1.063916697492325869e-01
7.162066475418074618e-02
8.197346886447626213e-02
8.476368632434533312e-02
1.031570893865439709e-01
7.143263173523042853e-02
3.993951011067803369e-02
4.706389855377464404e-02
1.098829391312617226e-01
1.103582818181343128e-01
7.710415754597998994e-02
1.018368227533426734e-01
1.006672606621729915e-01
2.097411592287135029e-01
2.280011481736169410e-01
1.600331983914312917e-01
1.580319552078151002e-01
1.505588769667475513e-01
1.315551385862634981e-01
1.607145501943095245e-01
1.422208799208619645e-01
1.806610030902017772e-01
1.579774474502393944e-01
2.000111685830911756e-01
1.944777574689959265e-01
2.008948121877802140e-01
2.127960735643572576e-01
1.898928895827210472e-01
2.289696373076796077e-01
2.167529428434477601e-01
2.638927696254881328e-01
2.355995592547764639e-01
2.011792141499869069e-01
1.554208772749709755e-01
2.080821130382680684e-01
2.100727679277907545e-01
2.352990804074475695e-01
1.473088288694573977e-01
2.030787847093613596e-01
1.716995123616166241e-01
2.165935340878558657e-01
1.943397542885773044e-01
2.221678929174812633e-01
1.838303299595917539e-01
1.847777983145199587e-01
2.133423055260317558e-01
1.910931023868557288e-01
2.205793817335592322e-01
2.184055420504413259e-01
2.262697088036733362e-01
2.686922144415908043e-01
3.064179106588799106e-01
3.149517858858496000e-01
3.403589626663656720e-01
4.672044951118653477e-01
4.416573350420375799e-01
4.390620684954123498e-01
5.157794882285524629e-01
6.238918678202911572e-01
7.395412508229122217e-01
7.158971284253760059e-01
8.427552536800568816e-01
8.649142044444799726e-01
9.921505393889964441e-01
1.020955795615482664e+00
1.056653835612539671e+00
1.143453446856449673e+00
1.117089397150862862e+00
1.166885708245758657e+00
1.250137902769802967e+00
1.271641573960129445e+00
1.131363886884610315e+00
1.102135799611408729e+00
1.111452779437013039e+00
1.060873695784012583e+00
1.038783415330396975e+00
9.387377430969684466e-01
8.329296809930613055e-01
7.551684243219239923e-01
6.810208246950867350e-01
5.710573175768239862e-01
5.579344888752999498e-01
4.307502486621516691e-01
3.790851284669321530e-01
3.745264842591104482e-01
3.347345430153202406e-01
2.114430371598673974e-01
2.629596218093552817e-01
1.722854243845758360e-01
1.446160949819429442e-01
1.872184419088193108e-01
1.665898094599718993e-01
1.495816576166926204e-01
1.362669660721161358e-01
1.783533632103998789e-01
1.565437109961437256e-01
1.956762080513981261e-01
1.625312059807015874e-01
2.027512905298448631e-01
1.211333775672789881e-01
1.408404343730643715e-01
1.583335927738161453e-01
1.404725763555713935e-01
2.011198517434602817e-01
2.326094641442397470e-01
1.645605346214904507e-01
2.106778385459996406e-01
2.371301838734340417e-01
2.117035542228458966e-01
2.402636933893779747e-01
2.243932242495508822e-01
2.394579156216558313e-01
2.144548559569156576e-01
2.194992294111521858e-01
2.427816475969961085e-01
2.599587419335563920e-01
2.803829272219424129e-01
2.645360361036579455e-01
2.513843732417173626e-01
3.253133093828975420e-01
2.840799707329564883e-01
2.792219958094583898e-01
2.337509310734410262e-01
2.943517917883030632e-01
2.707275077159711496e-01
2.374007257987086894e-01
3.276567527177459693e-01
2.447173415152241183e-01
2.636675291211961758e-01
2.934333565151704959e-01
2.603005263261212177e-01
2.744788439457613860e-01
2.365427596644778530e-01
2.250071881531091611e-01
3.111910141199216162e-01
3.276594076455522919e-01
2.648257705429926112e-01
2.777317908996478346e-01
2.394582020596419947e-01
3.090596049090768016e-01
3.081460728516918768e-01
2.730104794538154023e-01
3.348280677062927535e-01
2.559418015596566232e-01
2.186469126599210611e-01
2.204295043051623659e-01
2.323170037934427223e-01
2.477977089433431312e-01
2.216079457069272118e-01
2.181788719520067754e-01
2.902970597071384828e-01
2.678965188983537526e-01
2.267963065614216900e-01
2.665419806218046195e-01
2.314434677002003005e-01
2.550853941510895506e-01
1.592674224514382675e-01
1.890232536977437539e-01
2.226601939085134652e-01
1.943894584768697809e-01
1.639872368595511609e-01
1.711322884293317026e-01
2.132226768771194325e-01
1.024392663539049897e-01
1.189152452027846529e-01
1.534569059271153613e-01
9.864927765719856689e-02
1.351905409847189987e-01
1.212668242822076414e-01
1.074036789572261896e-01
1.326581397706159127e-01
1.117122394074163971e-01
1.045807591779858853e-01
1.683522283882794568e-01
8.074850986904774652e-02
9.489477847524427356e-02
8.670064256771235767e-02
8.125610865901491953e-02
1.060756431016871143e-01
1.118459490951143886e-01
6.336092884355140620e-02
9.484358818017586679e-02
-1.325410694416671864e-02
2.582517167152199866e-02
1.021834635200041391e-01
7.497102956130123619e-02
3.492350561855654678e-02
5.830464990023267319e-02
7.578147775783627971e-02
1.179753920554830679e-02
7.582343529173726782e-02
7.235883372164814142e-02
-1.636274165012572071e-02
2.561719472294577207e-02
9.478941896437918097e-03
6.840440961087917993e-02
9.279014578307824557e-02
8.499530467029664527e-02
7.643358987147047534e-02
4.439816539604583140e-02
1.912561385517314375e-02
3.162549358501359070e-02
8.031870724567205522e-02
2.551726688868488635e-02
3.763526933973455196e-02
2.492224977391305218e-02
3.603028062645501767e-02
2.487176409691058826e-02
4.356524765406238897e-02
4.181513718727155465e-02
8.546837910606953914e-02
5.361830440568739892e-02
1.692938985920675390e-02
8.730776848961606385e-02
7.529626024083561908e-02
3.202479791306703932e-02
1.032829203278705643e-01
1.244626057532620400e-01
5.379613486337592176e-02
3.353477534900234369e-02
1.105131192573532151e-01
6.638403431075792782e-02
7.044579349285083614e-02
1.134955477313998595e-01
5.027993297111769261e-02
1.514511437842940289e-01
1.250211356429464793e-01
7.815600091254829018e-02
7.323153910365354236e-02
1.514523869399814204e-01
7.571169929254066566e-02
1.263914048902679554e-01
1.104531739675031765e-01
1.212651126473468094e-01
1.864984448837471442e-01
1.423914451219337185e-01
1.543711173573623363e-01
1.406194574162690225e-01
1.125739690916352231e-01
1.717931002878769764e-01
1.407836417744321167e-01
1.173988021838779511e-01
1.433037349067551314e-01
1.518008263971223626e-01
1.690599888187439281e-01
1.995720557181518973e-01
1.862065444897733346e-01
2.161076805986895388e-01
1.553977715517158853e-01
1.710115343589965475e-01
2.035104324733874592e-01
1.619465166143999324e-01
8.859294901991998650e-02
1.669844287411651196e-01
1.195624787009360868e-01
1.628428445762579446e-01
1.864275884928803806e-01
1.800717187998969460e-01
1.485573403692508065e-01
1.373338951673146180e-01
1.936332870075859469e-01
1.746059488212020339e-01
2.165977394221111352e-01
1.883452023572264045e-01
1.954434763311417578e-01
2.126542819987707611e-01
2.718841842759331939e-01
3.313412628883655731e-01
3.657590737350547849e-01
3.700760547215463658e-01
4.620924130538454633e-01
5.424330729122116557e-01
6.159814374803889159e-01
7.049790210676101232e-01
7.666548799959390648e-01
7.720207986448746063e-01
9.018142863728678682e-01
9.596619701995103835e-01
1.012623336215269010e+00
1.084959065660744848e+00
1.097237257110155628e+00
1.135617596560003495e+00
1.154955775895108783e+00
1.134690375571402399e+00
1.078656425186814705e+00
1.096186508597026155e+00
1.137699274496972945e+00
1.070329278299383846e+00
1.006751455310278986e+00
8.443379392077634549e-01
8.340041393293780025e-01
7.706589005808466286e-01
6.982619661484007478e-01
5.807993809355503911e-01
5.514247874130151494e-01
4.367437929936261454e-01
4.217462405419126759e-01
3.769965702869400026e-01
3.047031704331608082e-01
3.014218921778962779e-01
1.942729987993923046e-01
2.155438685752300298e-01
1.577550292807188836e-01
1.409128009223402367e-01
1.221485822036720847e-01
6.739634166600824705e-02
7.718257840703625361e-02
8.356403160358910620e-02
5.973530530487412143e-02
1.274536911747921053e-01
9.837825250126774890e-02
1.537033273233976427e-01
1.160633284357056733e-01
1.745074050050847148e-01
1.076110783051971859e-01
1.134897001091600133e-01
1.078255672107274049e-01
1.570030295393445297e-01
1.461232157082779093e-01
1.327462124556476608e-01
1.681824216467208422e-01
1.784733609288136347e-01
1.727845476050021145e-01
1.403823225325211699e-01
1.996012433358921589e-01
1.620476484996774824e-01
2.133864683927630679e-01
2.419402113683640221e-01
1.479489890749811354e-01
2.161102573876873267e-01
1.878967151837675487e-01
1.860909854915361317e-01
2.773443037237952602e-01
2.374178286500084611e-01
1.906062846232328412e-01
1.978842545830175326e-01
2.063668211748284909e-01
2.910317452432835128e-01
2.706049529424390809e-01
2.798390502821221371e-01
2.799848082535540961e-01
2.537872386704846939e-01
2.853270149647364473e-01
2.323147164258446695e-01
2.390273585246496524e-01
2.511197860143414284e-01
2.344078293134306545e-01
2.016982141751917645e-01
2.162616666855157188e-01
3.096743653860939971e-01
2.214027092266638574e-01
1.855158141196721067e-01
2.388650826648203440e-01
2.091617244191028013e-01
2.199620723212642459e-01
2.180249441107249830e-01
2.473911789527954430e-01
1.968879959836815352e-01
2.269464030780249664e-01
2.058775370175553732e-01
1.882897742838967603e-01
2.121056937092875294e-01
1.740731930381589909e-01
2.165233143853591280e-01
1.364563634978369633e-01
2.024466526755382134e-01
1.374641088790857224e-01
2.191997605292206608e-01
1.665096459505256976e-01
1.785764673379076073e-01
1.654946431254924188e-01
1.448905085994872388e-01
1.448617506957663170e-01
1.564199841050791795e-01
1.537111351782575464e-01
1.197537464788400313e-01
8.273497668991515452e-02
1.486692591114664730e-01
8.554159565733218673e-02
1.161338481513803783e-01
-1.418565141572784155e-02
8.730225536089293581e-02
9.815797244325258353e-02
5.724586370700782134e-02
7.470223871297941576e-02
1.895934047861401114e-02
4.630649895172024577e-02
3.509015357205520075e-02
7.724386163121407800e-02
5.733823166806269189e-04
2.418934897179006796e-02
8.609652038814341601e-02
4.627099140690478507e-02
3.491394648300186199e-02
2.301851163525053465e-02
4.457055619317139283e-02
5.295102272540265498e-02
-3.706398020962703432e-03
-1.270982043102467443e-02
2.206347539805472019e-03
-5.514867761528034762e-03
-1.838727864173365228e-02
1.668468909578921938e-03
1.402666915163948425e-02
-1.787596826794080052e-03
3.829890682758994164e-03
2.371196866877264484e-02
2.390958817959836294e-02
3.594627187833115273e-02
-1.052668412126080491e-02
-1.996105771826019865e-02
1.377603723735937660e-02
4.934220496695621710e-03
-2.788900239089945124e-02
-4.639268031492137234e-03
-6.432089541397591204e-02
1.557617570866726489e-02
-1.918243930754829490e-02
-4.400335237910492359e-02
-1.664480855003241250e-03
-6.884088227054260822e-04
-3.361420497100180843e-02
-6.307200910823743123e-02
-6.935185784288212807e-02
-2.807744953288276654e-02
1.184316320322967298e-02
3.670341722936384943e-02
-2.940114536025226558e-02
-4.608903499191591147e-02
1.187261017830673962e-02
-2.491865130575777673e-02
-8.042221501911926695e-02
