9.203567770337290899e-01
9.440966550567961857e-01
9.236350709608270870e-01
9.348503540440602499e-01
8.802267200009550319e-01
8.924414733351370144e-01
7.920964379079481477e-01
7.509025924934245033e-01
6.579306266199138609e-01
5.960235104546005580e-01
5.187631027658933247e-01
4.858474945447207594e-01
3.351759188229350706e-01
3.571816372416780627e-01
2.712178401274846218e-01
2.451413226122695632e-01
2.228966821239997398e-01
1.716429681412882657e-01
1.772295069040723536e-01
1.628880915094266246e-01
1.306715118814412435e-01
8.717867863630193725e-02
8.325443324502221354e-02
4.868745628351449362e-02
8.538340524083531946e-02
6.114925930963296258e-02
8.704747434463022682e-02
4.523059203226893060e-02
1.012568965823619216e-01
9.682795712520428366e-02
1.224881805664585210e-01
1.024165336934605430e-01
1.182000447463559117e-01
4.873290533637111843e-02
1.311659941883464575e-01
1.116696460482270309e-01
5.502713464432339857e-02
1.515030148862804849e-01
1.370425773480926923e-01
1.034351559895914652e-01
1.050506357743204722e-01
1.208207458438805004e-01
1.480733103835289444e-01
1.791593913130049009e-01
1.228426554415968652e-01
1.368647066179633498e-01
1.647471140311724536e-01
1.923385313178458400e-01
2.141209327051040723e-01
2.276245276202921719e-01
2.315997723872665337e-01
2.114167801489784393e-01
1.996274922122057149e-01
1.825192427912142867e-01
1.959426711136070809e-01
2.136428250576202781e-01
2.437093697182584062e-01
2.218852070511914132e-01
2.325881558136418670e-01
2.447950353458625272e-01
2.133009381813359140e-01
1.905455118212869281e-01
2.418197585294209473e-01
2.241264773074281291e-01
2.225869645202573355e-01
1.962889122170614620e-01
2.041685250478975644e-01
2.294460486955657852e-01
2.073137648053650639e-01
1.840704082302866973e-01
2.010494075857310603e-01
1.351924181885609810e-01
2.496008434166804846e-01
1.786730066856643262e-01
1.275831255719374058e-01
1.874767496877808026e-01
2.010884151089739891e-01
1.600891570337742709e-01
1.783143909994835963e-01
1.686932355399483607e-01
1.119620449750775015e-01
1.347530822913329818e-01
1.750571028535696239e-01
1.161741654625009362e-01
1.307568187634553791e-01
1.821564969650550925e-01
1.585714765985010988e-01
7.735078361501446231e-02
1.091710731002961399e-01
9.576151047051950638e-02
1.232441426287616687e-01
8.838346020599496811e-02
8.796239018647275532e-02
6.181738284864858601e-02
7.674613330974264236e-02
5.936599784008819020e-02
1.879489189504562896e-03
1.578524352869538350e-02
2.274974356624347160e-02
7.454814535848584833e-02
-1.155054622978660128e-02
1.072939089616468944e-03
7.540668503800851408e-02
2.913118341007003148e-02
5.583004405586532160e-03
-1.108132169313243154e-02
5.065676884708601724e-02
-4.539287778270728602e-03
3.603803080599211200e-02
3.580522837599714459e-02
-2.123984596954444498e-02
5.372820693409294246e-02
-9.313398130359612503e-04
7.519708505042278779e-03
-7.610363195067391950e-02
-2.403313615587061858e-02
-1.676839469629683513e-02
4.150991303275196331e-03
-1.835953303298071618e-02
-2.132873630811538829e-02
-2.968608074944739661e-02
-5.228530123197171198e-02
-4.109599228815777328e-02
-5.076711295604045826e-03
-3.715007725940071975e-02
-2.945618452432088169e-02
-4.493884624147416462e-02
2.630492786000124261e-03
2.019393747110057036e-02
-9.653823775077624569e-02
-3.419023668082180750e-02
-1.057239094199328155e-01
-4.988859128888441935e-02
-8.972600384007209384e-02
-4.118995096495280811e-02
-4.177153472869638701e-02
-2.830198777418706929e-02
-1.625008513773038704e-02
-2.459514995177290025e-02
-2.378920136918982395e-02
-5.447432795051773691e-02
-4.192690839618534032e-02
-1.289942461910979082e-02
1.422037104328397611e-02
-3.271805030734174780e-02
-6.450740433630086645e-02
-2.315195988420462592e-02
-7.462946616792515142e-02
-1.042325379742296276e-01
-6.681986563307758253e-02
-2.662801810688874768e-02
-2.295227682387049328e-02
-3.269932817652877743e-02
8.378107611763344065e-03
-5.282008042585312202e-02
-1.672536059685898052e-02
-1.973836092604478246e-02
-3.123400780373546473e-02
-4.170833357023281951e-02
-4.432277139385874809e-02
-1.272947686103686332e-02
1.868664003033908283e-02
-3.906904074759085660e-02
3.731420109296813836e-03
-2.436341242332142054e-03
-3.907047692910975423e-03
-5.547682701440112552e-03
1.565281628310670470e-02
-1.706931031470109578e-02
9.212718337965802862e-02
5.874999438994039230e-02
2.150780938013023558e-02
4.651415235751199528e-02
5.559274256291614480e-02
1.182251219723977897e-01
7.558356450965184048e-02
1.258382259161524575e-01
1.161707139290016899e-01
1.050394227994415619e-01
9.174721878397376629e-02
1.009474075422564232e-01
1.372488682170002749e-01
6.538317571988558341e-02
1.146102803077213156e-01
1.116606127955515892e-01
9.496591234287671268e-02
1.150009188740798716e-01
9.172130133788677919e-02
8.861815314906706931e-02
1.176902437545431224e-01
8.598644765890317565e-02
8.852416264987353345e-02
7.960565363082278134e-02
1.213530032479635673e-01
9.439200502797626124e-02
9.055551963324406928e-02
5.761005922530229584e-02
3.047996160058691340e-02
6.980463781048931726e-02
8.654271893457754494e-02
2.546355247254743909e-02
6.672299743908022274e-02
1.458027932096661317e-01
5.337296434003029749e-02
8.876085798512425851e-02
9.784869250806482732e-02
1.533087679622395227e-01
1.479399426813015062e-01
1.785966224450905304e-01
2.001666587774944550e-01
2.243037480376312010e-01
2.600675859108059762e-01
3.401697247232507992e-01
3.776334291577910784e-01
4.667964893968880591e-01
5.235168575359169241e-01
5.951030026876772405e-01
6.206549811826146401e-01
7.175848535620968915e-01
7.367772000844037272e-01
8.022400256156522191e-01
8.662219240844299950e-01
9.264200024694241309e-01
9.368265430478646127e-01
9.719626347123362375e-01
9.429649691803961842e-01
9.918467907006019990e-01
9.174631194864899530e-01
8.527937625994493898e-01
8.679752864904837217e-01
7.908110870830141748e-01
7.261563456132930083e-01
6.920787835372252950e-01
6.213724336772710188e-01
6.079471627103387732e-01
4.570282764772785056e-01
4.409573587878685141e-01
3.944965538577916431e-01
3.357229604954006796e-01
2.406481929674227360e-01
1.961040984541893850e-01
1.831777751100621687e-01
1.614301207062630583e-01
9.678175597740625025e-02
1.615559835527445587e-01
1.381206403629503809e-01
1.063538795913724910e-01
7.168861816043925472e-02
6.222534923928609712e-02
7.944583245818172268e-02
3.983968242758961775e-02
4.336769403489072749e-02
3.936084420194201766e-02
7.768397991328286623e-03
1.355834281905210770e-01
7.129896252767349563e-02
1.231882428596548090e-01
7.891660713897701018e-02
1.312764676662089569e-01
8.537900930319083925e-02
1.246707054281989691e-01
7.553049582025875286e-02
1.296451897402801090e-01
1.184410036775846720e-01
9.184149301648969477e-02
1.014089483209908160e-01
1.489969356034828440e-01
9.820362936543819421e-02
1.229942488625797858e-01
1.609369232747795697e-01
1.374941444063068341e-01
2.070854825290222578e-01
1.625170256302819749e-01
1.268490086674833872e-01
1.738909957932204819e-01
1.163108058266242029e-01
1.531919547481298827e-01
1.670377074214643154e-01
1.686595025605790721e-01
1.825049997077404229e-01
1.730348677864465279e-01
1.365176401176402543e-01
2.139290339729241763e-01
1.886247970913632055e-01
1.661209140959637731e-01
1.976133292000309127e-01
2.243535429617552757e-01
2.363466272226959763e-01
2.058778573841149317e-01
1.927134560997587065e-01
1.862053150650389011e-01
2.417495326162667768e-01
2.101097682300176461e-01
2.215215315691003994e-01
1.881735653861075497e-01
2.956267317965237673e-01
1.990001535007869804e-01
2.121601190085024846e-01
2.207546489804901313e-01
1.667583549117371555e-01
1.942556142185452583e-01
1.773362477007924820e-01
1.590868096492156214e-01
1.784037735634520505e-01
2.416195494425166235e-01
1.201420877490829708e-01
1.224326945208575879e-01
1.077953325137832874e-01
1.648757915424071130e-01
1.461784615275856236e-01
1.311812232605180650e-01
9.306712901330868593e-02
1.100858185981915538e-01
1.113726073752143164e-01
1.112529835377657345e-01
1.234755408594389869e-01
6.954371611175787227e-02
1.183413489905408011e-01
7.416503449145148141e-02
7.499739028630887649e-02
8.408539521944255468e-02
1.278103472238065197e-01
5.415383205486636042e-02
1.187398224216978659e-01
1.246803821049734251e-02
3.630456319964184275e-02
-3.840742797611935988e-03
2.632944381152492463e-02
4.056363285266158941e-02
3.441971370740385533e-02
-2.158934222255687319e-03
6.900708309721427514e-03
1.420348814806335347e-02
4.815394086412867758e-02
1.393357505795614348e-02
2.519133435091167050e-02
-6.658290628977922565e-03
5.123269191957595392e-03
-1.983556530512145533e-04
8.659505827321153926e-03
3.628790147193083904e-02
1.048208920264517147e-02
1.228713618630908333e-02
1.101264193115269324e-02
1.853588468707902115e-02
3.717732073308330221e-02
-4.559345174620624275e-02
-2.125816265507895000e-02
3.987775432338882403e-02
-7.367122297998879299e-03
-2.764230735332747629e-02
-5.302905965029626467e-02
-9.026174191620335574e-02
1.741606107004166348e-02
-8.182505439177395479e-02
-3.945908531657052465e-02
-2.939965992787987870e-02
3.069494320601565129e-03
-3.632135583766445130e-02
-1.653022249660020607e-02
-3.926802445057027413e-02
1.071594123831774020e-02
-4.591814792032233861e-02
-2.325626325856715304e-02
5.159996962750056787e-02
-7.097651349505195578e-03
-2.056686377892315287e-02
-6.146785009259903010e-02
-2.422125837916301594e-02
-1.258488489967279911e-02
-6.883139725210492277e-03
-4.039802777635797398e-02
1.155710772740661113e-02
-4.388761368624380377e-02
-5.584144430533528880e-02
-6.506979650218129574e-02
-2.054741899486012269e-02
8.295510825926614290e-03
-1.474135242848208932e-02
2.626309689771406941e-02
2.704331771792141750e-02
2.347116820062249490e-02
-2.474804866626869812e-02
-3.440530609806932705e-02
1.338416479687718624e-02
1.197713168120114607e-02
2.021650273582455831e-02
6.038576633328576748e-02
4.225751149116127592e-02
1.301442924383440503e-02
3.630205551693521659e-02
5.314195312863891074e-02
7.360510664621426613e-02
4.559880660857684731e-02
1.012776813027492229e-01
6.625664428804574346e-02
4.787773399664969898e-02
3.701801789721771707e-02
3.320255389482504316e-02
6.823240192516660807e-02
1.086259549461826013e-01
7.384179247612197849e-02
7.727397463289918667e-02
7.665349952878544593e-02
1.354882959718723690e-01
1.570278035776965231e-01
1.476339659523683845e-01
8.857857767190432940e-02
9.203969830839345279e-02
1.375584434809715151e-01
1.201334754434267849e-01
1.425870494870521421e-01
1.148022884429597268e-01
1.336999517651243918e-01
8.368231261195681336e-02
8.441267576810887463e-02
1.202147671786109456e-01
1.053145348571302709e-01
5.497777815219652420e-02
1.325603083050245212e-01
8.704461701126270379e-02
1.027454190557430813e-01
5.545472662902489747e-02
8.708703699867575976e-02
1.030323321538016978e-01
1.260937634988114620e-01
1.580823426026959910e-01
1.162447297277276331e-01
1.475412131473748389e-01
1.749359923065729461e-01
1.422151965964091325e-01
1.431946442863530899e-01
1.964230936819335027e-01
1.788464419220433532e-01
1.903494721013704039e-01
3.175035856090101527e-01
3.148388305590626435e-01
3.947450457104039190e-01
4.574231790359908345e-01
5.037490514917148943e-01
5.698383516567302465e-01
6.499828371598311838e-01
7.045813901098031407e-01
7.372122801472547060e-01
7.972956885691959705e-01
8.842927989746822703e-01
9.871776175013102783e-01
1.018141310604969041e+00
9.317707376595698587e-01
1.001497925098698616e+00
9.406986126202745435e-01
1.023748119706104243e+00
9.206610927072476080e-01
9.560670564774644831e-01
8.725546832824681021e-01
8.390891963876152548e-01
7.793848339762837751e-01
6.805719600295601079e-01
6.121692848981318269e-01
6.229704384789664928e-01
5.169921388197995515e-01
4.669859928895057632e-01
3.816671233145366160e-01
4.025148502638961068e-01
3.028592995263630905e-01
2.729719007246682039e-01
2.219900762515270021e-01
1.933040636263113621e-01
1.866744764389219602e-01
1.735997965188540437e-01
1.405439882963832321e-01
1.203395068049673000e-01
1.289023830351852806e-01
1.508018959936726633e-01
2.866254165669263054e-02
7.536525939495421211e-02
1.082136658428404230e-01
8.606729249127993697e-02
8.956106476318856369e-02
1.016271399522531010e-01
1.336093073441136647e-01
9.048832304449397346e-02
1.452746056052930668e-01
1.304880730234990183e-01
1.560329542577165440e-01
2.200687221781496283e-01
1.476883932066265503e-01
1.776832405544849225e-01
1.196359351763908452e-01
2.045111868648107623e-01
1.899644976844682975e-01
1.772014497092970209e-01
2.067134883485903241e-01
1.809560121400627941e-01
1.576354705436048553e-01
2.209166978524586544e-01
1.885190234924672970e-01
2.538194134358768839e-01
2.336194547414700839e-01
2.529397972321673627e-01
2.580458247799721772e-01
2.263807138131972152e-01
2.591666901071822959e-01
2.615432752579601172e-01
1.944918831228485689e-01
1.844977326494762759e-01
2.511949823778815150e-01
2.807987142926437474e-01
2.740813420488621421e-01
2.538157416136140321e-01
2.261644067223927967e-01
2.626319647537431190e-01
2.852667814078809205e-01
2.724120601078830473e-01
2.056601888057682237e-01
2.703078327285008964e-01
2.540938916257260982e-01
2.727631287362426993e-01
2.289025411945853627e-01
2.954530866465204242e-01
2.048223704989011185e-01
2.190946086947492266e-01
2.034905880350927343e-01
2.326262138183292083e-01
2.315925656378493847e-01
2.063120365944005052e-01
2.166217136445514335e-01
2.343407513122075236e-01
2.302916594421064167e-01
1.855700897078562395e-01
1.812669770043190687e-01
2.221811668369526316e-01
2.132124108421073472e-01
2.410275187285429999e-01
1.446311812035353528e-01
1.979538529054800655e-01
1.807097854835694462e-01
2.319015673858471904e-01
1.645600956538575965e-01
1.868634542660720654e-01
1.587298620801075866e-01
1.549850567023524084e-01
1.479245942458907170e-01
1.562342199152275402e-01
1.223534899187792846e-01
9.032498229217718333e-02
1.406480434425893822e-01
1.344388527511944098e-01
1.731779353667367849e-01
1.157264363175595223e-01
1.040174808400030904e-01
8.089636417755663444e-02
7.143553361931116730e-02
8.974925348117943069e-02
1.046095692074080347e-01
1.391336459757080632e-02
2.887633459023936089e-02
4.558089666395197248e-02
3.445312537185094004e-02
6.589219086420024241e-02
9.636360572320049056e-02
-5.104640210428224023e-04
5.585249284159177208e-02
6.989904684117316525e-03
7.188783497070885820e-02
4.649561777035668420e-02
2.767974992709936605e-02
1.799700143385793080e-02
2.438979858815398111e-03
1.432963070741692657e-04
5.278392522158216471e-02
1.535310050598568885e-02
4.329182934141862643e-02
5.480239708613151434e-02
-1.198251976273879277e-02
9.016817997209136681e-02
4.077183441371344530e-02
1.232726787808264939e-02
-1.952621041198880636e-02
4.333123998482212025e-02
1.063679910169145204e-01
-9.650629865826789583e-03
9.671720974155823686e-03
2.520283789516821957e-02
-2.303232320619817697e-04
2.011069430801061542e-02
-2.166325269259682107e-02
3.794152802227257482e-02
4.610921710894344550e-02
4.381728110288650446e-02
2.638318063333560531e-02
5.412684888981589282e-02
5.644973457527849986e-02
5.505790480912221146e-02
4.983387928347068896e-02
1.075922044025318970e-02
6.056282949505678581e-02
6.608554366705002292e-03
2.872356292214611057e-02
2.518746471373729812e-02
7.112973240318828938e-02
8.490575460641641703e-02
2.370765058275992737e-02
5.732607055443681571e-02
1.047001456700935723e-01
7.861943241463198451e-02
5.470261279784270625e-02
9.632199468856242341e-02
8.565615664863440726e-02
1.854974805448633690e-02
1.284238826362884278e-01
5.145338748641349602e-02
7.298052886399394867e-02
2.961940519292921570e-02
3.778968533411424663e-02
9.028962474303056651e-02
5.262004563491172460e-02
1.086711550500196743e-01
1.691524620575903526e-01
8.356049432162132584e-02
1.753412220545130795e-01
9.094449547708449710e-02
1.310552457707421792e-01
1.080644889018097937e-01
1.080824316017062886e-01
1.714077528614444956e-01
1.465202865527259757e-01
1.475584135705022559e-01
1.558665782537882460e-01
1.444539265936133632e-01
1.934360193487664747e-01
1.426945952346043434e-01
1.475842357484651590e-01
2.401079814980303651e-01
1.401663707812995652e-01
1.939794031178602163e-01
1.849950536657737621e-01
2.037434704514269890e-01
2.358146392751304943e-01
1.692507935286200749e-01
1.773379309299285833e-01
1.731781449049048238e-01
1.549100689562444844e-01
1.629680921836396124e-01
1.902917065108547245e-01
1.703701989364775904e-01
1.253464671094888239e-01
2.046744656909555982e-01
1.965954326976366018e-01
1.259799441437115253e-01
1.823829280804465380e-01
1.695800741627521702e-01
1.439581731551450028e-01
1.589887479851636587e-01
1.893633718474279082e-01
2.366881998210374205e-01
2.356486613022401866e-01
2.328840902297347748e-01
3.267423521625786309e-01
3.236156440189582040e-01
3.206757290994978749e-01
3.912281746500729795e-01
3.977827959060258878e-01
4.783769488373719181e-01
5.884291534858722139e-01
5.705801402516151866e-01
7.186467613776780228e-01
7.610061385308575233e-01
8.769909111952701730e-01
9.116354079078765604e-01
9.320603202580035607e-01
9.474461414437760354e-01
1.021227981162512455e+00
1.017370088542673301e+00
1.042489205021827514e+00
1.096986131237497109e+00
1.020387951853418462e+00
1.026591046903436055e+00
9.822372709565376780e-01
8.993057287301932101e-01
9.067934099583300211e-01
8.492985966922863561e-01
7.339972667375490589e-01
6.569344789481017521e-01
6.331300662043438665e-01
5.362532832071752464e-01
5.019221220009083551e-01
4.253197019780770027e-01
3.792106743402290370e-01
3.669001968312595729e-01
3.299199118795566044e-01
2.628657556140934770e-01
1.948291220542974767e-01
2.371829021176938834e-01
2.080345763653119739e-01
1.405586748333027269e-01
1.847123305597301035e-01
1.772582558520257034e-01
1.468405792057029258e-01
1.759564309058200826e-01
1.224605780955398127e-01
1.618804226190170559e-01
1.875232284273802841e-01
2.025723735208221632e-01
1.729508991478308777e-01
1.145164067142673547e-01
1.985983372083504617e-01
1.702339154137235411e-01
2.083918299640180050e-01
9.236222264658752734e-02
1.567853179263614116e-01
1.664663610398610938e-01
1.907163505834215123e-01
1.423917514300384324e-01
2.748055597490423607e-01
2.161543147860850722e-01
1.904862906715945048e-01
2.531551964732816629e-01
2.354020806296364399e-01
2.074581367145375832e-01
2.960758699542151429e-01
2.529010863536602649e-01
2.939364890955444842e-01
2.859911019928242926e-01
2.568564595676897100e-01
2.829908689342783834e-01
2.693969290400948235e-01
2.986442297681218827e-01
3.171133319782193372e-01
2.326520213232242396e-01
2.684283104404769915e-01
3.218631482849351189e-01
2.741241079028892136e-01
2.479892264275434244e-01
3.191492824171190401e-01
3.011767047639936634e-01
2.587751971936574913e-01
2.851901252594689629e-01
3.204938182386076750e-01
3.079198433021844705e-01
2.865042767395458156e-01
2.862250283815636620e-01
3.079300655775207840e-01
3.431373636552940698e-01
3.183609554450250179e-01
2.589273780677291414e-01
3.024679707100516035e-01
2.404449287588182327e-01
2.670328783162359554e-01
2.814683408449368818e-01
2.872277166404105242e-01
2.339664007387665945e-01
2.716471939296183358e-01
2.978751028798664047e-01
2.609742216614888144e-01
2.802416938490489562e-01
2.234987789907829925e-01
2.112919321798292782e-01
2.233631798189902595e-01
2.075374537967070165e-01
2.073854694747624128e-01
1.802298981397071620e-01
2.056633588876733421e-01
2.273982520768262072e-01
2.044681099973125193e-01
2.371600849967886726e-01
2.071066473934032315e-01
2.412589395927891289e-01
1.844340424706656933e-01
1.502189165024830908e-01
1.780645309945102228e-01
1.743053324262991699e-01
1.835254736520818553e-01
1.163846218805155708e-01
1.038506669566043039e-01
9.681481608023589924e-02
1.242024324717772160e-01
1.015861961228102794e-01
1.340260686205235752e-01
1.059281772936747773e-01
1.135486663173173871e-01
1.661511344226246634e-01
1.110957306138321832e-01
9.007044365706623479e-02
1.188870468587902574e-01
7.774639917936479461e-02
1.419484309202066474e-01
1.469207679795950794e-01
3.260365811332147784e-02
6.986522051259272392e-02
5.427646567415596313e-02
1.179263646781261166e-01
1.256986709906637301e-01
9.269951112410582117e-02
7.853078191629678240e-02
8.395843087797251469e-02
5.976486610986898873e-02
4.322701782967712514e-02
9.142713738017727021e-02
4.615746420254878551e-02
3.064207671260566271e-02
1.254226528233206572e-01
5.396011715232064410e-02
6.766434036961220533e-02
6.995220517521108516e-02
6.618428981907784059e-02
6.088754585331828534e-02
2.163937138713530745e-02
2.850935497696673732e-02
6.885679884499514014e-02
7.326223653031074812e-02
5.806737805163873778e-02
6.005618572838078428e-02
2.807202015009373566e-02
2.324322074062616650e-02
4.111546094530163509e-02
5.579381739434108312e-02
5.492061119488911985e-02
8.553305434655934791e-02
4.512986311554461477e-02
1.090304727967197351e-01
3.535919324173956296e-02
4.477166345840605244e-02
8.073857479964885453e-02
9.045443329528660148e-02
5.394272227982620238e-02
2.971535232275021587e-02
4.467907542085246264e-02
8.120003554898387599e-02
2.896475265194606644e-02
6.161738528559339984e-02
5.643746702612999211e-02
5.762784809961730981e-02
1.554234929648017627e-01
6.602469866946457377e-02
1.032046317871155028e-01
5.775157988936747977e-02
1.582187631158848418e-01
7.843531112546170414e-02
1.155773707085747948e-01
6.391079823730007325e-02
1.192393406824479862e-01
1.816610991520772045e-01
1.714196634978925604e-01
1.468076067406918761e-01
1.159905132708947822e-01
1.869443421233431546e-01
1.796375108868320525e-01
1.468208196693732426e-01
2.046258882026552040e-01
1.770542830996344463e-01
1.721119387380649901e-01
1.843203112219163609e-01
2.096013286626644267e-01
2.106638975707387229e-01
2.203636099664512127e-01
1.582420990637178337e-01
2.413342994144185016e-01
1.634085600247906778e-01
2.168120951978463051e-01
1.323772250846887988e-01
1.969682117323642567e-01
2.384598442734339740e-01
2.113425939853684488e-01
1.693169927862532564e-01
1.990054399324346635e-01
2.423332955810976463e-01
2.111117754641301525e-01
1.801776661031918580e-01
1.766990804987650099e-01
1.951770056319631630e-01
1.560164000508135473e-01
1.880334379706984083e-01
1.404251127383731590e-01
1.896951109375032973e-01
1.412892063738530601e-01
1.842991256557386104e-01
2.160077264833592525e-01
1.776091214716906674e-01
1.729727043624122995e-01
2.226270790031827373e-01
3.023233840901967673e-01
2.701979634453963164e-01
3.222878702888029578e-01
3.744365468263997077e-01
3.220136017303630860e-01
4.334446636565653654e-01
4.879622481053145222e-01
5.030918669836418333e-01
5.831770539654922425e-01
6.456504375634475323e-01
7.383226454947562356e-01
7.693849368617077245e-01
8.123125994519877491e-01
8.992253044937890127e-01
9.132500547211749309e-01
1.021536624921240310e+00
1.021630999824649999e+00
1.036733949898180018e+00
1.022153559739192641e+00
1.083788717642950594e+00
1.067143069587422888e+00
1.001776574637369022e+00
9.833432219900757332e-01
8.915906695777747748e-01
8.924512334910587041e-01
7.926239063406915752e-01
6.994501226306883979e-01
7.423302070296011745e-01
5.815226282953006587e-01
5.669367121035159274e-01
4.477771275376319915e-01
4.072925767070956771e-01
4.047232302401480020e-01
3.387558964969618613e-01
2.531525773219176489e-01
2.871299941040234005e-01
2.315396102240932508e-01
2.229383125197876292e-01
2.130767808765308968e-01
1.338830360930602925e-01
1.490930978048937150e-01
1.627813146328588312e-01
1.054240423788175285e-01
1.282070707318817837e-01
1.441751627529636037e-01
1.859788393503943871e-01
1.697896257468454184e-01
1.917931415588935429e-01
1.689701568242303331e-01
2.139814712569606814e-01
1.701433847041629033e-01
1.665577692237505125e-01
1.649142832611623088e-01
1.343350000051667104e-01
2.115838388400246295e-01
2.060882824103400790e-01
1.566555744615324430e-01
1.338203563966077481e-01
2.428463454270036181e-01
2.489654733486448279e-01
2.208225311434986182e-01
2.511114134113083263e-01
2.542286217848041541e-01
3.002854804403262690e-01
2.356825912896058361e-01
2.279956351576919726e-01
3.075627801615035128e-01
2.903132074586772249e-01
2.505356782208336686e-01
2.531051237380937957e-01
2.689417676374983857e-01
2.695086477591369101e-01
2.105909911839001780e-01
2.636021131822014474e-01
2.623317050837197795e-01
2.573829992443575909e-01
3.077288162120266346e-01
3.037637016190758432e-01
3.018987752382009115e-01
2.791594793093461480e-01
2.836238361087421445e-01
3.528495706967128553e-01
3.429058071685394116e-01
3.189082437057592645e-01
3.110816109048228917e-01
3.266899174005463147e-01
2.872278825007338332e-01
2.763489070354143151e-01
3.199848532243090848e-01
2.907435415313783800e-01
2.394919646183905071e-01
2.568472296080205886e-01
2.445757945676374501e-01
3.117640171970511576e-01
2.155393529170461786e-01
2.892817827305598222e-01
2.399426788998013094e-01
2.502349678730676485e-01
2.536832930631851002e-01
2.318781296299194938e-01
2.307778161639996439e-01
1.768055153798959167e-01
2.142715210399165904e-01
1.906269868842382920e-01
2.137648998433816783e-01
1.759968009672538969e-01
2.113147626182869943e-01
1.542937019958338651e-01
1.684282110892661444e-01
1.617418970528247124e-01
2.085652286165675939e-01
1.624177372559612587e-01
1.639352413507638995e-01
1.059149962273771839e-01
1.489559860466225238e-01
5.865456022522256424e-02
1.725390118432119646e-01
3.816917270557210889e-02
1.292113807968471306e-01
1.078956777402558243e-01
1.411766887270393678e-01
1.223159274215594172e-01
9.458307757751903411e-02
6.504389098447853346e-02
1.118511268898128297e-01
1.256204759751346212e-01
1.357756094851304829e-01
8.939082069291083565e-02
6.678272204477339602e-02
5.257878016627910711e-02
8.227197962975132950e-02
6.379258854022913650e-02
7.641773578698696223e-02
4.083334039685834055e-02
2.197843403262087630e-02
5.170545072060804548e-02
6.125183318669057825e-02
6.140007549199477666e-02
3.166590452441990500e-02
-3.150347719608793950e-03
7.173210663592002878e-02
1.189155855190895672e-01
6.996615808722618512e-02
3.773959390091579519e-02
1.767061815188833429e-02
-6.120934357780990348e-03
4.851821380924817295e-02
4.008806569519337420e-02
5.260783210786385694e-02
2.387781744713646931e-02
3.178066227956018869e-02
3.235418150247011682e-02
4.666999183802393592e-02
3.825509069607019308e-02
5.346952366729661177e-02
3.312738067799646247e-02
1.406914250510466272e-02
2.404374079057406896e-02
3.075670054220532371e-02
4.978553236686174277e-02
4.415647040404432899e-02
7.889948213866158910e-02
3.099904706675172400e-02
4.101525815179552642e-02
3.437473259278309851e-02
5.196502339778717727e-04
1.337028851783845715e-02
-5.077150346182279783e-03
3.913557556486649269e-02
5.545145326057761975e-03
3.726702788629727980e-02
7.939773527148256266e-03
2.701194606045833127e-02
4.128598183785119752e-02
9.318981960736463788e-02
3.843711076182719510e-02
7.368675059684216821e-02
1.055785093371331695e-01
9.518969933153231811e-02
2.452124064726320107e-02
4.312376983211946291e-02
6.478776837514164944e-02
9.175353362677492186e-02
5.836480922574944358e-02
5.777809663449158528e-02
4.701620313968352116e-02
9.983923142803331763e-02
8.319505189489222186e-02
6.887380134496957906e-02
6.447242965278537907e-02
9.083467290521847481e-02
1.503487858253522991e-01
1.190299314052064988e-01
1.276814064404256932e-01
1.287950928304341658e-01
1.756816536086813485e-01
1.651538411672496542e-01
1.267119971517662036e-01
2.139662842870853343e-01
1.418076993561754873e-01
1.624861277287481531e-01
1.818422428976008975e-01
1.395565971644493197e-01
1.566925631194683310e-01
1.550798477006868070e-01
1.372996112984940786e-01
1.337758841906681040e-01
1.153634904998002697e-01
1.964325709037085255e-01
1.481198417068962936e-01
1.681770855617605309e-01
1.380573792768039210e-01
1.308118133843645114e-01
1.486249399570477858e-01
1.026362563661298577e-01
1.986430411838083498e-01
1.476531684584481696e-01
1.572161050918104985e-01
1.972343593466209244e-01
1.332475167297917373e-01
1.563165091636061488e-01
1.174334756618131970e-01
1.671539674163994849e-01
1.723974441354280129e-01
2.515304736348799031e-01
1.884768456633391931e-01
2.531665510297798627e-01
2.580447066966561342e-01
2.921709804326713122e-01
3.105136098675358447e-01
3.307897530634677508e-01
4.067806140078349952e-01
4.841142092429829846e-01
5.412385300456675763e-01
6.041625027494802458e-01
6.723353793477893081e-01
7.820599512116102048e-01
8.078987373463164534e-01
8.474667083793641087e-01
9.195173866879130520e-01
9.229466172796644274e-01
1.026311454896918773e+00
9.339695440347198785e-01
1.034588300884432766e+00
9.883119322000017970e-01
1.008113512303094206e+00
9.901101770325861917e-01
9.179741616250167713e-01
8.386284211771520836e-01
7.316582570391331197e-01
8.104417624025956890e-01
6.468092656242031557e-01
6.327197479829397286e-01
5.586435164573796408e-01
5.194979764425750046e-01
4.121713505178212222e-01
4.125089128880484179e-01
3.010717175558775827e-01
2.698127344850801412e-01
1.932664966808028406e-01
1.625704003504884476e-01
1.542387884434949230e-01
1.632389072693607723e-01
1.495239949978027505e-01
1.993133696260226961e-01
1.173090979579455850e-01
9.540405153896219792e-02
1.238667979660975638e-01
1.313139426859708525e-01
8.024750045716222413e-02
1.182409581951739397e-01
9.536476981265575026e-02
1.324786110432752406e-01
8.200807476106602989e-02
1.577796912627645320e-01
7.961781364478417999e-02
1.499291823374362953e-01
1.935174939730432697e-01
1.048738796377341465e-01
1.329552263280003865e-01
1.133597633129101306e-01
1.174469782555152830e-01
2.392875585310452191e-01
1.651322947284767639e-01
1.996074330639333594e-01
1.433253765369404409e-01
2.085517550837561185e-01
1.774316108258578717e-01
1.929228158512912572e-01
2.253616270653619469e-01
1.564259075760137396e-01
1.404404747761013317e-01
1.870382515304264415e-01
2.446253676668153076e-01
2.149318026805398796e-01
2.331929067371599218e-01
2.515169557307957438e-01
1.822920493491269889e-01
2.216847837685514966e-01
2.298192909041315291e-01
2.289126246468464743e-01
2.240762143379871341e-01
2.102543986233254836e-01
2.271527642660266244e-01
2.265304684290090353e-01
2.372101263138961247e-01
2.884794672707732821e-01
3.251248670106330896e-01
2.599664367907589813e-01
2.379005094094971129e-01
2.249560074078306715e-01
2.535790971981026765e-01
2.598611716979154496e-01
2.445759350512673735e-01
2.407573755673255156e-01
2.595000402447993348e-01
1.966421542996720784e-01
1.892305638200290907e-01
2.790946695717924642e-01
1.416231389840270360e-01
2.108134486364754423e-01
2.022313089782774853e-01
1.909151485328756392e-01
2.138774837160329345e-01
1.949884821280763736e-01
2.011175837791818466e-01
1.819665505536054162e-01
1.356339250922750372e-01
1.474333789181766496e-01
1.758826971628973113e-01
1.587802969789038066e-01
1.120649206424726707e-01
1.371494859264890398e-01
7.783059692486551939e-02
1.406562240120209639e-01
1.187767745702614369e-01
1.343612891362198081e-01
8.574975612390735302e-02
1.308143157831762049e-01
5.181882339238967627e-02
9.440437513711942563e-02
6.038844226575731944e-02
6.262083903572579491e-02
8.289973708910111649e-02
9.797730827658643338e-02
8.382299735112475059e-02
5.062331457640231736e-02
1.202097130031430788e-01
9.593555460476840824e-03
1.680290109163443124e-02
6.553232342958133227e-03
3.757466641508289129e-02
5.643549061902335129e-04
4.957936512080753089e-02
5.654050050386859316e-02
3.014620522570168881e-02
3.795978880697739588e-02
-2.145241559814903623e-02
9.151740506351060261e-03
1.752270808176828454e-02
-5.675622836961925072e-03
5.122842601315294453e-02
-2.666697906870123258e-02
1.160853746205177395e-03
-4.898425970822341269e-02
-7.341619700124306369e-03
-3.628526604477710915e-02
3.344199703119291045e-02
-2.090926060080169555e-02
-7.133848394981295860e-03
-3.460362637208967695e-03
1.526890814853809966e-02
-1.761950746527894338e-02
-4.336814602813830744e-02
-5.799855719823342193e-02
-1.671520603353086887e-02
2.146798426779279387e-02
-5.229359496742013586e-02
-6.237618334783821827e-02
-5.034922912528931593e-03
-2.465916182834316378e-02
-4.325700007212096576e-02
-1.685195244564408751e-02
-1.096666835822908762e-02
-3.156210037330828971e-02
-1.430672006379317407e-02
2.765076587823344853e-02
-2.510951702716765835e-02
-6.208702734667288781e-02
-1.470338380130088718e-03
-4.933452618450306221e-03
-1.830429225713459118e-02
-1.827106828811633776e-02
-9.437552536172261197e-03
-1.377479865864714506e-02
-1.514882828929665221e-02
-4.481910631525895528e-02
-1.705688413459035407e-02
-1.477637413547074757e-02
-4.501328196592820075e-02
-5.071250290723555709e-03
5.894308066767967036e-04
-2.279118126445607573e-03
2.790406971649087020e-02
3.353689517610412840e-03
2.943581668455902411e-03
8.872564216954571814e-03
-2.561759082772477325e-02
7.177250713398551640e-03
7.397994468828644754e-02
4.102089982779142524e-02
3.990562695390649506e-02
2.950088806176086320e-02
7.601623980384486501e-02
1.622420228628255329e-02
9.841214437776368840e-02
4.986682099309135835e-02
6.991362265803960363e-02
9.100197807600055033e-02
5.927330364367949800e-02
1.489638714188989410e-01
7.581511201448998261e-02
5.417819986514665898e-02
1.100065831789799331e-01
7.336118200559449409e-02
1.436548691341184847e-01
7.508411953187288379e-02
7.883645935009836458e-02
1.254982837366478976e-01
1.196966950018247267e-01
1.768769787491778767e-01
1.212125242495727395e-01
9.243821253091963341e-02
1.561268629903632410e-01
6.686345697561633938e-02
7.002370915751027214e-02
8.395995318788848638e-02
1.265775625986927944e-01
9.106822878357367923e-02
6.899409350135146668e-02
1.063482664094988761e-01
9.846170430987252753e-02
7.976881584420217330e-02
1.179739026641993677e-01
6.066220048462309111e-02
1.016871490676173329e-01
1.080435248790674041e-01
8.652713411593063175e-02
1.533031519287305633e-01
1.649821698590848151e-01
1.836873731960411149e-01
1.934054565396725045e-01
1.800529546550849735e-01
2.983663826855162404e-01
3.239111940803370837e-01
3.297316225284849245e-01
3.755565990845529112e-01
3.984691752646160046e-01
5.111211907480482930e-01
5.681246057218208856e-01
6.964996877919751306e-01
7.546330402494774159e-01
7.306410450298556070e-01
8.155838609278878160e-01
8.372683519515271566e-01
9.138360435192162123e-01
1.011242294096365457e+00
9.610342553183366388e-01
1.022438688949812269e+00
9.904350672894043361e-01
9.684068290774975329e-01
9.366373913363076342e-01
8.403898191409788776e-01
8.192425626766799418e-01
7.278779156439375564e-01
6.970127555614844539e-01
6.295855308214334256e-01
5.768127358141814653e-01
5.363340065766877274e-01
4.968106838077887000e-01
4.089395262765992967e-01
3.212434622784912097e-01
2.304286318611850903e-01
2.168426577115672438e-01
1.697868583743032678e-01
1.572301011196130804e-01
1.457672299009760419e-01
1.833976944728526459e-01
1.127464668969725275e-01
3.866989014270969666e-02
1.250344996132210784e-01
3.573446022940254124e-02
5.345281309586350643e-02
6.925733895314317712e-02
5.964651087189205836e-02
6.025877026330753172e-02
9.969671830415774427e-02
5.053722815178408184e-02
1.162265080529313044e-01
8.346981520002298705e-02
7.474662778500623661e-02
7.940353883853951134e-02
1.100343945054196027e-01
1.004679556344727498e-01
1.463142380014518240e-01
1.541411722687586194e-01
5.953722093433336249e-02
8.660487148141091107e-02
1.182907183737164636e-01
1.358722117242202876e-01
1.915312700986240291e-01
1.608355017470383119e-01
1.876811879563352881e-01
8.035120086917596494e-02
1.647275135963454651e-01
1.628529969291742652e-01
1.169684048283621269e-01
1.575566311423366173e-01
1.765245128150692289e-01
1.726570574989760021e-01
2.045995657869200124e-01
1.880049217506713777e-01
1.586758930660028266e-01
1.730608481951860511e-01
2.604530447051310871e-01
1.816516131190619721e-01
2.572005427663892063e-01
2.434897822042908777e-01
2.347670214502932950e-01
1.887681202144234904e-01
2.073082696610593356e-01
1.765901460593683470e-01
2.330328216615153436e-01
2.008265804456646209e-01
1.885238214953963154e-01
2.148318353545767001e-01
1.724073985369576623e-01
2.343434725336621116e-01
2.125314899315686734e-01
1.539479586773576381e-01
1.818114504107573026e-01
1.717919675445332417e-01
1.316674120471243992e-01
1.908057708175958933e-01
1.868995343656217611e-01
1.552309752171410207e-01
1.701673280329251692e-01
9.503827593764721526e-02
1.590007561604050434e-01
1.340341509200495551e-01
1.492090821628973829e-01
1.349249402379934792e-01
8.413476712279002734e-02
1.414202434854667234e-01
1.392802129503983577e-01
1.318439691265785307e-01
1.234875618168627398e-01
1.058759221035709686e-01
6.492576908895017485e-02
9.284047932001557313e-02
1.827002042189252717e-01
1.109634981841680357e-01
5.435588591925920310e-02
7.292867422480206474e-02
4.202020838218675780e-03
4.747489599337807731e-02
3.856026644847274087e-02
5.278664795252552278e-02
7.115053200339604977e-02
1.684239413857659823e-02
-4.614241223574351569e-02
2.121996278734573221e-02
-2.374959331548347208e-03
1.774107653355817826e-03
1.500950401098517795e-02
-1.183532207285387799e-02
-3.256724444547372255e-02
-2.517386257881322129e-02
2.469241410676552284e-03
-4.042153534351893007e-02
2.333572506970645055e-02
-1.519399791737457983e-04
-1.069627758279344948e-02
-1.966331266716060330e-02
-4.199687522533839673e-02
-5.609940904783178306e-02
-2.490967578498767127e-02
-2.727599032172296420e-02
-9.873474117241619330e-03
-7.820910769001634955e-02
-4.392680046311559644e-02
-2.506506160078152134e-02
-4.284798906832036625e-02
-5.704541041675281754e-02
-3.903831030734251223e-02
-3.639507924514127912e-02
-3.123968420204796537e-02
-5.896214131299790107e-02
-4.123809257387656135e-02
-4.970328665183127576e-02
-4.457157926678904231e-02
-3.146134519916559541e-02
-4.643024114528714053e-02
-4.656879919598583273e-02
-2.335536723634270423e-02
-7.754257170072442751e-02
-2.088215992428917381e-02
-5.946459720819657208e-02
-5.644006984027402640e-02
9.871335467313106793e-03
-5.915553791419649737e-02
-9.100339289399149434e-02
-3.178971750600800145e-02
-3.183828373836704306e-02
-1.046513807192718942e-01
-3.091704754517649728e-02
-1.267987039495947071e-02
-2.986353446683968904e-02
1.835916723222856539e-03
1.827971341013562984e-02
7.346703943637393486e-03
-3.043933436915285951e-02
-4.425149229461798617e-02
-7.743871003926172669e-02
9.598858622255589113e-03
4.713974329745206082e-02
1.847451345126700090e-02
3.753703794156711820e-02
-2.361179725075504207e-02
-5.637514846628943754e-04
-1.704766686638813783e-02
-3.509561801180058338e-02
-4.449222858359170446e-02
2.770590056462621242e-02
-2.431243385540226426e-02
3.028893425100216696e-02
4.369207211946377067e-02
2.459500198139805138e-02
1.583185982062862429e-03
4.463844187740338698e-02
8.219857547834093225e-02
1.282907762382493044e-01
8.352844499673316159e-02
7.825484733095240675e-02
6.810260962791797601e-02
4.092617734433222354e-02
4.370307093525119257e-02
1.100938778214879954e-01
4.284436815853940456e-02
1.052034906523680313e-01
1.247416089904120895e-01
4.944634218942455667e-02
9.984658615150293626e-02
8.578744763140616625e-02
1.359911681122047689e-01
6.882020622262174925e-02
1.271763681020802728e-01
1.345178384657366444e-01
1.487483838190215291e-01
1.242401171228634804e-01
9.102644386804636945e-02
5.028613908861505333e-02
1.033110340730589716e-01
1.542210029119423231e-01
5.476357408992812287e-02
1.132626685188006521e-01
7.704887481304430186e-02
7.870376885966981484e-02
8.494071164347144487e-02
1.020223184777614978e-01
1.020966997625778194e-01
1.406664697674689102e-01
1.094445727840294147e-01
9.048315458983641202e-02
1.602990239682587359e-01
1.704165372466881212e-01
1.197329169431133877e-01
1.927613698473580328e-01
2.182766346965799020e-01
2.962005669726813784e-01
3.167368087926364928e-01
4.013829780479556408e-01
4.298706473078900969e-01
5.716981153751916622e-01
5.706219064085336079e-01
6.348842872057248732e-01
6.915943430290845129e-01
8.089595431376175316e-01
8.177299233529885525e-01
8.781281439749367701e-01
9.193331688698624937e-01
9.365375280673946534e-01
9.488186390910791079e-01
9.507090417717686259e-01
1.039601452366727408e+00
9.155295866263760685e-01
9.448989696473548694e-01
8.901466576387401242e-01
7.776252100621378061e-01
7.671330693059064121e-01
7.207732060739434621e-01
6.320274527654866636e-01
5.201654299303775097e-01
5.509896131157117072e-01
4.127893532214726990e-01
3.858596305703332896e-01
3.054280015154207106e-01
2.843977450203700186e-01
2.668826630847696002e-01
1.646541571573970908e-01
1.826552085805756565e-01
1.371512448346910162e-01
6.604074575869861574e-02
9.650992965476765106e-02
1.327639585536120881e-01
7.236648467489463499e-02
4.558556711912196968e-02
1.101777969976223404e-01
1.182475494579085240e-01
5.525945827242882691e-02
9.869685683866408210e-02
8.694502900601702722e-02
6.062198407149192031e-02
8.534853335421502263e-02
1.066326038082373862e-01
4.323930972898930303e-02
1.162984457212097034e-01
5.726526006066014890e-02
1.470725200687743595e-01
1.096510085048119088e-01
9.948173387036354787e-02
1.820255522526275094e-01
1.094545320917658660e-01
1.204479221351077850e-01
1.745676056829884026e-01
2.051748393203669252e-01
1.529377444968468835e-01
1.645798153319598944e-01
1.321127969217754938e-01
1.847426751055117888e-01
1.318077874473545519e-01
1.534940260997292860e-01
1.647167177356837486e-01
1.814449520792094372e-01
2.308538225205076788e-01
1.662896073484072812e-01
2.376500268675158789e-01
2.051887343995561497e-01
1.453355231186682084e-01
2.784428406595664263e-01
2.588796790282502092e-01
2.026577159865608491e-01
1.530372547961067475e-01
2.060620826123396587e-01
2.308646998279972329e-01
2.358025080227625081e-01
1.983198083130532363e-01
1.904777118469627439e-01
2.968583501192645913e-01
1.989859772858380560e-01
2.421989859051077720e-01
2.701206455285967700e-01
2.240278683168738794e-01
2.402982953208405992e-01
2.255086451582843099e-01
2.346862045142665554e-01
1.743022503485003871e-01
2.240714008720659234e-01
1.784067257058646883e-01
1.326936689415025294e-01
2.643142851294535411e-01
1.818713331208510753e-01
2.381146894445490270e-01
1.228617852749688405e-01
2.144030185787300646e-01
8.624977443235309904e-02
1.580833376806409230e-01
1.957754343941184583e-01
1.512124787345846266e-01
1.094384500151872053e-01
1.643929363652805176e-01
1.260176497167158627e-01
1.044007100963530582e-01
1.231210219199077860e-01
8.600473150121359933e-02
9.630933307259109677e-02
1.307765299225490674e-01
1.348085627924370811e-01
1.276678601079700437e-01
6.398137613542369262e-02
7.489284817536409622e-02
6.192580988421848842e-02
5.983473811015403709e-02
4.959776000399340745e-02
6.097339989396936832e-02
2.986955234471483020e-02
6.316039388342821470e-02
5.021263500089674647e-02
2.723951813440782938e-02
5.968830862916163493e-02
6.019530070029455865e-02
5.130292694912391704e-02
5.622641915063941731e-02
3.753697138912464454e-02
-2.041438976311000381e-02
5.645943189219737590e-03
1.591446458090453597e-02
1.292554688681294556e-02
6.214930174966948329e-02
4.905666140652437807e-02
3.275191161240768867e-02
-1.666066092057093273e-02
8.041134890786019729e-03
-3.152901047523651301e-02
1.140597926656314320e-02
-5.772713020308427312e-02
3.078565787395917339e-02
4.936746247014974984e-03
-3.501161113818722359e-02
-9.535789600797411197e-03
-1.253869745733027230e-02
-9.457791986623505232e-03
8.123362742678837123e-03
-2.800152745299738788e-02
3.202387976679894888e-02
8.660354098064620976e-03
-2.069798938634467844e-02
-2.272626332731948751e-02
-2.001253789826232601e-02
3.434565260261927822e-02
-1.658437824628922197e-02
-1.600197770889206367e-02
-5.655159061984203241e-03
2.803229387068305323e-02
3.557312226719078208e-02
2.487008452464955707e-02
-1.084308140493513498e-02
-6.775435026930913020e-03
1.115322488791863076e-02
-3.886619414458584998e-02
1.353974578677015483e-02
6.289392412610370769e-03
-5.236210836459592732e-02
-1.916155321303257206e-02
-2.937665198605357575e-02
-1.189467190310305143e-02
5.365239400854819596e-02
-4.100150931312494806e-02
5.716292370519866772e-02
-1.858343168960395822e-02
-3.659180363658635048e-03
-1.639580356273601450e-02
-7.645693927908918386e-03
9.234625477897423496e-02
3.443855249183631895e-02
1.190527628655246861e-02
2.280749711082512635e-02
1.024095739786192866e-01
3.406474536010235810e-02
4.871397559461387861e-02
7.642467786014120468e-02
1.329681091921632377e-02
7.105011917467529692e-02
1.178112418252343641e-01
5.032201378090768451e-02
9.101097681144969254e-02
1.213367961974808618e-01
1.212462437525131109e-01
1.186114726495516025e-01
8.172268485652257886e-02
1.160008315845564991e-01
1.771594660948922484e-01
8.844336623363541205e-02
2.013892226054788681e-01
1.591471360515679667e-01
1.686863283800134894e-01
1.344193258000785096e-01
1.808592950995279169e-01
1.726550781033327764e-01
1.175909722028342097e-01
1.414305808847358126e-01
1.197899708718620365e-01
2.076302752182716815e-01
1.848563943369332108e-01
1.124487198881660571e-01
1.449872968098109005e-01
1.597318628013472408e-01
1.466205625307300253e-01
1.664059251397273786e-01
1.394452850985991588e-01
1.217881063452525281e-01
1.381350408727201884e-01
1.529187984174572579e-01
1.597629965093297078e-01
1.016030228182378398e-01
7.690044765129883109e-02
1.400846293159395406e-01
1.644832422513521353e-01
1.408341710566490823e-01
1.945035151144045293e-01
2.230035747520328904e-01
2.196903668769345785e-01
1.931879771950886782e-01
3.604941006266501047e-01
3.434495651888300749e-01
3.503036249437513350e-01
4.378731666749559048e-01
5.359919676006641431e-01
5.812337607533338835e-01
6.740307117579752427e-01
7.073293454568466698e-01
7.819823206447391595e-01
8.108706876737283853e-01
9.404782779073117549e-01
9.386225745591882941e-01
9.158967930629784426e-01
9.891065342342135747e-01
9.949201987175355644e-01
9.935309819533791886e-01
1.030468199963885612e+00
1.036579172399655580e+00
9.080304694955643185e-01
8.687399401639505081e-01
9.043576918962330513e-01
7.495671349360720770e-01
7.320739290875660776e-01
6.540779560182842234e-01
5.636523680288710869e-01
5.384328533571077768e-01
5.061507921162372581e-01
4.240230854390514836e-01
4.006578329505772751e-01
3.194597157221615302e-01
2.656870360719310598e-01
2.411609752045272836e-01
2.548569557954674658e-01
1.364808597242505583e-01
2.611108225274869632e-01
1.404506999292296499e-01
1.880390609406237257e-01
1.226674045006486274e-01
7.854009920865404060e-02
1.400950301479713667e-01
1.712223477357920631e-01
9.915108202655371905e-02
9.898994055384091606e-02
1.667826572951979225e-01
1.320715437516242763e-01
1.205014080265269238e-01
1.325830557430087153e-01
9.426996252393417264e-02
1.225744152973605172e-01
1.651053427890233072e-01
1.691505124984788722e-01
1.947383676328226787e-01
2.200711310272815135e-01
1.782558755528355077e-01
1.871885255530673087e-01
2.126384824508269489e-01
2.287900962422841911e-01
1.993659730181546463e-01
2.103180958755001551e-01
2.256930943946631740e-01
2.190754602601135415e-01
1.986478232949167866e-01
2.152468131054452727e-01
2.289778069089399848e-01
2.093984350879213585e-01
2.309728901756043506e-01
2.749767519198696997e-01
2.417992418576565550e-01
2.248198453444025247e-01
2.493991787166336960e-01
2.971581267515101543e-01
2.887626607193353734e-01
2.698406526168306563e-01
2.500750854765108055e-01
2.293770469059645822e-01
3.063057203136029805e-01
2.510292648375276325e-01
2.709092837046681024e-01
2.813612303086727717e-01
2.598012981151870404e-01
2.379030434226827029e-01
2.758342871038197419e-01
2.809483910734474899e-01
3.393037153492210467e-01
2.485386371551399354e-01
2.299214957205039656e-01
2.466168427906860194e-01
2.866963245910854607e-01
2.797064592621608670e-01
3.141118352147628245e-01
2.239654534839441158e-01
2.659519371923672049e-01
2.637115605691656151e-01
2.314719972235368961e-01
2.116836312645871410e-01
2.127392971805351085e-01
2.476319607998613004e-01
2.028807033378098035e-01
2.182377651806675090e-01
1.742471336460885978e-01
2.338145508429266550e-01
1.861528217495275472e-01
1.843310989027247548e-01
2.257392603923978613e-01
1.674194281320346978e-01
1.579435061284584219e-01
1.863137201182293867e-01
1.528332897202720198e-01
1.870792934095925619e-01
1.574135142387262376e-01
1.370887410270839879e-01
1.386758732631873103e-01
1.520377434583627396e-01
1.488740745658989895e-01
1.329104123551833050e-01
1.448963799963794707e-01
1.645244373068397992e-01
1.524878347449298843e-01
8.953216492979473862e-02
1.257453686030932383e-01
9.786463906675327284e-02
1.166067807467663919e-01
9.152874726886152390e-02
1.147656821462116616e-01
1.285762263600246924e-01
1.066583070747938455e-01
4.206564363000701162e-02
9.034036162147185411e-02
7.257767792763281101e-02
-2.792150575351495800e-03
4.849190383672093152e-02
4.366755482747532169e-02
9.318248188201427862e-02
7.154907239318297751e-02
3.492413692273791531e-02
5.104816369993517983e-02
4.638151365340151266e-02
1.607245932113889747e-02
-1.447526014948665590e-02
5.811768010680839341e-02
4.047034748040995167e-02
5.504996379736575018e-02
1.164861981811003699e-03
3.311482807303679082e-02
8.698278156108567305e-02
3.624621521111958539e-02
2.961819081476797788e-02
2.223163857117942815e-02
6.103768648957653975e-02
8.559115636492074797e-02
5.618612198685207781e-02
2.191326815087879520e-03
2.541225373401483079e-02
8.109158039370223392e-02
2.769464609817397227e-03
4.157399965732400116e-02
4.201292469994415135e-02
3.597187521427261392e-02
-3.977787660641676770e-03
3.178493936613151216e-02
4.061701626309747321e-02
3.318579865564087739e-02
8.631468167984299167e-02
2.415791059726853790e-02
1.695819074500967000e-02
1.138396705503544326e-03
4.827753343267062597e-02
6.245963103753299911e-02
2.040142123670345142e-02
8.508074702204737605e-02
3.805728121056072000e-02
5.061379154451156603e-02
6.902521589226917609e-02
1.341030587408148789e-01
7.923563038248679358e-02
6.790867320901713966e-02
9.025780938081810756e-02
8.212920273490473266e-02
8.228486090507018680e-02
9.221908849695731325e-02
1.003970954777768099e-01
4.621426727847374738e-02
7.972207930212782401e-02
8.802166977235240108e-02
1.526218983479470659e-01
1.225905249931559249e-01
1.601758357656751230e-01
1.875265969498691732e-01
1.286786646146806379e-01
1.440826281908873518e-01
1.642728190888919637e-01
1.760173450638251591e-01
1.358413105919790698e-01
1.874499693663048971e-01
2.196248764382044416e-01
1.963617971967915876e-01
1.184812355367811931e-01
1.571208607886964148e-01
1.849948888018036475e-01
1.708174347455264641e-01
2.067571162978830146e-01
1.665016237254803855e-01
2.195043898176456676e-01
1.613670388257219535e-01
2.218606287749856354e-01
1.640839311095596553e-01
1.919472173850445273e-01
1.934665473000103386e-01
1.801535210814763643e-01
1.630540175601128683e-01
2.032741908016976462e-01
2.013409522520737682e-01
1.536623456806378574e-01
2.351031210168551544e-01
2.223317636021389654e-01
1.812856476415907747e-01
1.595897830557168051e-01
2.302146874798223497e-01
2.197777136573028645e-01
1.912227125564210928e-01
2.592905622398886667e-01
2.155621153256274680e-01
1.910361779303372531e-01
3.509291638276975656e-01
3.341615336108219592e-01
3.289258878969846811e-01
4.071551997289839520e-01
5.009536936942725616e-01
5.396128543186259341e-01
5.672231725628068544e-01
6.301119982973182321e-01
6.934826481502933682e-01
7.614766739658591632e-01
7.820449546324074186e-01
8.755443412900903999e-01
9.379811836154777760e-01
9.583685088171204347e-01
1.072198524655093133e+00
1.037220070719513609e+00
1.069146343344969941e+00
1.059045912428154601e+00
1.065967533492185204e+00
1.013878466068651729e+00
9.914497478730127655e-01
9.690501267869965352e-01
8.572751356286743007e-01
8.875461704330915857e-01
8.219659080206940249e-01
7.029043432321772089e-01
6.354306998464244183e-01
5.883229278379334959e-01
5.170305696043537846e-01
4.518575354921234855e-01
3.705913948279047632e-01
3.537504085510924656e-01
3.234028571259738860e-01
2.550945809397872077e-01
2.215644174513210496e-01
1.899511507403291999e-01
2.353767723808350976e-01
1.959609203575051195e-01
1.919934291296124529e-01
1.582945260548102306e-01
1.342960381452246443e-01
1.694014424584014966e-01
1.451372021303830584e-01
1.228479032112408664e-01
1.702014813543147320e-01
1.205479428718361778e-01
1.225767021061386908e-01
1.503906445047195062e-01
1.912611165789283307e-01
1.232099209029530879e-01
1.523126427418552697e-01
1.764506274778337713e-01
1.612688040671012846e-01
1.352813261453735816e-01
1.897717349501304163e-01
2.334893246684225376e-01
2.247214272189557716e-01
2.249993090384505012e-01
2.001816628555012356e-01
2.441962033177072222e-01
2.224663304917784967e-01
3.141297992727734023e-01
1.858335611275400701e-01
2.346786206083675830e-01
2.364803349797580667e-01
2.632588588073513369e-01
2.453285408004340085e-01
2.989472633717163430e-01
3.386407416863990161e-01
3.163613228274116951e-01
2.716446889725078750e-01
2.942302056939782862e-01
3.093198433146007731e-01
2.716470854240592425e-01
2.620777194823018519e-01
3.293343139216891036e-01
3.117815068337895235e-01
3.500437521281599129e-01
3.092736606430632196e-01
3.266209919523461735e-01
2.207366827848632751e-01
3.012801706174799143e-01
2.796739300847002063e-01
3.171511788242597496e-01
2.544607078167244740e-01
3.109446005636140042e-01
3.174320941615730862e-01
2.411206913986919387e-01
2.853868900264436848e-01
2.914926800880112134e-01
2.788696031466399994e-01
3.119532923598168916e-01
2.580393056749377134e-01
2.568423926281978575e-01
2.741207009521547389e-01
2.860272814643139982e-01
2.633812218538429950e-01
2.198192452302663580e-01
2.380159185382478559e-01
2.047512411137897281e-01
2.576022376518536383e-01
2.607816764899723583e-01
2.031226741018069548e-01
2.680617334409796104e-01
2.078450053717501023e-01
1.847085073419116874e-01
1.741266580674877273e-01
1.741840158980589859e-01
1.509949428990740583e-01
1.899737972781293527e-01
1.572720219287022658e-01
2.043195156833436665e-01
1.449113427010235711e-01
1.637790185124662901e-01
1.673760081121415666e-01
1.421427599324551760e-01
1.391552899032188761e-01
8.567145272579124171e-02
1.360306214747661058e-01
1.633173290091001761e-01
1.489158123102723996e-01
1.257239839386387614e-01
1.168497579502436462e-01
1.050029290062164666e-01
1.406181988923952964e-01
2.791400700895772108e-02
6.643527300691756676e-02
1.109425822446692272e-01
9.400894368708215265e-02
1.011509484026313771e-01
9.087881785817410185e-02
9.223012544756678532e-02
3.556732213289890560e-02
-3.690297720568655460e-03
1.054376146332632602e-01
3.394322213811833827e-02
7.514359565230586957e-02
9.822250866170537109e-02
4.654841441282056569e-02
7.717110150326669804e-02
2.710112151032453842e-02
8.349919737000745246e-02
6.112808891390227040e-02
1.002509240381725675e-01
2.752196665615929544e-02
-1.610983500576201183e-02
3.974810831367021208e-02
9.418340466472041594e-02
6.772215421053105755e-02
4.221788523102191354e-02
1.028822003468269630e-01
2.884088811722672341e-02
1.898005982857530610e-02
2.340440994369727759e-02
6.322466341314858518e-02
9.803955128573556277e-02
4.356238952693069350e-02
4.801219173464452150e-02
4.552966411439617750e-02
-4.612689819229270904e-02
7.123886648167057634e-02
5.425787749133782756e-02
8.717127547645092678e-02
7.682736912147847264e-02
2.719537297343795762e-02
6.360494083078978289e-02
8.049555220299231539e-02
4.928915433677603930e-02
2.500751597986551611e-02
4.299609375689795315e-02
7.046345135537879223e-02
7.901615645594477211e-02
3.105047241814397688e-02
6.338918717833511018e-02
9.383180614791708507e-02
5.778074266185215246e-02
5.220662131265849104e-02
9.806877045121102643e-02
1.109499758653829937e-01
8.902070514041977856e-02
1.181217482997333756e-01
7.850268540112440019e-02
1.367690507413926726e-01
9.569026170741487536e-02
1.297146875475756744e-01
1.663553627125591294e-01
8.279811046776280881e-02
1.687386665985816103e-01
1.762629529729250466e-01
7.582103398719793053e-02
1.525534144392070302e-01
1.881960580560625984e-01
2.111563789899837951e-01
2.241278342825132608e-01
1.805432718508923062e-01
1.830323704672620067e-01
1.615908003748605104e-01
2.005703127824716436e-01
2.092011195768943843e-01
1.156806186609376091e-01
1.790452014240126732e-01
1.762644788896868264e-01
1.965730527684529660e-01
2.115780037004331426e-01
2.348660358661686098e-01
1.820985107566884809e-01
1.860178128506050355e-01
1.820602523387161442e-01
1.598380917373373178e-01
2.085480759255393945e-01
2.257128639509049239e-01
1.475375424638846744e-01
1.575860901112366430e-01
1.448528407527473194e-01
1.411534623628218355e-01
1.577822195769317259e-01
1.803187908098059788e-01
1.822751890774883810e-01
1.700353086398652125e-01
1.845670754210203823e-01
2.004379300054637270e-01
1.713756466386211486e-01
2.432641893343836514e-01
2.118329598377167722e-01
2.315165615102773855e-01
2.580895403591831339e-01
2.926611542853739256e-01
3.847611922438267662e-01
4.215764328527586424e-01
4.052874034229412281e-01
4.547437603665384631e-01
5.558843206819837901e-01
6.797040884393907856e-01
7.068180966242397778e-01
6.814142945113230709e-01
8.307275533415543478e-01
8.650564460652948595e-01
9.525293642743506428e-01
9.764486872729269962e-01
9.923902914815717624e-01
1.046817004948091157e+00
1.036184364783309331e+00
1.056117922300771506e+00
1.026259921935830377e+00
1.030560154571209086e+00
1.041269865081362545e+00
9.216757892230380556e-01
8.434199167657481233e-01
8.373198795190452959e-01
7.657600225221026236e-01
6.306423202136330897e-01
6.091177044010098740e-01
5.466019769290134667e-01
5.057847810304765268e-01
4.303227768980774637e-01
3.862248509983137734e-01
3.295926928548574275e-01
2.488799463535431855e-01
2.582100323506167361e-01
2.629889756940989587e-01
2.121569224924407249e-01
1.555929527458346506e-01
1.646498199176492649e-01
1.406721324823496655e-01
1.113064808427661895e-01
2.087177864980948594e-01
1.415047598680825858e-01
1.358704431326638318e-01
1.925771488313679503e-01
1.111642873958677835e-01
1.533095753834878838e-01
1.427124948208912669e-01
1.571654159382748772e-01
1.601786283859228111e-01
1.063710051253664024e-01
1.663674627067101008e-01
1.878855319864449480e-01
1.648917367785461552e-01
2.095575216892357762e-01
1.516667549698892392e-01
2.435542672745486525e-01
1.735855324230218266e-01
2.520905149056790751e-01
1.535505163199609446e-01
1.654079608735272988e-01
2.569430626044628685e-01
2.059435193924403773e-01
2.367782761942408831e-01
2.232524591584048312e-01
2.608547573945386167e-01
2.374890596118620079e-01
2.795358157032582502e-01
2.460985352508050783e-01
2.605019225986332509e-01
2.264385790243160224e-01
2.881884748110364880e-01
3.170811707292094939e-01
2.613055883416836589e-01
2.762343998224185970e-01
2.851916147340586294e-01
2.432915852886776698e-01
2.758814526269480205e-01
2.668448528337702963e-01
1.932900669001246241e-01
2.695921572312693359e-01
2.461040384061688180e-01
2.427547982084649891e-01
2.255342067725710498e-01
2.135900562253272572e-01
2.768464539656539936e-01
2.662827339405648419e-01
2.428618474359234836e-01
3.067389625576466550e-01
2.179812229119611477e-01
2.918009409096649631e-01
2.773996151786978226e-01
2.459232493338363856e-01
2.176643652449401778e-01
2.584557506281699446e-01
2.616732048098932562e-01
2.260639841686013785e-01
2.147995175649505539e-01
2.469302413662960716e-01
2.027725315856090671e-01
1.660372712775662896e-01
2.209062694393759685e-01
1.813544539180994286e-01
1.834858896140600382e-01
1.709474003158860389e-01
2.054219166134323982e-01
1.439463057824690861e-01
1.709075643281150469e-01
1.621523043469568770e-01
1.545410861255402668e-01
1.684065015333506277e-01
9.781604185070004454e-02
1.563497809891791490e-01
8.418809276055995439e-02
1.330188744062252848e-01
1.107307773965769959e-01
9.259826359356687631e-02
1.005528798016019215e-01
1.052654742651639164e-01
6.317143467846887683e-02
9.511052357862580242e-02
7.242672747508839548e-02
8.900022243890837181e-02
6.744661844617277913e-02
8.196443549392862238e-02
7.182909719260827108e-02
6.689254335358979509e-02
8.515028971923702117e-02
3.136396783062946753e-02
7.265878492851376991e-02
1.982071406627411783e-02
4.222643478332616107e-02
4.342050860310346649e-02
2.267642010775719474e-02
3.334596002960232841e-02
4.751743770101221620e-02
4.854773561020465228e-02
2.844791509714929972e-02
7.731789234497268848e-02
-3.215011128293136788e-04
2.528477933990678009e-02
4.454519997861714625e-02
2.116903450569023945e-02
2.640975762993370141e-02
5.384253698100425339e-02
2.640254066257429616e-02
1.943521482672001463e-02
-1.825473371073166318e-03
-2.129274595743676016e-02
1.394807321848526294e-02
1.990715491386069527e-02
-1.018680680560623240e-02
-2.748910907518347388e-04
2.582121702039865546e-02
2.601247338739176920e-02
6.073691209826636087e-03
-1.624013857963780075e-02
6.508825243236829317e-02
1.936826634938840219e-02
3.870472213700426600e-02
2.629983270222967066e-03
-1.832023561773532538e-03
6.068483330730953251e-02
-4.962585484142976316e-02
-2.504657680909435843e-02
3.287146456643245951e-02
-5.021689424435948380e-04
2.862508200660445618e-02
1.479299317225523692e-02
-1.317968058937282923e-02
1.635541339038645153e-02
7.780788645565299422e-03
-2.386822694866975667e-02
5.990066309926043997e-02
7.501935879722315681e-02
-1.145518839921361859e-02
8.910007610356762697e-03
6.877055726374542433e-02
1.030335210184123024e-01
9.560940186334175583e-02
-1.574345752145639085e-02
6.372495198714385467e-02
6.662641196089960638e-02
5.721748802494892178e-02
8.583738832016835074e-02
1.286448107109276484e-01
8.318633666949051819e-02
5.676927120743648081e-02
1.253402797120334033e-01
4.088357483862764541e-02
7.530050396560404591e-02
1.516657642914992776e-01
1.045268909328084528e-01
8.744853578015973627e-02
1.399567735200723806e-01
1.385096349371716107e-01
1.059091227253080580e-01
1.426431091049586986e-01
1.222921281499622231e-01
1.587197434321940825e-01
1.120280986118668831e-01
1.026552299070118274e-01
8.869364988851929921e-02
1.470803014594062597e-01
1.382907390463480879e-01
1.570336053731738180e-01
1.528083906536115144e-01
1.681949700507777146e-01
2.288863759368876261e-01
1.689368558339618964e-01
1.255412940098112606e-01
1.888317905164261790e-01
1.290963027015447628e-01
1.627989189703391570e-01
1.194779724689081085e-01
1.105293242393790426e-01
1.310930522246773200e-01
1.390300152640308873e-01
1.224854411664430404e-01
7.127944204456171384e-02
9.568814852237027269e-02
1.203013271407391421e-01
2.056852565925570975e-01
8.053541637599635761e-02
1.719738336653072741e-01
2.008207646857599615e-01
2.514261286509099080e-01
2.946610935978319357e-01
2.814859894511555494e-01
3.951117430906910255e-01
3.797160500481854273e-01
3.988043865317247860e-01
5.296062748189814817e-01
5.918816541595558478e-01
6.768881401910721296e-01
7.236578738480912154e-01
8.215091560064731180e-01
8.170838840431505767e-01
9.227509011314466436e-01
9.030217618994907935e-01
9.912409911639226134e-01
9.567100391460870989e-01
9.766508116037089238e-01
9.736426831802943438e-01
9.776322411712565774e-01
9.398416623647879442e-01
9.726826742117369307e-01
8.524959372790085199e-01
8.005891914373923779e-01
7.359210117696283193e-01
6.547648475766513210e-01
6.453193522267185456e-01
5.156034926198108659e-01
4.646917932837902887e-01
4.382121896456759869e-01
3.254948514602134524e-01
3.193045591872418210e-01
2.703539552380351263e-01
1.793689491376659895e-01
1.896073292767235241e-01
1.444705976302272377e-01
1.757261570394211547e-01
1.572404984466188038e-01
9.894640382644717680e-02
1.538454261408705170e-01
7.027719446499210154e-02
1.068800428576851813e-01
1.135218822846035397e-01
6.492475510569760411e-02
