1.280119033720329869e+00
1.183073007261268961e+00
1.233788421231681420e+00
1.155092294699793243e+00
1.188231607989605587e+00
1.084793058916529107e+00
9.856156780156679620e-01
9.654962584679031012e-01
8.528802637689885113e-01
7.576970801764689734e-01
7.108827843626061016e-01
5.987881559395966669e-01
5.086888810341464451e-01
4.757423428292492096e-01
3.646653767214091402e-01
3.434017834778946288e-01
2.842400092910369325e-01
2.669612014609857309e-01
2.432730225432312432e-01
2.092362992905932861e-01
1.868811075617087258e-01
2.211158933626808931e-01
1.750000904788886202e-01
1.625890602395752838e-01
1.487942289606704327e-01
1.401302698396075797e-01
1.326981121238286487e-01
8.013677456781166664e-02
1.644891798490163703e-01
1.580180717087585895e-01
8.159598093859549151e-02
1.704569856500514069e-01
1.219988718696171509e-01
1.700790202788476368e-01
1.662149562562681981e-01
1.851337833075677730e-01
1.801092422027423812e-01
1.715369871999748441e-01
2.074875253157396071e-01
2.418375945242774439e-01
1.964179771765602600e-01
2.138041334846131902e-01
1.870555468347605277e-01
2.360207645756856598e-01
2.478470599637078997e-01
2.720001170292474235e-01
2.519008892808852207e-01
2.415568901726983242e-01
2.454894807292661296e-01
3.077654612763059960e-01
2.161018824648453518e-01
2.352767708407682290e-01
3.132228832997076551e-01
2.615025658537162845e-01
2.282999182692177498e-01
2.709057767271769168e-01
2.997873109673819259e-01
3.611066572668431007e-01
2.681384052476326607e-01
2.533505915869699865e-01
2.780476284188470038e-01
2.836465556611730832e-01
3.909253724384174067e-01
2.735666945190316501e-01
2.590635198038544473e-01
2.950160779641726183e-01
2.878468897431552542e-01
2.754988766698939218e-01
3.047086578820247804e-01
2.457497247316884903e-01
2.973724550648563780e-01
2.616640629559492948e-01
2.533741817093201343e-01
2.900870356814519990e-01
2.864305856908270220e-01
2.560931847013872553e-01
3.153084584382927491e-01
2.741609167845947548e-01
2.287710232916574382e-01
2.216179551407101433e-01
2.717309826914945936e-01
2.706826595888078835e-01
2.605792004667072947e-01
2.094501098545316631e-01
2.258038123562975952e-01
1.865503301208631670e-01
2.416503317687502816e-01
2.420834755728721033e-01
1.912253619320332942e-01
2.011144741805663549e-01
1.816907408334893781e-01
2.175827985659644082e-01
1.699670002392777712e-01
1.213241743364903424e-01
1.087200791133629135e-01
1.495348787252910872e-01
1.318304745183292437e-01
1.425349407021363479e-01
1.933850662939683995e-01
1.127899173723439508e-01
1.030118096060197164e-01
1.458492560524062842e-01
1.473224202911707637e-01
1.607343434840467489e-01
1.159796687689389760e-01
7.074928999711087296e-02
4.890001129589188061e-02
9.745755787890603150e-02
7.272775987092014449e-02
1.288983311934817633e-01
8.602234003093131576e-02
1.290519754975821554e-01
7.886895217387472623e-02
8.882551158755694343e-02
3.538308052233889167e-02
9.536234387001574220e-02
9.914923924163904223e-02
9.173846999531753976e-02
6.603016479884542267e-02
5.722977928430947325e-02
8.618978499827294193e-02
8.381248958526954507e-02
5.845497257234179289e-02
4.220323519886249458e-02
8.816325376406523862e-02
8.292414751964563568e-02
7.991227734009434536e-02
7.865842625147372036e-02
5.249992910728346063e-02
5.746547122248693573e-02
3.405130867137205058e-02
5.443307593957363855e-02
2.221779352936502708e-02
7.052321725317584056e-02
4.171291384363623456e-02
5.552997794319537717e-02
8.614822447494976942e-02
4.969465971121582448e-02
6.863307957596337383e-02
5.165223623970435773e-02
8.507688045517274034e-02
6.850840417484026224e-02
9.161267719776178264e-02
-3.153081701190725561e-03
5.520443045604808696e-02
8.661595100615482323e-02
8.955560451980268399e-02
5.759347465697983726e-02
1.036242632841522238e-01
7.736331677723694289e-02
1.137251274955106695e-01
4.521133507712915556e-02
1.052578247587598881e-01
6.636533771203456666e-02
6.629289078604899688e-02
3.281047267996489020e-02
7.143104094488418598e-02
9.439822908030240378e-02
8.350249461177891575e-02
1.317510986933944084e-01
1.056715781322987296e-01
1.168234285910473291e-01
1.094168398268442199e-01
2.107745897694502935e-01
1.598363914681827092e-01
1.656159174258605427e-01
1.472432902998454529e-01
1.262204992592000363e-01
1.518185350677255796e-01
1.532291396670806272e-01
1.528403716318311178e-01
1.664139367611099374e-01
1.669461123062437047e-01
1.663992147371520514e-01
2.183896739760642358e-01
2.537708052001208525e-01
2.048874814286162360e-01
1.873265579325644747e-01
1.832513923054437111e-01
1.853754952313890758e-01
2.011598544558763635e-01
1.597630556520512057e-01
2.241033305869545023e-01
1.815802760116721482e-01
2.382194609179962563e-01
2.520539414118816435e-01
1.652560729637740922e-01
1.444736722828481035e-01
1.691527633537896758e-01
1.849233295992621928e-01
1.972336019391365269e-01
2.030684294613201990e-01
1.410277155909143154e-01
1.726254622513243853e-01
1.501327638232455852e-01
2.122028701600345291e-01
1.998754999404099841e-01
2.460856559513109332e-01
2.098865985185952854e-01
1.555369955322571385e-01
1.771760328811072538e-01
2.493919376126752796e-01
2.546824760974968349e-01
2.464524468448008321e-01
2.685726114447226087e-01
3.231371021922100906e-01
4.034959226366422458e-01
3.711851504296835857e-01
4.602487927695200209e-01
5.038198297152148841e-01
5.612774703387179986e-01
6.371029767352912598e-01
7.183255446815306478e-01
8.757204695131369787e-01
9.699079509716326264e-01
9.823413221844267129e-01
1.021368789776383013e+00
1.093221927994264542e+00
1.117541700961661721e+00
1.213467339411348433e+00
1.226354516893792823e+00
1.212120866812975262e+00
1.260966611678732363e+00
1.152266597581030672e+00
1.197635301233882510e+00
1.209232073639701532e+00
1.130599426311341471e+00
1.044609908214914507e+00
9.956860828586242551e-01
9.588233306075655271e-01
8.038150223223670121e-01
7.407374271251505604e-01
6.423745436235998030e-01
5.601734812684477927e-01
5.054356509372763817e-01
4.199218238980788054e-01
3.877143482453287437e-01
3.615017444620462483e-01
3.213285601755029308e-01
2.835923464206294708e-01
2.126642049766052645e-01
2.665779099843680888e-01
2.166684963083679860e-01
2.006687788802289651e-01
1.460112688008962656e-01
1.646431248469039099e-01
1.293086761267214224e-01
1.325249659673860547e-01
2.100016597814016450e-01
1.241709681684543959e-01
1.286191407069896542e-01
1.363388379719249754e-01
1.662095338354374896e-01
1.823119713680398102e-01
1.083565535370841909e-01
2.129173086325945041e-01
1.594144633072002160e-01
1.473935964530721510e-01
1.630750948980862203e-01
2.534266176640372903e-01
1.759380514517520366e-01
2.287617625264993793e-01
2.185631817521006270e-01
2.180989736660602918e-01
2.492211218074935064e-01
2.168696147201303881e-01
2.805323679540353554e-01
2.519749959752851098e-01
2.834307958365883673e-01
2.560985537532318168e-01
3.067209487186260963e-01
2.825878443153320707e-01
3.223085197634095733e-01
2.961573289484562554e-01
2.378589016201863027e-01
3.354926734166646107e-01
3.513111773805543958e-01
2.854436815177672226e-01
3.214308718643544838e-01
3.210322316230990181e-01
3.142250884189142779e-01
3.286385246330942311e-01
2.981251572903058644e-01
2.884032382293570396e-01
3.497391246745261695e-01
2.844121033749554828e-01
2.897973491252869849e-01
2.749345860396879004e-01
3.166956649286256642e-01
2.946058546329909933e-01
2.743802703234521911e-01
2.439394200832277482e-01
2.906440874839673061e-01
2.421400869400650580e-01
3.129175889293291934e-01
2.932497146461949256e-01
2.327459469190471530e-01
2.690837107122229233e-01
2.300553034673914199e-01
2.668697261503251705e-01
2.939808606186076756e-01
1.909113724808182422e-01
2.691100708224721805e-01
2.749293713725601274e-01
2.267327179574119556e-01
2.094052659204364009e-01
1.866310372468600320e-01
2.507074589335765991e-01
2.045141316803280873e-01
1.874674810789924706e-01
2.271778187363970303e-01
1.658902251640784198e-01
1.763124438972971109e-01
1.761019389701611870e-01
1.953845665327160752e-01
1.749957275218748665e-01
1.270473996600449129e-01
1.503576783424525887e-01
1.702784798813315181e-01
1.731600545497252175e-01
1.570723619638705326e-01
9.773506772293724665e-02
8.502662830668797356e-02
1.494300085271998979e-01
5.116912104210039752e-02
7.522084568391540493e-02
1.114265623690989526e-01
5.770265400417100288e-02
9.824620536413425365e-02
5.359929791699861307e-02
1.170742078752697868e-01
7.354991883403036446e-02
8.271606184748650503e-02
6.922970286559582132e-02
7.605637407711147990e-02
6.723448890530586697e-02
8.219638979377169585e-02
4.921188831003900366e-02
3.820870304553940222e-02
7.573024035425748868e-02
8.584307049932594913e-02
7.442562886463674476e-02
4.636122223586610497e-02
3.086287469833607147e-02
9.331480627516441917e-02
4.655414951582684951e-02
4.833438767495604194e-02
2.108165555617584619e-02
2.931118391785510202e-02
7.917088413930357949e-03
9.943142562195173007e-02
-2.366754001879380759e-02
5.188645067090124491e-02
7.033299969525319550e-02
3.378402521120191238e-02
5.419825772059395225e-03
6.055312228829620724e-02
2.335209989605885675e-02
1.023580827018408107e-01
1.776026574488788826e-02
9.447933501094490927e-02
-3.383746339995247210e-03
2.656600231439306195e-02
8.780048467341701468e-02
1.475527978918302063e-02
5.934113089153959103e-02
3.196889519822353198e-02
1.153648507976167970e-01
3.246446355388385441e-02
1.026448416460649798e-01
5.743138660705723181e-02
8.142431358739779523e-02
4.285571272525180719e-02
5.601757582600347396e-02
7.061465678203707880e-03
5.416383561775006683e-02
4.542602883540992897e-02
7.346555079912575614e-02
8.242954401399929520e-02
6.853811829402042810e-02
1.011029327606300376e-01
7.271578305215577187e-02
1.148928264895892892e-01
8.544545375261440590e-02
1.221046066332351909e-01
8.557340463919980988e-02
3.413790047807604283e-02
1.119993699989623448e-01
1.831321585053086454e-01
8.236568904849403405e-02
1.064756751009769270e-01
1.313339933687689698e-01
1.212308304492631106e-01
1.145681647563454447e-01
1.388991581698171829e-01
1.822141550431495005e-01
1.033430663908786462e-01
1.527297280974853899e-01
1.692182584442309401e-01
1.516402614049942033e-01
1.151810147582737476e-01
1.673264513171634493e-01
2.224211362407189640e-01
1.488203368629257839e-01
2.100286459026518560e-01
1.105976985281284242e-01
2.023604664152842403e-01
1.615141789355103996e-01
1.279400435805276293e-01
8.711512879773798679e-02
1.902871179032008253e-01
1.946856885379937285e-01
1.283097828673605001e-01
1.417444306614636385e-01
1.212084795802063769e-01
1.457610205443921059e-01
1.708583044117821803e-01
1.460677968002513649e-01
1.534597467998333187e-01
1.663216013929224024e-01
1.796682163631746487e-01
1.265136287634024137e-01
1.739228120218000717e-01
1.488381965276750485e-01
1.845252737501309748e-01
2.313726542271770381e-01
2.296045941359427522e-01
2.677140713834501584e-01
3.260111151367218185e-01
4.413364037594612599e-01
4.081560542187960827e-01
5.243389096964717888e-01
6.184930217029741550e-01
6.753725223787100385e-01
7.109725002288563855e-01
7.747861549426278138e-01
9.077155869591067017e-01
9.257828634447388128e-01
1.014850776556097012e+00
1.115041137431345142e+00
1.158300136890211052e+00
1.139895961024748994e+00
1.204270599156532562e+00
1.169453272261507859e+00
1.227554135192208129e+00
1.158638938165399868e+00
1.186177042878827637e+00
1.062604697771969642e+00
1.052848663004847696e+00
9.879536344512648283e-01
8.743633412981932640e-01
7.695571532724448938e-01
7.682068590527914020e-01
6.860496688755101102e-01
5.792712876722571069e-01
5.256996730098295600e-01
4.944880388479231947e-01
3.915011919279564601e-01
3.322766552741391877e-01
2.590300123690640333e-01
2.422335450540211155e-01
2.110302003499600065e-01
2.584703591628727537e-01
1.351959469562423466e-01
1.163445195274874638e-01
9.999054255218120524e-02
1.029691271003454894e-01
8.488491736384712327e-02
1.559293782988214194e-01
8.964897092148632618e-02
1.300038699589285418e-01
1.309270156578852540e-01
1.239701232618832943e-01
1.494989861938616216e-01
1.224320208244521202e-01
1.005980451469896814e-01
1.430157309884989292e-01
1.795850331731632388e-01
2.172884322722581085e-01
1.281927678292979211e-01
2.040988399771166972e-01
1.640572672956751854e-01
1.825525066870748170e-01
2.017941311401848792e-01
1.011888044475804521e-01
2.021986435119325631e-01
2.037278060661264489e-01
1.138176685192781590e-01
1.885748965239774644e-01
2.341081373527410248e-01
1.906975781074836673e-01
2.567956900461927372e-01
2.091593978755213190e-01
2.424563720222845664e-01
2.086169891664042542e-01
2.550355436240629436e-01
1.962621863032809333e-01
2.604090748122918075e-01
2.966554469526120896e-01
2.118128587856225598e-01
2.593361511396916619e-01
1.923193260923056203e-01
2.341229185015541725e-01
2.339003986413881464e-01
2.113158238426153523e-01
2.726331464477321220e-01
2.751338678093949164e-01
2.280641247694598639e-01
2.430824717799367207e-01
2.219687199387119780e-01
2.217489658432184596e-01
2.763685749403747005e-01
2.222932562132985124e-01
2.137579058743120930e-01
2.248385931389599302e-01
2.141245709306588418e-01
2.762520470573407438e-01
1.980320314694572481e-01
2.703480769298302056e-01
2.224554265405098152e-01
1.967034057498511235e-01
1.927041083960222279e-01
1.263896701818137125e-01
2.010152501224914678e-01
2.149814828648797527e-01
1.994094160370607216e-01
1.690222170064068774e-01
1.301928952691490393e-01
1.425435641049790370e-01
1.410798789160860045e-01
1.424780839276962308e-01
1.211952655612018037e-01
1.737602404494110742e-01
1.125757159154162912e-01
9.092752488487809703e-02
9.892155626269402702e-02
1.335102014690421890e-01
2.211772205229245447e-02
5.621200048891354661e-02
4.958856136492199168e-02
3.420420730842668733e-02
7.991436479776491131e-02
4.727335281210563039e-02
3.897817063656455749e-02
5.121659018824079035e-02
4.900278585353383398e-02
6.154326328816918379e-02
3.521903662647731664e-03
5.030002252691501835e-02
7.706484830424702170e-02
1.077394076667394229e-02
5.704345366371675607e-02
4.799682186296617969e-02
5.580578421189412441e-04
2.686549059640850126e-02
2.461872631923715110e-03
2.820430799539017444e-02
-1.561505843743282371e-02
8.832664853783633863e-02
3.198229624026067280e-02
-3.792338612878489584e-02
-1.167817140289571093e-02
-7.697333293732391488e-03
2.683990637765881759e-02
2.683172781011671296e-02
-2.555143443243743442e-02
3.292488512595233285e-02
5.049593117845229545e-02
-6.240687731410436007e-02
1.326322422373779272e-02
-3.763911518529235861e-02
-1.835908992119121216e-02
2.561509032655735763e-02
4.316344384109955384e-02
2.949773599920503878e-02
-1.362674633914084596e-02
-7.876325966299250678e-03
-1.258516630125328800e-02
-1.118660298988077145e-02
3.505368192762578494e-03
-3.999167529102290453e-02
-8.328288886470071317e-02
-3.547837040263594754e-02
-3.644953704003566636e-03
5.888262595729158722e-04
-1.913127686830352198e-02
-6.077541158606845212e-02
6.290445575956007257e-03
-9.343922895586647542e-03
-4.332837752135385717e-02
-1.077926831232930288e-02
3.847468326481866263e-02
1.481678827945921359e-02
3.124110584981320410e-02
-7.453534380538473503e-03
6.948412337504625974e-03
2.937044099592592619e-02
1.076035411712009809e-02
-2.291917326582803074e-02
-2.777109849956970258e-02
4.884632225165452118e-02
-6.849298144419514733e-03
8.198582870582596382e-02
-5.650294618504980021e-03
7.599711797896563370e-02
1.650089761962147614e-02
6.889547241344294581e-02
8.301983608998020348e-02
2.323790809294385556e-02
1.231614727884788596e-01
5.767698316605836262e-02
5.499490819494887162e-02
-5.939691420577881964e-03
1.082531386679040919e-01
8.965319263165184849e-02
8.629657953049134356e-02
1.638744855577882464e-01
1.254559402217973463e-01
1.789285823946182852e-01
1.112374505642868133e-01
1.888146944105404124e-01
1.030672944624260456e-01
1.012153193516007466e-01
9.671635279205695324e-02
1.685775380975223225e-01
1.435897416281096406e-01
1.067127980651673136e-01
1.361741137996748952e-01
7.830392825043011595e-02
1.019464339538333486e-01
1.483332977641096118e-01
1.299402157103289324e-01
1.190981124287445458e-01
1.217498877345070812e-01
1.214519936459568517e-01
6.584641338161384416e-02
1.941117207777245668e-01
1.233260761943251044e-01
7.241778530792344903e-02
4.513776768911272053e-02
6.724864393678178787e-02
9.663403083538499305e-02
1.152270117164798380e-01
1.250249679891103360e-01
1.223895994534272558e-01
1.921565218409043152e-01
1.999722018162237158e-01
2.340561149132060759e-01
2.393429178710202165e-01
2.545630876803148257e-01
3.384047516656287224e-01
3.124983877455082548e-01
4.747058896689993479e-01
4.405046643758413483e-01
5.558428644996487034e-01
6.489905812502098081e-01
6.954755887455250640e-01
7.522951012811277538e-01
8.768504735127494731e-01
9.327848698379972436e-01
1.007466996182137420e+00
1.094432188421869956e+00
1.140635039556327612e+00
1.137472619235848637e+00
1.148635120088481898e+00
1.149093984895251719e+00
1.141580586715163825e+00
1.133716195494130607e+00
1.098699721933467544e+00
1.040719961344466649e+00
9.797985040749715990e-01
8.683016139120178778e-01
8.595080081866242061e-01
7.272795545702399611e-01
6.802883327930782098e-01
5.434397342186791935e-01
5.407146181970041710e-01
3.992134118691248457e-01
3.710663500441839791e-01
3.668275032714152228e-01
3.119013895323093366e-01
1.711959398158259260e-01
2.120669489379637951e-01
1.240578640606182087e-01
9.786932316207119786e-02
1.210045198574865033e-01
8.870499241767892951e-02
1.183515559199082717e-01
8.238206954042269492e-02
1.311775890029184266e-01
5.580582944751252827e-02
6.822961483141606887e-02
9.210154588887164984e-02
6.515310474689478548e-02
4.538539565616669935e-02
1.255778003644356655e-01
6.940078131301084807e-02
1.918916651242741356e-02
1.089107343300037140e-01
1.630743846568158129e-01
8.476351572875642781e-02
4.945733748827008114e-02
1.387993312764644327e-01
1.303192909645123077e-01
1.347533691696584379e-01
1.341846908832217411e-01
1.031438776245887645e-01
1.656843267042210632e-01
1.169032599984817233e-01
1.216314515320537221e-01
1.661222357218384293e-01
1.641373250511097559e-01
1.695856315695691285e-01
1.420574532443220628e-01
1.819857861621691497e-01
9.708300253383142508e-02
1.747686368947537205e-01
2.016125845176690023e-01
1.776835295998073216e-01
1.909038848755850448e-01
1.732270059168802001e-01
1.849765959899361545e-01
1.735189908774932288e-01
1.739221494256682210e-01
2.179928139989896485e-01
1.824424485142426833e-01
2.076654276523198228e-01
1.867035201600200089e-01
2.114027981579947868e-01
1.412279534603430031e-01
2.379607008628017994e-01
1.899053300829099400e-01
2.089840932595477541e-01
1.668847560426563459e-01
1.782648994740492765e-01
1.987300628663064561e-01
1.788000829708095984e-01
1.248671434608436270e-01
1.866632801508150696e-01
1.677276678098434948e-01
1.735242944994258296e-01
1.838536064712731621e-01
1.604002393917737523e-01
1.425122927476571710e-01
1.187588652976196840e-01
1.626881130463989911e-01
1.462479066174582343e-01
1.185831010988492307e-01
1.739157013441932631e-01
8.190692725526362017e-02
9.349885250086041599e-02
1.297714917248894428e-01
9.183393165012407322e-02
1.245312538223122267e-01
1.160700178400405902e-01
9.870573324554557382e-02
1.228864669275765431e-01
9.072785042275527401e-02
7.573573993664378667e-02
4.107191858459960376e-02
9.780409513030732804e-03
7.469500677055632143e-02
1.206494183079968030e-01
-1.050051629503166717e-02
1.851191754730997785e-02
-4.400268190278476543e-02
3.773170732363759217e-02
4.100398816553858794e-02
1.899284447478989668e-02
2.123238022392753832e-02
4.480221456142327585e-02
3.896260716936217339e-03
2.986003929340884377e-02
-1.958713320566251789e-02
-3.735369062516293026e-03
-1.944180950748171030e-02
-3.395929673116949293e-02
2.587127729743671917e-02
-1.606838915251027067e-03
-2.407016629156038395e-02
2.233376504966157194e-02
-7.956425235416418607e-03
-6.604853314147593468e-02
6.527472509606238593e-03
4.420760212546490098e-03
2.385700866280063975e-02
-7.073625141203812583e-04
-6.901022182975102837e-02
-7.696333259675416927e-02
-7.518179989440837430e-02
-2.154478631416011439e-02
-7.849727864387842646e-02
-1.990857829746810193e-02
-7.759463500380478496e-02
-7.636161347903613894e-02
-5.012976501703739901e-02
3.435620099436161035e-03
-8.484899892591782344e-02
-5.845851314640439916e-02
-7.575933727740402635e-02
-2.560225319423403700e-03
-4.383239066968114273e-02
-7.106574200275780906e-02
-2.929259114040538500e-02
-7.977586583703831502e-02
-8.955489255573551022e-02
-1.141704043871099444e-02
-2.464042685207709291e-02
-1.483966814351395103e-04
-7.711909630561095130e-02
-5.570296887103866335e-02
-6.681977548082301821e-02
-7.937655851846682487e-02
-6.391268559895038615e-03
-5.092820064757470899e-02
-3.148098589432751782e-02
-1.490867443801890957e-04
-2.342143482875930910e-02
-1.081026089316701466e-02
-3.113377459388699114e-02
-5.576115095868514060e-04
2.023428395592869605e-02
-1.930042425840982137e-02
2.260035456416687599e-02
-1.309934203818455267e-02
2.212004271677697059e-02
-7.087298912217759872e-02
-6.431527300866192454e-03
-1.342133950002506043e-02
3.652822745791617365e-02
7.090874908051714165e-02
3.744564282493358098e-02
9.191601384489128668e-02
8.507669893542382789e-02
6.073594421577539065e-02
4.456023967665714847e-02
5.921946890386541734e-02
1.103020782154922885e-01
1.182518031076509601e-01
6.451440403447088190e-02
1.105998308265134927e-01
9.560708631604966645e-02
6.729430565277505494e-02
1.417359886951575776e-01
8.823352041668333645e-02
1.393061400752638457e-01
1.022676003251546950e-01
1.128860541920166105e-01
8.395259772213171934e-02
9.688933910748631639e-02
1.092664066627097585e-01
1.186622621780275555e-01
1.128120364184815871e-01
7.654386772412799522e-02
7.699374193961584789e-02
6.752849150574796733e-02
6.502021320435755203e-02
1.196068184718296068e-01
1.026301672311105972e-01
1.120308058751001146e-01
5.752825376647306005e-02
8.071886818729596957e-02
1.207109337943778893e-01
1.635393778845533330e-01
1.113182290234227129e-01
6.467635903733325031e-02
1.034056662822196715e-01
1.284636336099747866e-01
1.579522107909156481e-01
1.761327769060596071e-01
2.482356635097883457e-01
3.165598783048791387e-01
2.965037254111477227e-01
4.251096208115224817e-01
3.438566944309961460e-01
5.492237283795484704e-01
6.325319535109794611e-01
7.007137572975267181e-01
6.686770002652620004e-01
8.761111044388478764e-01
8.943969939579642370e-01
9.723802821495142190e-01
1.068029409879321046e+00
1.017672039340482115e+00
1.102772391447571998e+00
1.145995358233377059e+00
1.172298574542782301e+00
1.131903066576421146e+00
1.146647941668846205e+00
1.098093787743275485e+00
1.110162214274116543e+00
9.657662611195091396e-01
9.312562712513499097e-01
9.139396380937795383e-01
7.506905879206894339e-01
7.237659855892981664e-01
6.034827999752081507e-01
5.965533231627409005e-01
4.994166065509298980e-01
3.869980426474879387e-01
3.873626392437629073e-01
3.011344852826222662e-01
2.427110928344860530e-01
2.430042258174120451e-01
2.148467520664938124e-01
1.735219539817524359e-01
1.254916150277275433e-01
1.033534904425503498e-01
8.833006442310228912e-02
8.300468235556934804e-02
6.980425860513485292e-02
9.335795291276852148e-02
2.622819737635258275e-02
5.678666084030824929e-02
9.545465248515688783e-02
5.681627280184541051e-02
1.040408113677917523e-01
7.251433994805045469e-02
1.057670233862340325e-01
9.229410990923123115e-02
6.579479396982798600e-02
7.646919427406080605e-02
1.275643556638147991e-01
1.337335195298503532e-01
1.055813334697406625e-01
8.615589619110097797e-02
1.216846735712372729e-01
1.501982216394582015e-01
1.584169921758830368e-01
1.299477104942340921e-01
1.124135557409159381e-01
1.443081621259351133e-01
9.804544212998350661e-02
1.523550851842821463e-01
2.267463428440913142e-01
1.921041894994515720e-01
1.855565267344288505e-01
2.207291186729943011e-01
1.985097122020296201e-01
1.537770300773914633e-01
1.859885977970320292e-01
1.980337582481720982e-01
1.935113042062863720e-01
1.747617457546476460e-01
2.121502822158047863e-01
1.828892313347196263e-01
1.965691635295944706e-01
2.434558944242080636e-01
2.346149566903431016e-01
2.344412293246803114e-01
1.965062138980148976e-01
2.317457138356827928e-01
2.035899802589110075e-01
2.270991275937007947e-01
2.009621587249551811e-01
2.150076492501072911e-01
2.102890040459399201e-01
1.732119450663961724e-01
1.917365690353563801e-01
1.906878281872530778e-01
1.764687327668572336e-01
2.252511986816033707e-01
1.803098019476306046e-01
2.032059374939867713e-01
1.887975303040210495e-01
1.348866508378506468e-01
1.433960663497069465e-01
1.818482562642785016e-01
2.177009340558537787e-01
1.241411318087129734e-01
1.368404229064300315e-01
2.300043790902909224e-01
1.175440585776269531e-01
1.621651155890563578e-01
1.456212358464199497e-01
1.313055489785951990e-01
1.052951767290262880e-01
1.663559050687898888e-01
7.538218238573581031e-02
8.284169446260764014e-02
8.193241362973628650e-02
6.195594248779939806e-02
9.903292053584905608e-02
9.993777648025273241e-02
8.318527358356749002e-02
7.839043041014484570e-02
8.933603973925595410e-02
7.935102165655243123e-02
4.132063910911160098e-02
5.353354730394820071e-02
5.706248708245495460e-02
6.604722866462839348e-03
3.766020517814432089e-02
2.065858369788463669e-02
7.859764420931711348e-02
2.849525800119944233e-02
-3.538488124968536264e-02
-3.077252801765875331e-02
1.735242493654821916e-02
1.480036334906430565e-02
3.019118355265377335e-02
2.093464442378703202e-02
-1.887625509336781499e-03
7.800876081181226662e-02
-3.738351129272515783e-02
-1.591794360673195324e-02
1.676539325929680968e-02
-5.090411853563406308e-02
-5.128474568004743467e-02
1.090619598276681285e-02
-1.892991702175128230e-02
-1.644393658441369727e-02
7.665566055700397813e-03
-3.539071684263465911e-02
3.690927068754640272e-02
9.741553574564246892e-03
2.170983874881083839e-02
-6.369683448203224130e-02
3.957260476163251828e-02
-3.351711286469029327e-03
-1.893206651480592792e-02
-1.896882642531798335e-02
-2.506043658070886831e-02
6.781962411625968440e-03
3.144079129309848564e-02
-4.513394447626388473e-02
-2.780389277797098296e-02
-1.283102224384728360e-02
-3.922492391338289197e-02
-3.271885102120256072e-02
-4.573839441872919881e-03
-5.684799897228831611e-02
-6.530089625639655740e-03
6.064908109406377118e-03
1.936322508649276561e-02
-1.781297576930775811e-02
-2.403723653439197860e-02
4.444075638025230673e-02
-2.767542695509810427e-02
3.235222746513570502e-02
2.139788467303692376e-02
-1.016066337535242309e-02
4.480581022537585834e-02
2.596014723491390716e-02
1.846174968492273263e-02
7.301159994835410005e-02
1.079728857644786238e-01
4.335515669826491003e-03
1.925096686779970145e-02
6.052601459508489407e-02
-7.302953424979091029e-04
7.259347317383031684e-02
1.690461506582818449e-02
1.275979490548366235e-01
1.238390240293564398e-01
1.365130483790143179e-01
5.093569739470740765e-02
1.309267786611331419e-01
6.834427107179763539e-02
1.127614043885177414e-01
1.346003877116504488e-01
1.223493436643918880e-01
1.245757005603973372e-01
1.648717879075373149e-01
8.094643397665630957e-02
1.028914343344189131e-01
1.739484173897278829e-01
1.332252934393382271e-01
1.573410715593754061e-01
1.616768166504474746e-01
1.105182620189901627e-01
8.316382296308860722e-02
1.540692868575894714e-01
1.222701413437374401e-01
1.321912624492714849e-01
1.143418912953053090e-01
9.931224570009794528e-02
9.232762535281849314e-02
8.140020743958649441e-02
8.870433528247186061e-02
1.747084028655749577e-01
8.898105768021233319e-02
1.905206629241477656e-01
1.318037784047107475e-01
1.597257344130144363e-01
1.539141801402941212e-01
1.737038855538795834e-01
2.023841189216300795e-01
1.751031728327279713e-01
1.677587846803779703e-01
1.750562717653741107e-01
2.424023091869905999e-01
3.068349068428722903e-01
3.048250599666058047e-01
3.864823682308880515e-01
4.704874907213789093e-01
5.352032052038815380e-01
5.839799302718291507e-01
6.282246172036427545e-01
7.360098191916599752e-01
8.189192276185871533e-01
8.612423751417664919e-01
9.728304410459405194e-01
1.044746680068980416e+00
1.148092393297176939e+00
1.133645207405849398e+00
1.219826081944397789e+00
1.252959446466403115e+00
1.207062172930261301e+00
1.177309271914014133e+00
1.179283821937748389e+00
1.119980945656705140e+00
1.123244659537316670e+00
9.689004442193680511e-01
9.677884010226167621e-01
9.424533407226649562e-01
7.664622138311076860e-01
7.388816156652981970e-01
6.510594100281622554e-01
5.854389524303662551e-01
4.754876936264340603e-01
4.256851353683728245e-01
3.565580505858214067e-01
3.576758120506535743e-01
3.045195099798866933e-01
2.357947034753951343e-01
1.986910010874063937e-01
2.005268339908369557e-01
1.079663066722302001e-01
1.709494957354900369e-01
1.376826974763174227e-01
1.750670422024186990e-01
1.389219443195832682e-01
1.054831994590989808e-01
1.151119382705618477e-01
1.287727522901132293e-01
9.193731203605340352e-02
7.730066335898641561e-02
8.976903241861017291e-02
1.484935269711517292e-01
1.512619329656415823e-01
1.338128833752913194e-01
1.329892936357448818e-01
1.656535892170216406e-01
1.624262478341834681e-01
1.522121419811433840e-01
1.498179655632458640e-01
1.615036382170698115e-01
1.800478297436374220e-01
2.111431834628771653e-01
1.951093251172489329e-01
2.041875761394962296e-01
1.855213523576758616e-01
2.246074284774212393e-01
2.271195354937506350e-01
2.121315757071694508e-01
2.490026982134010969e-01
2.751505301456124153e-01
3.109332913607931181e-01
1.958173212546720221e-01
2.706100004920851121e-01
2.390903108772183538e-01
2.757273742747206047e-01
2.566980328730217309e-01
2.687857951742199658e-01
2.611526954144141044e-01
2.986126644774016459e-01
2.894169739334731539e-01
2.662441394394762240e-01
2.595201386926597187e-01
2.925609230692075569e-01
2.496806517374710599e-01
2.412090857888800621e-01
2.874311930365117118e-01
2.721523956758223894e-01
2.627522866276754687e-01
2.391803051077489306e-01
2.867280541002615313e-01
1.722984084121148007e-01
2.438602581244672107e-01
2.404013326238105264e-01
2.328651092193993466e-01
2.515103667324845582e-01
2.726146378071712673e-01
2.699308772903592502e-01
2.670766152134553817e-01
2.117339537273104089e-01
1.937927884307833193e-01
1.741995798669593587e-01
2.375628816016199796e-01
2.152670712839853950e-01
2.349849721317238682e-01
2.226842844915810637e-01
1.636564331426060004e-01
1.838218028751776034e-01
2.220723515975359663e-01
1.554754152014664881e-01
1.785797437567201995e-01
2.114686335661667693e-01
1.485556736575041892e-01
1.319018846863030947e-01
1.512327699031328632e-01
1.729033183832579257e-01
1.080949379060982679e-01
1.412936241875189514e-01
1.242738156198208849e-01
1.420257874980455637e-01
1.287535878512590104e-01
1.517645013326835157e-01
8.653723024836100508e-02
1.323880943783053710e-01
5.079836445321729566e-02
9.757276772947134913e-02
8.478055292615768734e-02
1.250959195865906648e-01
9.022088722586543708e-02
1.125697917743068710e-01
8.923223978650625388e-02
6.821371608165409384e-02
1.050318257117043019e-01
7.177780357637573994e-02
5.052732393098983976e-02
2.131238855757540407e-02
9.182625161440911843e-02
7.867687797787292769e-02
6.980134081846905980e-02
4.958482571868477740e-02
9.623621870687892876e-02
6.906063640131139547e-02
1.040632065882210050e-01
2.924644021329464438e-02
5.893280120875080130e-02
3.316679448182503764e-02
3.159935608683017705e-02
6.160889484001658145e-02
7.212909085876273441e-02
4.290508363359471500e-02
5.004767122347855701e-02
-1.110590315564931665e-02
5.792527243447710694e-02
2.749695948523697697e-02
7.292425613089885406e-02
3.691033382896272141e-02
4.975966624172728503e-02
7.357259998573892346e-02
7.002435159608588755e-02
1.543784006786526330e-02
1.234902404116955954e-01
7.048689007288808095e-02
3.497141654652755755e-02
-4.496024260538869499e-04
3.187240284000832091e-02
7.154929573939493304e-02
5.270728968005367054e-02
3.814690896079915572e-02
2.299448837810140478e-02
5.797900315114948300e-02
5.081642574414477198e-02
5.129622723025115127e-02
8.833560910011301059e-02
1.732003298622389678e-02
8.111353769956497484e-02
9.972114690356773115e-02
5.736361993179543706e-02
9.121327380809307606e-02
8.899426316860063746e-02
8.419529548687379461e-02
1.000800576706027123e-01
1.194263325466078662e-01
1.105512821853761180e-01
9.678385563977873196e-02
1.068019636766063818e-01
8.050013044120124528e-02
1.058009450483803626e-01
6.800846888298711646e-02
9.469125184349438951e-02
1.018437706306139501e-01
1.171713549819569516e-01
1.601186741614464837e-01
1.271985967580103738e-01
1.535582681622540413e-01
1.727068382038087768e-01
2.283893491272667442e-01
1.426720216871677493e-01
1.378939998434340897e-01
1.249249207277111778e-01
1.882941852703570729e-01
1.800118698804102912e-01
2.105604726791178438e-01
2.052197556960547731e-01
1.849734274214756002e-01
1.885868443048070997e-01
1.694725436954407916e-01
2.210407200053985111e-01
2.809281102299705513e-01
1.934339070348274348e-01
2.048556190416922218e-01
1.698355555163775787e-01
1.874986913555526935e-01
1.938510387485461728e-01
2.234138654740990826e-01
1.876960720485917888e-01
2.106720840192730371e-01
1.474167430407451740e-01
1.727339971157115239e-01
1.311809214240232391e-01
2.012220701526672983e-01
2.128925925979592848e-01
1.851440368149834814e-01
1.924713163080733758e-01
2.537216088087612675e-01
1.720451317306666283e-01
2.776830888230065741e-01
2.788351509602662315e-01
2.912432742391327101e-01
4.293402573328602423e-01
4.600822212283583457e-01
4.365015989772931260e-01
5.740550901274598106e-01
6.514508744133590268e-01
7.762567799417698922e-01
8.260659478803756839e-01
9.137998990701455826e-01
9.574968386291025091e-01
1.032678059227962297e+00
1.080756399152766223e+00
1.177010818094942346e+00
1.142114466392304628e+00
1.223876724305809294e+00
1.229206572429269340e+00
1.231354611253690612e+00
1.193765930219599536e+00
1.247094221962910865e+00
1.186830312395539266e+00
1.128131279509072105e+00
1.058266603291566632e+00
9.344416852556085562e-01
8.761478622346741130e-01
7.675508163464170863e-01
7.407253596290528375e-01
6.672399061289294719e-01
5.784377290167951324e-01
5.577223048613775269e-01
4.608834971091037569e-01
4.032473658018640439e-01
3.770955669701308577e-01
3.681834597971508916e-01
2.590881931472061583e-01
2.201207435719573224e-01
1.982590501527367599e-01
1.912449794462801889e-01
1.734783819317120557e-01
1.964447251589810928e-01
6.661790502639318434e-02
1.457582476629430412e-01
1.504996574518766561e-01
1.871208352170603273e-01
1.414553361698733247e-01
1.241941607930262953e-01
2.335725355300279360e-01
1.439190055799934309e-01
2.014618698309270650e-01
1.345592833530113719e-01
2.122062045165413746e-01
2.203353719596319316e-01
1.828219567974728454e-01
2.251611009821823939e-01
2.433191873605810018e-01
2.394051743627061135e-01
1.999161854716392517e-01
2.495730504004586014e-01
2.219089357522157080e-01
2.458211736750247067e-01
2.152632595181971642e-01
2.751429266197280565e-01
2.553790812296272139e-01
2.304844921574876471e-01
2.720151838260132515e-01
3.053693959327438701e-01
2.621742666843335234e-01
2.906738122199905572e-01
2.906785903287726347e-01
2.964053073362417634e-01
2.854954560502727112e-01
2.554705949618052419e-01
3.414030780928372089e-01
3.176616706795898359e-01
3.156161948620659352e-01
3.417318189988534094e-01
3.310038696867882435e-01
3.268088802590745079e-01
2.940652489140673786e-01
2.906321629897541947e-01
2.571440941861437013e-01
2.999755392438958612e-01
3.365128566641572005e-01
2.829128901595412970e-01
2.903361543070780426e-01
2.378624909209709481e-01
2.675435334348224004e-01
3.158684129785079842e-01
3.206294281814002778e-01
2.665377415750759815e-01
2.906860990210156093e-01
2.655283483594818583e-01
2.599209309380535182e-01
2.931151201781783122e-01
2.721907940429567074e-01
3.140211407371224506e-01
2.666569550069457506e-01
2.244292542292071480e-01
2.434518451594013255e-01
2.580840654422245084e-01
2.802200989327280900e-01
2.676356375296655710e-01
2.400402475440781558e-01
2.747105155400927923e-01
2.635901488872868792e-01
1.789608631067642619e-01
1.604359126163674987e-01
1.655773537199546341e-01
1.359880239664656154e-01
1.971682285912970123e-01
1.395855454704865717e-01
1.774007283927182543e-01
1.573165111294266005e-01
2.435081846094468982e-01
1.579290355094904175e-01
1.530577213424862970e-01
1.597228450087669616e-01
1.384486920369469298e-01
1.514318507968578364e-01
1.605892461160266793e-01
1.242679835234440089e-01
1.343770463130994908e-01
1.314856350734626977e-01
1.412161666623368284e-01
1.295369544530436956e-01
1.234768729620832062e-01
9.146879223711651408e-02
1.374577015149705261e-01
7.858671746334564001e-02
1.026621084759911096e-01
6.882251571334044304e-02
9.684130301433813148e-02
5.467407975251414864e-02
8.700496663370903272e-02
6.707384827884922684e-02
6.808389499595243755e-02
6.595203872961341585e-02
6.892025594358545948e-02
7.494036683540133970e-02
9.476696817236143766e-02
7.830172342871871694e-02
4.327672000458751556e-02
6.296299938632501925e-02
5.278654336307074535e-02
3.939065060100576526e-02
9.280989049994586848e-02
4.398239725415489798e-02
5.481848562131685920e-02
5.175026151763941623e-02
5.203348494677924319e-02
7.379483320995472440e-02
3.882965796195401997e-02
1.062141552679211343e-01
2.300867616922694023e-02
5.251781899597020298e-02
5.164305922196634618e-02
3.894069953415852520e-02
4.410769590462139400e-02
1.126787505681961787e-01
5.397910554112096693e-02
1.092548941123071687e-01
-1.057307987375771807e-03
9.248887384096454722e-02
7.114647659368425470e-02
4.716438876116878232e-02
1.084064562538943344e-01
8.514893672979439998e-02
1.676421367131147172e-02
8.765410796457291653e-02
2.829967256362911701e-02
5.669442307945668502e-02
1.277310652365990229e-01
1.142437604936300810e-01
5.483500632573153760e-02
8.018775571885547460e-02
6.538831698441172069e-02
1.016404014348208096e-01
5.876699556390620194e-02
1.091135764737487801e-01
1.085566194839102383e-01
1.012544390961467866e-01
1.223448472932344849e-01
1.448796718675298689e-01
7.603809260279906224e-02
9.757719190406266563e-02
1.365978811662853509e-01
1.385563898463617605e-01
1.567535393857144022e-01
1.253934787348805202e-01
1.780486993138480634e-01
1.975129297395876726e-01
2.299734084338422857e-01
1.489080252156195217e-01
1.029174684564431175e-01
2.017085521536932102e-01
1.913011554592900509e-01
1.825135559454612588e-01
1.748765245834904281e-01
1.962750636168038021e-01
2.091285737130316735e-01
2.138338239950471620e-01
2.127378285058537100e-01
1.997663409926697942e-01
1.682090289950834150e-01
1.759536476082254608e-01
1.931120822539725279e-01
1.681637442341225308e-01
1.486447188868331715e-01
2.345454457360950928e-01
1.751151948674961600e-01
2.268096839268993470e-01
1.428326933127318510e-01
1.375367168986214028e-01
2.312877135723430122e-01
1.966724386768529120e-01
1.618593619253624050e-01
1.829176082464577247e-01
1.101721745786586881e-01
2.191111849102003184e-01
1.801770101714231520e-01
2.427956267569653381e-01
2.518020584818265739e-01
3.985083601682615217e-01
3.593410528089588940e-01
3.978374322511341599e-01
5.311982533261024875e-01
5.937765331876072583e-01
6.187006144933405727e-01
6.898505239155086066e-01
7.434097460062105700e-01
8.650118733026835871e-01
1.004172672012797918e+00
1.035810983863808099e+00
1.052238562613649675e+00
1.100105684945959172e+00
1.150945265205612245e+00
1.179102463883881402e+00
1.285810298791556949e+00
1.252194597703160994e+00
1.230269395583655889e+00
1.232721227942441988e+00
1.174952501394111781e+00
1.126455694559016507e+00
1.093223723671218561e+00
9.924637009122311282e-01
9.447734852057186883e-01
9.245032069018942478e-01
7.705114335958236360e-01
7.041962944138400182e-01
6.023987316219667765e-01
5.591965777977044860e-01
4.162908437020902408e-01
3.952978754831060204e-01
4.174354235240595457e-01
3.516486434517010484e-01
3.006097852764036404e-01
2.614089745085489414e-01
2.040989195852302429e-01
1.800745503683059967e-01
1.862995441851568457e-01
1.385243810710559687e-01
1.400704231278942502e-01
1.679255203948104014e-01
1.220843316384497140e-01
1.232088173620685401e-01
1.720941066094699989e-01
1.478993795285073465e-01
1.658511186114804414e-01
1.739527042292041692e-01
1.038809584360327332e-01
1.292182990072062998e-01
1.774783527451808118e-01
1.880839866293326779e-01
1.391800859275338365e-01
1.986729225775899221e-01
1.511620110730411415e-01
1.560877769139263349e-01
1.912958303610600708e-01
1.934069471484004543e-01
2.062214395393305588e-01
1.954633543510479465e-01
2.595047946413447937e-01
2.392075614427824071e-01
1.832971548200137690e-01
2.688562446550761265e-01
2.038971344400170582e-01
2.607273600215055387e-01
2.396604501606249271e-01
2.461059810907495482e-01
2.679161889763639892e-01
1.918405279862238633e-01
2.146573506899345229e-01
2.877565770928997013e-01
2.515645094599832654e-01
2.475749564080461373e-01
2.803430338373240072e-01
3.233157213609199054e-01
2.552771120884227973e-01
2.890472176570266227e-01
2.679661972971853490e-01
3.036953842868017062e-01
2.574007118585578402e-01
2.586042084097922023e-01
2.561478001707863661e-01
2.516305059297708202e-01
2.692804258745147838e-01
2.494672719389451343e-01
2.276741510116070677e-01
2.376992862376475779e-01
2.781901185199060489e-01
2.154016046236864046e-01
2.327086000260155940e-01
2.235424829124020296e-01
2.612765913313723765e-01
2.235300898324577012e-01
2.046031957982498151e-01
2.726483149138845818e-01
1.755260617715919957e-01
2.676513948928395115e-01
2.594063789603805459e-01
2.094707427458429583e-01
2.053766574524557020e-01
2.499421751824978666e-01
2.419778265899055480e-01
1.587294907782764442e-01
2.193358054360495246e-01
1.930206385922992873e-01
1.657902299525060852e-01
1.445706895577435480e-01
1.557843355671957308e-01
2.114832479723549874e-01
1.457247761029518973e-01
2.144253756977275716e-01
1.285269732124276199e-01
1.417241290927945263e-01
1.189507483894203799e-01
1.571264456311739499e-01
1.161858577870071435e-01
1.243282211670249382e-01
1.252430781141285476e-01
8.834655409515042301e-02
7.468008489584165854e-02
5.604425404883815742e-02
5.292412792601004085e-02
1.127774030296626456e-01
4.461292619210435739e-02
1.156778445020535395e-01
5.851181696841208091e-02
6.267939550809706328e-02
5.966035762155018352e-02
7.598106392325043590e-02
8.185650940336401671e-03
6.225861434813421275e-02
4.352847274781375397e-02
-3.615485459678519087e-02
5.179196276233181961e-02
5.885292697172615772e-02
2.792036018543409340e-02
2.119758459507661841e-02
2.192346198607391522e-02
-3.923535899105273436e-03
7.577616720559315899e-02
6.570810193616449801e-02
-4.737670936862514032e-03
5.641619024185638015e-02
7.196626093122103496e-02
5.863062734952044497e-02
1.416925197694531707e-02
7.453911564675202994e-02
2.974007471803296471e-02
5.133327493392982055e-02
5.687049639694186781e-02
-1.568974723620357101e-03
-4.007421323132653174e-04
3.219273263912145189e-02
6.668909799244512882e-02
7.454688461767328481e-03
7.403592153320770475e-02
8.751114334309948589e-03
3.186130727280489516e-02
5.945429721269856332e-02
1.613967055671164039e-02
2.119692615251165396e-02
4.513697910033689226e-02
-2.789801104071037985e-02
2.644778065833010283e-02
7.540332772214576595e-02
2.042698086758472711e-02
-4.271348946121763732e-03
4.977662704977102448e-02
2.598825567548725818e-02
5.307637168527209320e-02
-1.420406956270100877e-02
4.175214162923638478e-02
4.391315239084222360e-02
7.513939271840289202e-02
8.083903950861759391e-02
4.302399506752935254e-02
1.661485949892364117e-02
7.819435201441454764e-02
6.242078614468229980e-02
9.293462355246784323e-02
7.384940037547985114e-02
7.864750801850206585e-02
1.071824174838503230e-01
4.323298336033160050e-02
1.003040465102508633e-01
1.172838932796472500e-01
7.684487865729411338e-02
7.045302054570212746e-02
9.486454227376552029e-02
1.209367180732418556e-01
1.491056919462012964e-01
1.170589711569465924e-01
1.633507750076870768e-01
1.227913256529240271e-01
1.118849263050505360e-01
1.256591223243818944e-01
1.225970485082657213e-01
1.748409261334865628e-01
1.456900970817437968e-01
1.889745640290569906e-01
1.389253723441356003e-01
1.603746906264305605e-01
1.352429380703233375e-01
1.703632258685238710e-01
2.084218965778754373e-01
1.178127284607273506e-01
1.812540222454619432e-01
1.405911303836926418e-01
1.640396780960169942e-01
1.058683093614773002e-01
8.493088222593805914e-02
1.502468137893262778e-01
1.400062188147522535e-01
6.836799931100816241e-02
7.611900546015369640e-02
1.791427728900981398e-01
1.661518878292671531e-01
1.296624709586963187e-01
1.650569550444756228e-01
1.752045843668419978e-01
2.302029001396418417e-01
2.743130865534919027e-01
3.281091252213920728e-01
3.448369465049333504e-01
3.963067221406310070e-01
4.746758407672067581e-01
5.065058690572263878e-01
5.565692246774800456e-01
6.485528292805300410e-01
7.465648843848147198e-01
8.187134581500097319e-01
9.669629509699442238e-01
9.397544825437603722e-01
9.872656536099758684e-01
1.115453574222559308e+00
1.125188627734208691e+00
1.130585686616958352e+00
1.222215252721138956e+00
1.158911564693530405e+00
1.170177615713726249e+00
1.159397808029302812e+00
1.119842444170588092e+00
1.095603106839500240e+00
9.860953914178578472e-01
9.474602657114992166e-01
8.323650636936305025e-01
8.068033291455747325e-01
7.342858274124679507e-01
6.530577119464240354e-01
5.316617919441437579e-01
4.390237658302065804e-01
4.422266447521925326e-01
3.460764569845399263e-01
2.431336716114967933e-01
2.390383507251578610e-01
1.993878035799317161e-01
2.029230069488806021e-01
1.717743240837388274e-01
1.505257464634399689e-01
6.433875766317742606e-02
9.421260959025155868e-02
8.841801548040591208e-02
1.112926350383491580e-01
8.771114896233517255e-02
1.612732559764795681e-01
8.376768336618828359e-02
6.170384485706788269e-02
7.100003323687381629e-02
1.025077732406611403e-01
9.786257888856822462e-02
9.547081817162124395e-02
1.350155807771806216e-01
1.020531412090620593e-01
1.560235755227692978e-01
1.040249946275597359e-01
1.330732293755449158e-01
1.524025163604791899e-01
1.057906338373499067e-01
1.757841421209687949e-01
1.216024039767300696e-01
1.450388113384644129e-01
1.389203245265568654e-01
1.873257353967633931e-01
1.807534840942842391e-01
1.886745552448549357e-01
1.766570978132807057e-01
1.582659768886601759e-01
1.536455026891849762e-01
2.550868523822085177e-01
1.908349835852013177e-01
1.963603597127877576e-01
1.979261033284948623e-01
2.047417415464301560e-01
2.131185601815517028e-01
2.181120968283915829e-01
2.247402082701295267e-01
2.780282188680893163e-01
2.366169756979073502e-01
2.031449134817277513e-01
2.335106239731370992e-01
2.419727386724200291e-01
2.446207508354765192e-01
1.819538302715497102e-01
2.505531132701510066e-01
2.628337365676560178e-01
2.216694015306532040e-01
1.840406614820722653e-01
2.566323052522300752e-01
1.934639351402146767e-01
2.004703189387267159e-01
2.183644559347312775e-01
2.186873669689994304e-01
1.875405458795046387e-01
1.755084999485418962e-01
1.851364537074029482e-01
1.802716238382801317e-01
2.042331764923084880e-01
1.931212623719271992e-01
2.221710050561865046e-01
1.598347739711564186e-01
1.714238521080877764e-01
1.363194943648295132e-01
1.029731134856222974e-01
1.762112694266054214e-01
1.177931223680742240e-01
9.929623802711062819e-02
1.352878192081155284e-01
8.399272807356616966e-02
9.863002847811212781e-02
6.483912604497241161e-02
1.053522508129986490e-01
1.205710022511940621e-01
1.032531113887319163e-01
7.854135653643350146e-02
4.514184735811388460e-02
7.429950974440177602e-02
4.300073006166330036e-02
4.422316477889855213e-02
8.841772890926566375e-02
2.056094776258232670e-04
1.173413817531406000e-02
4.499483673766672964e-02
3.757600585651869191e-02
3.909616392539325830e-02
2.751126135427182928e-03
-3.385081845280437512e-03
2.396350891649461773e-02
-9.787828596291500705e-04
5.353129875020711664e-02
7.076087442879791523e-02
1.204795647456437246e-03
2.896112999693157414e-02
-4.977457433251297053e-02
-2.052409662204011595e-02
-3.014738835644852066e-02
1.049848832496448614e-02
1.022162449860598843e-02
-3.794097788874606358e-02
-1.633442250695812253e-02
5.913488890843490720e-03
-2.802972796022728391e-02
-2.744722999641941580e-02
-4.107799579693975633e-02
-5.308235281322390420e-03
-3.395794809843580286e-02
-2.695558438655585448e-02
-3.987812388928453633e-02
-6.353137799198625701e-02
-3.569300557193253592e-02
-5.644860749427857427e-02
-4.796459146616936786e-02
-5.401947038122945771e-02
-3.911129769009848156e-02
-5.372090985993600160e-02
-4.695956431514346219e-02
-2.492887924000481217e-02
-8.280148644942189606e-02
-6.863181608026744374e-02
-8.725219335407284615e-02
1.034305869326193617e-02
-2.122710988772023161e-02
-1.118045535364877927e-02
-2.453252929737433780e-02
-4.878511027706111669e-02
-3.460435803592788045e-02
-8.880103949155063181e-02
-7.972660194133014688e-03
1.625651041632911187e-02
-2.204447726705842381e-02
-6.677805845565619458e-02
-4.522265370589944461e-02
3.179999417530323530e-02
-4.894971484717351717e-02
-2.113190580864273208e-02
-2.599904505904499299e-02
-1.931239163116229077e-02
7.777705048193639392e-04
-1.175693504657672472e-02
-1.725368949961204185e-02
-1.500711343142076271e-02
8.056343545922391158e-03
7.907190279015106904e-02
3.425489206986743335e-02
4.194814495080285977e-02
1.134539994474515617e-02
1.025789594397773924e-02
1.542220708802381768e-03
4.356108951157235121e-02
8.395872457683378753e-02
5.112173404815758410e-02
4.027712283575905078e-02
1.134402494262500005e-01
7.219862481815667032e-02
1.149980604801009165e-01
9.001178239117932356e-02
6.026222536712498579e-02
6.235879892288401227e-02
6.700460810818129054e-02
7.357348524202102225e-02
1.133282187041205757e-01
1.172562731576643341e-01
1.062359279817593899e-01
9.260251484063919403e-02
9.752971646249579407e-02
1.178933848906339732e-01
1.175921181082316691e-01
7.871873201130050179e-02
1.179290670800247631e-01
1.317417973570081668e-01
8.861626938157005084e-02
9.130089758944076594e-02
1.041706832794454252e-01
4.621819794185033636e-02
6.484194758286948579e-02
4.231479167350343101e-02
5.116409690459025605e-02
9.935508368178969096e-02
1.054312294585811050e-01
1.441841385379355467e-01
1.220300003406528527e-01
1.458906391269932656e-01
2.123932144923049992e-01
2.239226810293364622e-01
2.212074123459485953e-01
2.466680990466628698e-01
2.936984814476385486e-01
3.425820506177734703e-01
4.552986723456089457e-01
4.619582725438092230e-01
6.134502463117530446e-01
6.914641096340439219e-01
7.298795160948111649e-01
8.028837657473354428e-01
8.357345315107709283e-01
9.537946011622865372e-01
1.085849453503671347e+00
1.088942860117683153e+00
1.051348610590074450e+00
1.106283852637760523e+00
1.172850251758869033e+00
1.144677186633328736e+00
1.146878525102690727e+00
1.052890311867196171e+00
1.028416975541755374e+00
1.019999808016824439e+00
9.821610056915747178e-01
9.167452482229400124e-01
7.724483852226408098e-01
6.939272622506151844e-01
6.419353583354051596e-01
5.432838378205169239e-01
5.236089214654269242e-01
4.303691713035780464e-01
3.201671528448235549e-01
2.909632300012672812e-01
2.326451222394214369e-01
2.144000804678708738e-01
1.925898347100961083e-01
1.545725303230870984e-01
9.456559655498766870e-02
5.386831056471821921e-02
6.930654513214024037e-02
8.617296961050099902e-02
9.531129578002436875e-02
8.351670843623776319e-02
4.608397211282531936e-02
3.887981130848471023e-02
4.862324094055314044e-02
9.785475067102902824e-02
3.953829449280209934e-02
1.393665222453672747e-01
1.056327730805796811e-01
6.289276193155193817e-02
9.532922276079675017e-02
1.157632625860022385e-01
1.396069272976368514e-01
1.137826510897016197e-01
8.710832346046114283e-02
1.104939474293952645e-01
1.406247203889861297e-01
1.055371609186328274e-01
1.516256370224217664e-01
1.400856969954832609e-01
1.539199224546024258e-01
1.121167304740381954e-01
1.467240812665077665e-01
2.333728279088311819e-01
2.136563366885174120e-01
1.694744813124276495e-01
1.771442916560019565e-01
1.989140361035457993e-01
1.991685144450821288e-01
2.023986102539225285e-01
1.654474789259563483e-01
1.718072759586173615e-01
2.199400192963882616e-01
1.788854718487619122e-01
1.916549339394315044e-01
2.353682573652622623e-01
1.868552225943626577e-01
1.616708492084603099e-01
2.342560008050921516e-01
1.596842042760655278e-01
2.222442576498551425e-01
1.345382904518017120e-01
2.278933845170121042e-01
1.917093555710875641e-01
2.024843487840691236e-01
2.465232286314992804e-01
2.637038840989175958e-01
2.456180771762449810e-01
1.155508698391033845e-01
1.501480750236492134e-01
1.481758529449693218e-01
1.646786691727901153e-01
1.185313037452756513e-01
1.256604310758176468e-01
1.766308675305230391e-01
9.773886255177587079e-02
1.315594110109215009e-01
1.179578498195890945e-01
1.368630901624491858e-01
1.423946093026221271e-01
1.243783842068856560e-01
1.011903192355456393e-01
1.260544391740023862e-01
1.400724288669277784e-01
1.712525550995563084e-01
1.548948220947392873e-01
1.679038480921407339e-01
6.395761373176303555e-02
9.224934466047318704e-02
1.370714268962502924e-01
3.395391215149616559e-02
5.596574973907944561e-02
6.910635697042982750e-02
5.027027316837645587e-02
1.063877325123104012e-01
2.819276431439116104e-02
8.486688713418430452e-02
3.443701589277964326e-02
2.305778261099336590e-02
3.588323717743542585e-02
1.890152521020801307e-02
3.512435858172833353e-02
-4.122455554169263126e-03
-2.893290273271698770e-02
-2.242616748901594959e-02
2.947253841448008171e-02
2.399044519878483495e-03
4.298428965854034223e-02
1.938418884163817940e-02
-2.023143509953507363e-02
-2.364572811225617438e-02
-4.630540176355137788e-02
-2.439947503047150412e-02
-3.511010581868867497e-03
-2.161691645240751414e-02
1.198761350500182621e-02
7.781559268201378166e-03
6.382123891022287165e-04
-1.501089678076883427e-02
-4.422652696743813172e-02
-1.784171014849347467e-02
-7.348040212467044086e-03
-3.820315191784419417e-02
5.221667106060191160e-02
-5.044745388266317493e-02
-4.937686023528352341e-02
-8.774583782874764704e-02
-1.009493228729642644e-01
4.830619180948743374e-03
-3.109473143536433531e-02
-1.500475442922555303e-02
-2.092349949274296961e-02
-2.671467607820359608e-02
-5.540124874387549608e-02
-4.341442998803875242e-02
-3.648384059239917487e-02
-1.022654622853812756e-01
-2.918351541911406652e-02
-7.266675980164068183e-03
-5.209204911894373125e-02
-3.208383938972661498e-02
-3.778017585129374994e-02
-6.566718864204211525e-02
-5.041539336932340798e-04
-4.119324093923390495e-03
-1.523144820306255101e-02
-4.492588284892545802e-02
4.050843014503481554e-02
-4.720990996350794833e-03
-2.430569743051636672e-02
-8.186554609731777621e-04
-5.304515279031728203e-02
-5.582546006443712266e-02
1.650774029162338508e-02
-6.996475908553248524e-03
4.795721506907783815e-02
-9.595418532399077605e-03
7.066747055078771711e-02
-3.427113329377861478e-02
2.956726676023546663e-02
-1.027465487972388514e-02
3.694134734258546632e-02
-2.605344599555831087e-03
7.086180800049693418e-02
2.720661775218664868e-02
7.930060580926082126e-02
1.207979223824475201e-01
1.584335600857939702e-02
9.149611637995082314e-02
9.424269819912153845e-02
6.066883793111333550e-02
3.986649546897906571e-02
1.041742304986334744e-01
8.410726694174805451e-02
7.099167782713083907e-02
1.292243340223018511e-01
8.065836188523324568e-02
1.046182059941295622e-01
1.400276108413663345e-01
1.192839320634921929e-01
1.245958242493507701e-01
1.169545126481157105e-01
1.249142083811303761e-01
1.364467539662656548e-01
8.427535219028597924e-02
1.595133869326148812e-01
5.940347165999153300e-02
9.115228680569904818e-02
8.890620300320636882e-02
9.913473099549807710e-02
9.207969924581121957e-02
1.294837521559901727e-01
1.561115320540075180e-01
9.841694981296411626e-02
1.039769034258340441e-01
1.370085869781590415e-01
1.006430138720507128e-01
1.486899587144274171e-01
1.481720045722338119e-01
1.596360394605860211e-01
1.816639203349637577e-01
1.487613325317401758e-01
2.798257058749211157e-01
3.033291186849197962e-01
3.426197938464721759e-01
4.596872881027420088e-01
4.474223270673815533e-01
5.664742760564912549e-01
5.955294884999107197e-01
6.718313256861138116e-01
7.700963481096134711e-01
8.309837347240002225e-01
9.487452913057345949e-01
9.830341077351310020e-01
9.787444183240509021e-01
1.127396356133304689e+00
1.117950236869786895e+00
1.141604673018206784e+00
1.090134713364377061e+00
1.227949577830121930e+00
1.095218101376907782e+00
1.079757930416138212e+00
1.076703163824676013e+00
1.032866654580532728e+00
8.854253770932155598e-01
8.802818588405505462e-01
8.051398174372126348e-01
6.932549785620748528e-01
6.034502575736457874e-01
6.217743728301972084e-01
5.228036038893811854e-01
4.158806754340752532e-01
3.192782558473822307e-01
2.870712393337443435e-01
2.239499954995464726e-01
1.817674844017428404e-01
1.825328066496081370e-01
2.027967959550399379e-01
1.335793380378963446e-01
1.082949252516189065e-01
1.072810719810670665e-01
9.458935252098187030e-02
4.974070757782836361e-02
4.396861777704960672e-02
5.859902429024767267e-02
1.234978352758992204e-01
4.972027232482563452e-02
5.218336470788564191e-02
1.330236571412681257e-01
6.465091726670560424e-02
8.795804689193609249e-02
9.258928652884709787e-02
1.259730282083299790e-01
1.100177739481628114e-01
8.423300487993706787e-02
1.591207103382068500e-01
1.495297672891445218e-01
1.596736823653585047e-01
1.275952829195641236e-01
1.031556517918427729e-01
1.565422147093951666e-01
2.108675596445095946e-01
1.856999343667761204e-01
9.085357062756783952e-02
2.278118494699961083e-01
1.891380133405144437e-01
1.487362727859857792e-01
1.621628070511479114e-01
2.210267353709498839e-01
1.374405082745049356e-01
1.983465055916455999e-01
2.390400917574784512e-01
1.840761814096844029e-01
1.993608507064154323e-01
2.105857795560320267e-01
2.366144570691611770e-01
1.988690394137974660e-01
1.891484991150791939e-01
2.517013779676503527e-01
1.871389961240360056e-01
2.173988395433866794e-01
2.458256319069584972e-01
2.604445250753011920e-01
2.271486178184425053e-01
2.608231819287352149e-01
2.525572863534543133e-01
2.317836468729289612e-01
2.263488024520747821e-01
2.152006005210471140e-01
2.562320751577046307e-01
2.310224901615332838e-01
1.644021269536414254e-01
2.502309310409028265e-01
1.639443682845101169e-01
2.464158023237184858e-01
2.363030724208484146e-01
1.926304621828532626e-01
2.068358820109676421e-01
1.292307412813574752e-01
1.748499993823608711e-01
1.758748526818410540e-01
1.748454722254722260e-01
1.531589655812902739e-01
1.598380826717294978e-01
1.843207586869177739e-01
2.024411509366004780e-01
1.049202068618998729e-01
1.021855235391814498e-01
1.075963609365878232e-01
9.533021779589448408e-02
6.297638063131751063e-02
1.543796966975107265e-01
3.735835808993568513e-02
8.110474492791744372e-02
1.523488459927656857e-01
9.758757193141261166e-02
1.262044820953088231e-01
1.106168158982222260e-01
5.431771493955567243e-02
6.003268552417660026e-02
6.048994117297974704e-02
9.615961792515789752e-02
8.349670017905584662e-02
2.220544999609239123e-02
1.345420416570714817e-01
3.870817312840561797e-02
8.005429345936149188e-02
5.827521697664360401e-02
8.326074563817435770e-02
3.778187704659372037e-02
2.198972832544424799e-02
1.055775729892002510e-02
3.203957998032336274e-02
7.940868514721904914e-02
3.185350615928156381e-02
4.892029375438315675e-02
5.354218569885685342e-02
-3.319213439385912748e-03
2.707286344056863622e-02
-1.137234626999904241e-02
3.283181140753568122e-02
-1.179150367892886977e-02
1.522757433145124038e-02
-2.223940005168386844e-02
-3.018723493924458257e-03
-1.446994446678719765e-02
2.088361527523387162e-02
4.056221303975236087e-02
3.191033235738606477e-02
1.604355024893300979e-02
6.443172975148617719e-03
1.461311049437348172e-02
-3.837577232380189052e-02
2.089411835871141793e-02
-3.460523574666676816e-02
-5.391223574103871929e-02
2.887438179693064058e-02
-3.371160634282476670e-02
2.337183866752406015e-03
3.099479401809832751e-02
-5.984459062319531612e-03
5.862403867205779467e-02
-3.165484636034170129e-02
1.385123990225962422e-02
2.854868769993822858e-02
4.117732782670079084e-02
7.373098916504652878e-02
-2.367951057670101764e-02
1.840099460512300764e-02
8.195891918110717600e-02
2.570762080551844408e-02
-3.486060640294696630e-03
4.814332029498073068e-02
8.580312756317061418e-02
3.522276775759612677e-02
-2.710189551086468820e-02
4.678372307827446952e-02
1.081777880435738914e-01
5.541086678123073594e-02
8.022696260418734487e-03
1.372773081728822786e-01
8.833766005887673523e-02
8.451519999999784760e-02
8.508205552202072197e-02
9.973889462400103989e-02
1.438341303605056853e-01
9.789958427395861751e-02
6.478884342669108398e-02
1.189537284306732556e-01
9.668999452685085594e-02
1.414003602307555840e-01
1.155495675073114903e-01
1.036473613164442947e-01
1.906846907223962162e-01
1.845072770954876151e-01
1.425826240128439393e-01
1.147686424132827315e-01
1.623719642547560293e-01
1.174887148150716987e-01
1.540591345790996436e-01
1.645932571158501556e-01
1.855069684376146055e-01
1.488885637043387278e-01
1.009741231689967600e-01
1.365426589623136011e-01
2.051745395530803484e-01
1.332309497985052771e-01
1.610251258322913381e-01
1.031940660466470205e-01
1.823901447983084234e-01
1.939369355201718548e-01
1.195799268462674619e-01
1.924431029183348574e-01
1.114389602065898321e-01
1.427016271675444758e-01
1.945523460188861020e-01
1.210872613125811709e-01
1.551010813839688307e-01
1.238611992298405962e-01
1.823496592859601972e-01
2.008353122191371964e-01
2.370345027806120830e-01
2.711263034606062328e-01
2.640480979428529440e-01
3.328800588825884810e-01
3.217080965627407418e-01
4.366259151308423125e-01
5.469321737203707290e-01
5.544731883284372831e-01
6.484358785140943437e-01
7.018429908286376584e-01
7.763558685107517787e-01
8.619059804119069135e-01
9.676928621666582853e-01
1.005926804622640836e+00
1.120260516937413131e+00
1.151474673865324982e+00
1.206558020625296823e+00
1.161498241331088366e+00
1.215465831561470589e+00
1.199487243221293964e+00
1.178443142813966560e+00
1.177260384916933855e+00
1.170285306683804372e+00
1.071365718390860255e+00
1.046083879516419124e+00
8.986659493569223445e-01
8.613522121276429022e-01
7.550664201219524641e-01
7.489813316460361969e-01
6.176898234085655970e-01
5.378727544680084183e-01
5.390989851475095351e-01
4.000630363943494805e-01
4.015271855966805470e-01
2.892565109770893761e-01
2.871262145890921547e-01
2.355806043751674794e-01
2.321315256960985174e-01
2.677590523191913929e-01
1.971044315198408892e-01
1.474815640652869242e-01
1.930128366500815373e-01
1.299343226373855797e-01
1.808524992607623005e-01
2.118361155936262508e-01
1.158588120367787244e-01
1.397474995157341193e-01
1.357668992917804851e-01
9.850809510282758363e-02
1.693568645482457780e-01
1.572083483975291185e-01
1.585564296642733850e-01
1.110288310077332252e-01
1.150919659852890076e-01
2.062702015974100522e-01
1.236445205075838993e-01
1.953933786611570522e-01
2.001172857256407478e-01
1.947564623261907046e-01
2.105570731918805227e-01
1.735509294345008169e-01
1.872012284527719006e-01
1.989592557614613400e-01
2.206451715217080944e-01
2.038443260295148829e-01
2.625809122344785473e-01
2.092605194987091355e-01
2.331646647219557111e-01
2.605840213886645995e-01
2.395976063428887082e-01
2.652351299053334888e-01
2.344970638188086931e-01
2.579198057962587276e-01
2.749095349773419406e-01
2.814311396767909534e-01
2.785044984550620328e-01
2.908446983543164777e-01
3.018011250747846819e-01
2.790890831963299124e-01
2.698363240464872748e-01
2.902698137012852397e-01
