1.236360335242453701e+00
1.194939554469963916e+00
1.187742516509289858e+00
1.140322488173888260e+00
1.148437453533504904e+00
1.012911259266404906e+00
9.680029919059182086e-01
9.567206647521476759e-01
8.180760566813292112e-01
7.549599084046605402e-01
6.966663559287160634e-01
5.301834357542088982e-01
5.068261417295886195e-01
4.286147597355082217e-01
4.335852620394873291e-01
3.380199390564052053e-01
2.794683885884191588e-01
2.464743967765981314e-01
2.307384882863020015e-01
1.901187380517611047e-01
2.052707959976922958e-01
1.753497810244950550e-01
2.011919934015810874e-01
1.674063747408945924e-01
1.429628628607595708e-01
1.301466423173352205e-01
9.833885192282941501e-02
1.503547564299488326e-01
1.663063295951760778e-01
1.411069178126689583e-01
1.573555725818372997e-01
1.860514234403352618e-01
1.417450323340949114e-01
2.016524586716525735e-01
1.716451310247444628e-01
1.963290980419475362e-01
1.417984219782287836e-01
1.947968570026502033e-01
2.015398484505618870e-01
1.557165505859983423e-01
2.267401429757762710e-01
1.872070742211765226e-01
2.580598455314768169e-01
2.066112621870022092e-01
2.709772747412981242e-01
2.077142165560563192e-01
2.458437446187452524e-01
2.196867056297802379e-01
2.438995260429468459e-01
2.663761137040583371e-01
3.020935507060116820e-01
2.776260681558008758e-01
2.421020777078246589e-01
2.517058414854833615e-01
2.488517987284671606e-01
3.211954650503528463e-01
2.490153620146451086e-01
2.867247497718980465e-01
3.023331081460508551e-01
3.396459885959098868e-01
2.915967367576494107e-01
2.894630873884782019e-01
2.470194167020023646e-01
3.188364596998848333e-01
2.906639508291603002e-01
3.056130801720953749e-01
2.662498879227216397e-01
2.377543207781639134e-01
2.703815525264320341e-01
3.446899809312926610e-01
2.726006881221669786e-01
2.024083282738107226e-01
2.777811073870007363e-01
3.197718904382986227e-01
3.215705375196510896e-01
2.738399943972443795e-01
2.537246301934301118e-01
2.652277955254330188e-01
2.406912956475248389e-01
2.131164135958791561e-01
2.206173056772859908e-01
2.602051423975841882e-01
2.275007277657803972e-01
2.050030987127821058e-01
2.256898629176693483e-01
2.373734228709014904e-01
2.432934422287349741e-01
2.079033782004062469e-01
2.485235249193800955e-01
1.629385376156720910e-01
2.210320880990057080e-01
1.867173547109554632e-01
1.377911510502637105e-01
1.801360474818234636e-01
1.504642694320881824e-01
1.757057364944483724e-01
1.339486231909055858e-01
1.557914227119877870e-01
1.005089110586516316e-01
1.376367483731043839e-01
1.450959507170044294e-01
1.749145450629948639e-01
1.512176891605389040e-01
1.388338364645463341e-01
1.449918086321017874e-01
9.667007826273771309e-02
5.392471048157711222e-02
1.402984484519808894e-01
1.047145335027297730e-01
7.411158414217915158e-02
9.066473459528603951e-02
9.127250066738711032e-02
9.872207723182521710e-02
5.564150066734364908e-02
1.104281656621348695e-01
1.246790393283380566e-01
1.494775891698796599e-01
5.607130466148541742e-02
3.809885753290258997e-02
1.655861254441495789e-01
9.852055857897042135e-02
1.509878193705128657e-01
2.940923566708780051e-02
6.443265950458174074e-02
6.757258515240767427e-02
5.649447651282774041e-02
6.361027597805769818e-02
1.724439606962958199e-02
3.966017175760271074e-02
8.685894662258282495e-02
1.167916678684252640e-03
9.315532357578698575e-02
8.731856270136845177e-02
2.793010459977536553e-02
8.585040013018735428e-02
6.148251725477137108e-02
5.811950261768455278e-02
2.251371898404339045e-02
6.893781840361271063e-02
4.647698044292503106e-02
2.558668813844809306e-02
8.290812567824398793e-02
3.609730974475085924e-02
6.296428576374159258e-02
3.171864181005748518e-03
2.846442919210785683e-02
5.360781157464956925e-02
4.057740322392799914e-02
5.749323109979913304e-02
9.098461512421759934e-02
8.694207502720471825e-02
1.165456277926248535e-01
9.660422827768949672e-02
7.773987339973220667e-02
1.529960039128842042e-01
8.724996430829387584e-02
4.450963453712961787e-02
1.004106443009683547e-01
1.097682785107889358e-01
1.317414049684785815e-01
1.231245214382734876e-01
8.484586172355981781e-02
8.572503792682181767e-02
1.073774922355903716e-01
1.944514768777022562e-01
1.664257698504355010e-01
1.624356067417581095e-01
1.151417517415676134e-01
1.457588988985905609e-01
1.824436410154949284e-01
1.408367676455063999e-01
2.034532103447199980e-01
2.279546429742558833e-01
2.195002562303849380e-01
1.991627396078324841e-01
1.966166193526423522e-01
2.105418798485935716e-01
2.045494191298904696e-01
1.908703333753376807e-01
1.557888205355058286e-01
1.495906979549113114e-01
2.291823239580948190e-01
2.303127449464604237e-01
1.735407885244897863e-01
1.804078225749660147e-01
2.264444915731025354e-01
2.565791244809292326e-01
1.557907725509584951e-01
1.929913188082291731e-01
1.678186379557889130e-01
2.044465021556960138e-01
1.740061021778001593e-01
2.015544573210280022e-01
1.601398222737150379e-01
1.994537827175139055e-01
1.329867888472840431e-01
1.736870199354066946e-01
1.845501052128033503e-01
2.683479556440506175e-01
2.267672386787699668e-01
2.036571833864555536e-01
2.442818800690998993e-01
2.959583798301763102e-01
3.144591441796589226e-01
3.193659431251404945e-01
3.879397162845391600e-01
4.065938200318052753e-01
4.930546840701675038e-01
5.817910783201347691e-01
6.693480732900957131e-01
7.486977459626857900e-01
8.121803320401149717e-01
8.777387220529327960e-01
9.256066373842314343e-01
1.019504332190292351e+00
1.041348547477400244e+00
1.125537202353580790e+00
1.194026123649357674e+00
1.191327548682392656e+00
1.235793421411311321e+00
1.226505770446526977e+00
1.244024199262758090e+00
1.230108362545666134e+00
1.150141590025566929e+00
1.084515616940409100e+00
9.996141126393227605e-01
1.043993490311311945e+00
9.358373676315457912e-01
8.515400222846286615e-01
7.389559449577164374e-01
6.544781239716405130e-01
6.159798528772962856e-01
5.151716843901658072e-01
5.209924956834767196e-01
3.592471566775819469e-01
2.821551383439621086e-01
3.196543599142350756e-01
2.563836900087813619e-01
2.586827632663499799e-01
1.846711403163160681e-01
2.003842134556004517e-01
1.727740302523811111e-01
2.015559437349450089e-01
1.934640114142315570e-01
1.483233296114165323e-01
1.744060868817231547e-01
1.665686266780786462e-01
1.851983724606550974e-01
1.517446659991956992e-01
2.101441753574500582e-01
2.140967844544207077e-01
1.542867129786519298e-01
1.651122317444100318e-01
2.010759064269356522e-01
1.652949482269152059e-01
1.891219765881761161e-01
2.238311411290173636e-01
2.126790151180850963e-01
2.270619885793388470e-01
1.384814058048955410e-01
2.156151147960565784e-01
2.138728516577570737e-01
2.835562297256637443e-01
2.529515297267494467e-01
2.299149784372302163e-01
2.397185743840860028e-01
2.628958810835377302e-01
3.052114101011595970e-01
2.628351270048386312e-01
2.396085150155327914e-01
2.843669882620074585e-01
2.977468547680562905e-01
2.930128950563349322e-01
2.687810106220066553e-01
2.790321343445988367e-01
3.199996375780106983e-01
3.502864516776635351e-01
2.960503553526879772e-01
2.590663072642214737e-01
2.745917546432692369e-01
2.886416589345294215e-01
2.822708064731387356e-01
2.917926553694805136e-01
2.837959058698376613e-01
2.989321758339010260e-01
2.905977918648714464e-01
3.000898423259688585e-01
2.688441764137690093e-01
2.735951795612990289e-01
3.046365153475649179e-01
2.798253498684376561e-01
3.095537238496867127e-01
2.828427298973452686e-01
2.210700174604491308e-01
2.321546913518181265e-01
2.539357079509975690e-01
2.522026805988789033e-01
2.061992006100972219e-01
2.100997269740478846e-01
3.022692410957597553e-01
2.625967445822904311e-01
2.343751253821668434e-01
2.165145978057674281e-01
2.029445500510319578e-01
1.734063485372606406e-01
2.263081394827565207e-01
1.414925409205364804e-01
2.479708419931375418e-01
2.070597515901416719e-01
1.583608472153484881e-01
1.678560990296437960e-01
1.591368174102447686e-01
1.533869566522670924e-01
1.643832184229222504e-01
1.276555855036277665e-01
1.217842095349137010e-01
1.105931424455284806e-01
1.379805088958095671e-01
7.647877152693180469e-02
1.454341134107275946e-01
1.020769687535711123e-01
1.148968147761944975e-01
8.937433214060566677e-02
1.524799618854775773e-01
1.289152944531916922e-01
1.126325431684291750e-01
6.106670752937661678e-02
5.655065057524297223e-02
5.337490563058534115e-02
1.325995344628781158e-01
5.132746010629669203e-02
1.197492601489397734e-01
9.069180515085130401e-02
8.702255847290735202e-02
9.893273378196057455e-02
1.383805161562224884e-01
7.682432068746564147e-02
6.627416727705842669e-02
1.135810604543496249e-01
6.297762095876748012e-02
8.168796315739969283e-02
4.837431018704882457e-02
6.043535134563071676e-04
8.222100725939678056e-02
5.703571615326933492e-02
5.435455513768445296e-02
8.629092912632167767e-02
7.398594675749131655e-02
4.422628963336878993e-02
1.494584858315634729e-02
1.409781750986989490e-02
2.864035821410189364e-02
6.508178846875004031e-03
1.549817877773960670e-02
7.733107503421415840e-02
7.331613357062498337e-02
6.539573258847584947e-02
7.942382087270487279e-02
4.035074256758724998e-03
1.344816444959304365e-02
2.340095404299195186e-02
-1.940691421615365481e-02
1.123014829448748877e-02
4.462855730486577077e-02
5.604710862275909256e-03
4.412810584467248554e-02
6.497841949190044653e-02
3.996635636912326817e-02
4.693176440568420926e-02
9.835605481466461186e-02
6.846452376804079698e-02
6.575187968240164826e-02
5.364333843062923934e-02
9.227934631152301392e-02
1.477751066416327363e-01
9.470420598083399699e-02
8.206738247861147806e-02
7.779869326409272201e-02
1.021095592065767860e-01
1.358467015900975683e-01
1.060493540090131082e-01
1.029848257303230541e-01
1.017236510963326068e-01
9.593844095096444591e-02
8.226189452081872355e-02
1.584258503285402575e-01
5.383805048940710353e-02
1.065280903349123121e-01
1.283381793629964351e-01
1.071845504951518674e-01
1.181739977472772013e-01
1.218924407202970489e-01
1.352222059837805412e-01
1.353273823970341239e-01
1.952395646908516302e-01
1.867878268944560827e-01
1.527749915530328961e-01
1.457123521779073450e-01
1.590742976114817853e-01
1.671887123436278100e-01
1.785395116595185905e-01
1.840994554875751421e-01
1.333470258528798302e-01
1.932581724907452836e-01
1.369053600758518840e-01
2.093130898196090828e-01
1.615257848949772923e-01
9.936122057048235590e-02
1.364247733371500015e-01
1.237235004727448434e-01
2.063841546886576728e-01
1.385951841506782023e-01
1.010953280181984826e-01
1.661712416842617279e-01
1.640865064393120520e-01
1.410343183997019578e-01
1.327356411923035773e-01
1.837024798123896296e-01
1.474543538786686481e-01
2.304681165809872867e-01
2.199052851822296262e-01
2.245237939210099898e-01
2.212865994949276549e-01
3.631540564949901073e-01
3.173067549636098272e-01
3.606002397341461774e-01
4.465161797712544067e-01
4.870258860573931647e-01
5.813639985575032032e-01
7.019973727408599373e-01
7.869139134749232323e-01
7.945869350050157598e-01
9.118902118786024191e-01
9.544876647789777291e-01
1.042588392863769364e+00
1.108369010894765472e+00
1.092391430386213447e+00
1.073205919257815388e+00
1.182852703562192520e+00
1.171685018995238137e+00
1.190851124457597887e+00
1.160588442837614753e+00
1.164903803420446859e+00
1.076502752847725342e+00
1.027938872547266236e+00
9.722861996354973391e-01
9.251994060620325477e-01
8.560068840346812813e-01
7.603331826034670504e-01
6.728910248818987805e-01
6.271864866645214809e-01
5.451151421442511635e-01
4.993176619687235696e-01
3.927799901586370157e-01
2.974732626832413684e-01
3.082302213578275163e-01
2.761008115969308396e-01
2.660151022124625508e-01
1.585331829349721777e-01
1.500863784329183881e-01
1.405131126619507953e-01
1.423282215235369130e-01
1.100705917914588661e-01
1.077212857118046291e-01
1.226450876349866742e-01
1.611938913556931752e-01
1.624212449196432984e-01
1.524826711048939132e-01
9.190034895026252815e-02
9.263596466170151422e-02
1.216317355550586843e-01
1.181804252136654382e-01
1.450904543723380014e-01
7.390604296869468515e-02
1.003161989800333415e-01
1.470523576512270114e-01
1.465896387996238892e-01
9.346543091886247434e-02
2.045612777931552495e-01
9.872604058911015057e-02
1.647427346066300535e-01
1.616388173898731240e-01
1.890421430467858210e-01
1.859554843363081245e-01
1.813992687777833679e-01
2.027161008443411072e-01
2.988675306379950380e-01
2.379234118286839561e-01
2.358285216502777337e-01
1.967269136974670596e-01
2.237559713525374971e-01
2.555115090412658496e-01
1.387619905026809541e-01
2.041913292098825328e-01
2.116733623189197833e-01
2.142748133506855446e-01
2.540972117959253151e-01
2.550981696618473404e-01
2.683512475807202646e-01
1.994664020455114428e-01
2.251613428768527714e-01
2.683452824579672380e-01
2.795911727607195973e-01
2.367408591832328157e-01
2.671848275118818283e-01
2.242139134194601202e-01
2.098907028410065545e-01
2.322417023272775882e-01
2.448990706863961031e-01
2.770702010426659423e-01
2.580048523993911380e-01
2.206560577831390424e-01
2.306274770651316475e-01
2.106857032296287069e-01
1.784786473305982057e-01
2.591791556498547755e-01
1.340896285808686472e-01
1.797253087254137849e-01
2.191812951992880287e-01
1.638132598156175901e-01
1.724056393630638007e-01
1.327775997334393054e-01
2.143291773097643904e-01
1.902142393589071612e-01
1.800543594038339079e-01
1.656982203833376188e-01
1.454736614392826977e-01
1.528210995143334250e-01
8.283510846136994676e-02
1.341284707151701727e-01
1.220457152641860055e-01
9.735332522851300463e-02
1.358609930242541397e-01
9.211894329841513462e-02
4.514734477542118457e-02
1.362832376528781697e-01
1.027614142393329794e-01
1.017048856945332036e-01
5.706746519516617266e-02
9.404707054023467294e-02
8.311670967601209048e-02
7.448565792362828175e-02
3.481215975598320189e-02
2.370831631983714646e-02
3.896377615144062945e-02
5.167722452813180989e-02
2.985277226300128706e-02
2.477095903056827572e-02
7.086548673922660191e-02
8.355519705338722292e-02
-2.523343803484087017e-02
3.924526304568284885e-02
2.926808293610013573e-02
1.570034831126873587e-03
6.574830089204790340e-02
2.091132341627709862e-02
2.079314212487220689e-02
1.547017401299454961e-02
-6.653978912749814595e-03
6.088402406848450465e-03
5.000642977849135973e-02
-2.504430728733419639e-02
6.548363439976578881e-02
-3.176077530358891593e-02
-6.301718076041875477e-03
-2.129626617620654014e-02
-2.086926798091146007e-02
-1.242238783612380215e-02
-4.788091379339357023e-02
-1.020561013661513625e-02
7.468279032607869072e-03
-1.115000974783114662e-02
-3.819661230841282090e-03
-9.539835302453497645e-02
2.314212291594655233e-02
-3.436879707030636444e-02
1.948903856183177574e-02
6.193925759605187209e-04
-2.002282007816615431e-02
-5.800195407503383471e-02
-6.418404389788806563e-02
-1.143104218378507807e-02
-4.155689571368365726e-02
-2.800690264986147038e-02
3.771299089905789936e-03
6.890449490534646115e-02
9.755980687507666282e-04
2.550058176047640193e-02
-6.325762567262218500e-03
-4.267057089134514147e-02
-1.589501398326840717e-02
-5.786380195375740582e-03
3.649051413189598192e-02
-3.953927805643450699e-03
-2.312520985050538908e-02
2.575248777821713062e-02
4.896494556358851891e-02
-1.275331746975896796e-02
5.180106274136765665e-02
4.327059353258579100e-02
4.586914640540497995e-02
4.064120781371199226e-02
2.245245626424346302e-02
4.892913945617965998e-02
2.371238229910620221e-02
1.111889811118822041e-01
1.142545391915709696e-01
6.426312144358306555e-02
1.347726717351427905e-01
1.352167646792060418e-01
3.558702880806294266e-02
9.756192488803940022e-02
7.540405732006991157e-02
1.243991772191575806e-01
7.988821934991262308e-02
1.200800705522760276e-01
1.141710951265363649e-01
1.494906444402620271e-01
1.105624444729684935e-01
1.586767154064361862e-01
9.989290935630681934e-02
7.123263557777378963e-02
9.290403701150304339e-02
9.959685522268768576e-02
1.641850519073607129e-01
9.640322831082445698e-02
9.145234923163583773e-02
1.099119047840128038e-01
9.456107562895268992e-02
1.148060371411805947e-01
1.227937883366290728e-01
1.138755039145824405e-01
1.562543130872947883e-01
6.136059585823995521e-02
1.043429331486643852e-01
6.907501527365939031e-02
9.616715954952220757e-02
1.208196126220607153e-01
9.000592489845551936e-02
1.389150336725414325e-01
2.165179957555179724e-01
1.981345592970444880e-01
2.466630129940168004e-01
2.311553797789718256e-01
2.940926274730449319e-01
2.820381245079759958e-01
3.774077878400993180e-01
4.701340271475573096e-01
5.474513175679056598e-01
6.642921018810098444e-01
6.988812572803005940e-01
7.628459462007961545e-01
8.254683102358690849e-01
8.930703283446552732e-01
9.538505900773277535e-01
1.051544415974727809e+00
1.068744602200820459e+00
1.131123282037633349e+00
1.100315260771746573e+00
1.145293953653335528e+00
1.110478335573187980e+00
1.116852105124306993e+00
1.051030446530966334e+00
1.028691026432253741e+00
9.077446928997174869e-01
9.325294594331716702e-01
8.646597924068458729e-01
7.636753643772665745e-01
7.058982674363979415e-01
5.871979621718150799e-01
5.271914267817868760e-01
4.514725987224493808e-01
4.275217252285928304e-01
3.291800514373911524e-01
2.273910358447080726e-01
1.633221775327142744e-01
2.030427890181904504e-01
1.884268415297631616e-01
6.706182164141585855e-02
1.355023814237589497e-01
9.390598347579345861e-02
8.239045093426677902e-02
4.695403853807068872e-02
4.278472069403434219e-02
3.883904594633294516e-03
8.445827882278314491e-02
7.566157082933486211e-02
7.159086634056463505e-02
8.174788672380542409e-02
4.810847330645188352e-02
9.918512777583651796e-02
5.501612102943443522e-02
8.925344277151786576e-02
6.659989273504458851e-02
9.482432147699904057e-02
1.271843146127313862e-01
6.621019822508200647e-02
1.466019555828211585e-01
1.327494271660563108e-01
1.147343266500520653e-01
1.235498602086618769e-01
1.279041682890524612e-01
1.418056664081892015e-01
1.569917932252876680e-01
1.760835967777890920e-01
1.469841484197937087e-01
1.791159221376665833e-01
1.112905484180531090e-01
1.337429687282280788e-01
1.992367055364008821e-01
1.781835661361039769e-01
1.472767041000741794e-01
2.162863890564728497e-01
1.891798056531551753e-01
2.094076433620628563e-01
2.398586404241241643e-01
2.113524837287764357e-01
2.264873906785757063e-01
2.223668536639479831e-01
1.937072171065087611e-01
2.304881781202255120e-01
2.178974639096477595e-01
2.117808548423426585e-01
2.480794954163611232e-01
1.750887153884825020e-01
1.677492445099293128e-01
1.926764054289345218e-01
1.624568150494883345e-01
1.813071497832409729e-01
1.837552140857959260e-01
2.611540551320747916e-01
2.111547350759274966e-01
1.125284594126564897e-01
1.007411719533234801e-01
1.727183349907980559e-01
1.655925446157368308e-01
1.726878465853076416e-01
1.495882947596616219e-01
1.554121858353378072e-01
1.454559708023538123e-01
1.704294999025618151e-01
1.249257350426955793e-01
1.607830094819068523e-01
1.396326576278867082e-01
1.321867355568691060e-01
1.394314255639496625e-01
4.019328590077931446e-02
1.671753151820760674e-01
1.141485630987753297e-01
1.325447844754780169e-01
9.343726325640867858e-02
6.536197013338786166e-02
7.552120920429569728e-02
1.022109615591218768e-01
9.473185465858535714e-02
8.980400289716070072e-02
-1.535380995122598291e-03
4.546290545059066684e-02
-1.507295626430808777e-03
1.830983845393253928e-02
-2.434407967862525779e-02
7.898334455716682356e-02
4.340809646247068693e-02
5.184533083319339125e-02
3.253069610205860940e-02
2.342032685377559709e-02
5.630389239931837819e-02
-4.283521973356274604e-02
4.632566222427948743e-03
-5.118069254869284795e-02
2.069501747270378889e-02
2.546948710084206979e-02
-1.627420077156323253e-02
-4.835363798964437132e-02
-4.632984487168194387e-03
-6.575374896265413771e-02
-5.884710220490810273e-02
-1.751015766803824120e-02
1.112697844390463792e-02
-3.479294981827215499e-02
-2.260962099625763583e-02
-7.101696367649924790e-02
-3.563274677954975100e-02
-5.824771705545173789e-02
-4.190869002026031964e-02
-6.172376473500538335e-02
3.204063400421009594e-02
-3.320426269707757450e-03
-7.556757487545637253e-02
-8.217795811831868358e-02
2.869284884735760072e-02
-2.866572679938720822e-02
-1.619512535460608527e-02
3.307301905834476169e-02
-2.757431176780579529e-02
-5.387624569728707846e-02
1.887818581049933303e-02
-1.003154459951272615e-01
-3.645408855332760156e-02
-3.345261545628190614e-02
-3.447259831482367420e-02
1.248895073822517410e-03
-3.802390664954412997e-02
2.199716281487296143e-02
-1.241007834326080667e-02
-8.055906406803819975e-02
-6.968078218166098847e-02
-4.739653238301354266e-03
-2.274112704405827773e-02
-3.025358884488272421e-02
-1.303636895075959562e-02
-1.611051594785931074e-03
-3.420639446250471616e-02
1.533756035311438504e-03
-4.080832009023783319e-02
-5.003624829382993799e-02
-3.212324453423421461e-02
2.800216442744674072e-02
9.331677760433219893e-03
9.543716441839422693e-02
3.948536955164332063e-02
3.587061096262233323e-02
-1.923872491702133258e-02
4.704339213327329156e-02
3.331490532985702246e-02
3.816854193015469660e-02
3.216533413996796459e-02
1.529897250148099658e-02
1.028767787309497750e-01
1.013454832087900687e-01
1.015809664208738028e-01
9.663750636258237880e-02
6.491942115705731653e-02
1.232281026921430711e-01
6.238403712629691372e-02
1.168122726766565034e-01
1.231953272251227471e-01
1.048996224855382464e-01
7.480109012311481065e-02
1.316697343354252814e-01
1.158736719282691258e-01
1.254971271826411383e-01
1.356145770326673827e-01
1.371821155568182238e-01
1.382590831305976764e-01
5.875422719923849985e-02
1.062524191523460115e-01
1.118030152033448466e-01
8.232774621215201150e-02
1.237133078724978463e-01
7.380531313621428724e-02
8.018820239239227154e-02
9.180556764431094252e-02
6.920588965285742744e-02
1.005358562182419729e-01
1.280372113956625701e-01
7.265936948892709468e-02
1.768602178283135706e-01
9.242600783029067402e-02
8.941664399708681987e-02
2.192434612118777659e-01
1.991608886465667250e-01
1.917557265063029592e-01
2.093269346047549606e-01
2.732119054556690352e-01
3.669093255478332871e-01
4.086124327785490840e-01
4.433574248054299449e-01
5.908436154398759577e-01
6.260467893531560524e-01
6.524033823586246061e-01
7.495881124188903399e-01
8.403029853059871268e-01
8.830246643340362578e-01
1.005484129342218758e+00
1.092175583201154598e+00
1.139805067888261192e+00
1.122036925664568807e+00
1.136182727686612548e+00
1.091810988216608269e+00
1.145025683825720675e+00
1.087533618920236034e+00
1.083321538245384907e+00
1.020605409963147636e+00
9.228499116744960373e-01
9.032823698162010251e-01
8.139546697213697612e-01
7.311402778379311185e-01
6.686008334380258988e-01
6.127580130741462350e-01
5.476143027072422065e-01
4.847074915488237545e-01
3.865010194861890902e-01
2.732123704882806758e-01
2.524635482138206655e-01
2.421478991103772627e-01
2.122473800587207915e-01
1.755286166290602190e-01
1.093158215137934319e-01
1.242972353310203559e-01
4.321904320914580350e-02
1.056342109355768166e-01
2.592888292417220436e-02
5.797819891457028918e-02
7.694824215857329341e-02
5.981543822832136731e-02
7.646935240139107748e-02
9.398234732827906446e-02
1.002286378622667395e-01
1.448484765002222563e-02
1.034985026543360498e-01
8.976154099127314767e-02
1.485522892482230017e-01
1.040565994514200121e-01
8.752381129430011897e-02
1.278780099792380665e-01
1.310182890201736505e-01
1.217521522659593958e-01
1.125355855415901551e-01
9.069623619221647837e-02
1.249970206320473454e-01
1.432273993611015706e-01
1.881746123944612881e-01
1.324076003672312318e-01
1.527709243821399887e-01
1.301637878147928751e-01
1.661913472448651452e-01
1.302367277971303861e-01
1.588148864902252932e-01
1.712641056032537801e-01
1.645802049206181450e-01
1.872790667330285208e-01
2.250058320729675654e-01
1.702712288992979384e-01
2.094028268779495328e-01
1.610786454544549939e-01
1.647655018554632089e-01
2.100392352341711732e-01
2.036396735480786035e-01
2.839026389529979988e-01
1.963749925411818475e-01
2.393195512190906538e-01
2.530127598486177076e-01
2.065115763861710141e-01
1.729562633625877921e-01
2.213974096238800204e-01
2.185966716263997855e-01
2.043638251537093498e-01
1.946575302742821756e-01
2.192922743671619212e-01
1.769149194832276284e-01
2.011988629907251191e-01
1.814763698798766978e-01
2.053042322686907950e-01
1.732777764747745475e-01
2.042881137653970725e-01
1.817962444889079654e-01
1.516706586847080540e-01
1.931713751067088425e-01
1.349283673280717577e-01
1.644045926356317855e-01
1.653462681191931738e-01
1.293610470990019523e-01
1.389462790317788632e-01
8.649088529846765683e-02
5.657379894883417942e-02
7.993465426885676406e-02
1.765050786021129803e-01
1.463097307717111661e-01
7.912752897023986320e-02
6.765309578837874760e-02
5.122279063750968808e-02
7.527490623190741248e-02
9.617891824971136483e-02
5.379510622486065319e-02
8.276279024862956413e-02
5.812954033842636370e-02
9.453904695809507708e-02
7.547337146693414156e-02
1.032636234765038630e-01
1.123398296680605535e-02
5.787406575815425003e-02
5.340443371742781276e-02
3.279511793919766965e-02
2.042654832223421424e-02
2.200716780531675187e-02
4.431097256886175340e-02
-6.079935784050055636e-04
4.734921699392420635e-02
6.847783058833287195e-02
3.721978498338342212e-02
5.238188435421897715e-03
6.171110507074552276e-02
-1.131877206831929938e-03
5.092603208619680272e-02
1.735365973889884880e-02
3.689549175604939224e-02
8.436411112576747834e-03
1.466086011649349319e-02
6.361043608235941033e-03
3.208809718927146948e-02
6.238544830883496067e-03
-3.594192887857363544e-02
-8.073442678348322077e-04
-1.352240787029064528e-02
1.426123677370956522e-02
-9.393631919439392186e-03
-3.560998928801464847e-02
2.356021490854416645e-02
-2.065944961519819434e-02
-4.422114024741932020e-02
-6.026723891080437712e-02
-6.048766680135184842e-03
-3.231632180800164678e-02
2.662783224521423839e-02
5.231510708028328654e-03
9.719085659925911364e-03
-1.230563808171169365e-03
-4.749719337895342425e-02
-7.346495060311295650e-03
-2.733478665177317690e-02
-5.596759414056500653e-03
-6.961827136891339529e-02
6.021066790495643167e-02
-2.335960308506025360e-02
3.749109741558245834e-04
9.553560707907783611e-02
2.415420380405644551e-02
1.467794175404930554e-02
4.540679839749113544e-02
3.806230513477282251e-02
2.998167523455315397e-02
6.612441256022710129e-03
-1.329959235824774988e-03
1.137665110247173400e-02
4.810872137989122277e-02
8.332971427773819273e-02
5.240781854948538959e-02
7.451126374398872598e-02
1.936275326655636023e-02
2.152375461826082359e-02
3.553027917379281142e-02
4.889068291862334881e-02
6.911436657427282027e-02
9.419399714691210901e-02
8.550449607933630070e-02
8.858238018209968478e-02
1.158492545147856434e-01
8.658333355427352829e-02
9.220574904991224452e-02
8.478382964535155497e-02
1.139443348243353443e-01
1.103291831084579622e-01
1.449661872945128271e-01
8.768912747948318098e-02
1.432114354760011532e-01
1.454386252753703535e-01
7.697129987596582068e-02
1.357935683772659441e-01
1.779337365676099958e-01
1.741932049378693559e-01
8.737141436457253330e-02
1.660805625216327241e-01
8.753451052695944423e-02
1.799532170115285823e-01
9.238897381938895870e-02
9.376568971523409346e-02
1.485628217464122769e-01
1.028151563572146793e-01
1.717141817815631133e-01
5.044492068063104184e-02
1.511744646015250881e-01
1.443802958596704378e-01
1.681479756262961311e-01
1.252020415634177986e-01
1.908990857505974137e-01
1.242448033246683348e-01
1.882380216302125264e-01
1.345185674523143859e-01
1.655258166150296584e-01
1.574278694470822304e-01
2.420584968773261958e-01
2.475165910233413091e-01
3.420107758291943689e-01
3.552061367941765635e-01
3.895595776890554696e-01
4.677398834418211582e-01
5.808409156290528230e-01
6.824876675662231440e-01
6.393369786931583088e-01
7.439677984343417982e-01
8.642944193781498807e-01
9.220977826591192361e-01
9.852221566365488847e-01
1.113353086413416682e+00
1.052595644944796849e+00
1.116378073343013533e+00
1.175610405752832488e+00
1.181489096212146706e+00
1.187415166577537651e+00
1.148910303811748745e+00
1.148129727625554208e+00
1.110578813682661536e+00
1.045152828576381143e+00
9.823409267871727746e-01
8.783328679327565558e-01
8.059906233829211564e-01
7.140364921762808459e-01
6.767938342401320639e-01
5.856610380939800686e-01
5.321248797699229538e-01
4.489625897053245995e-01
3.407808577373894754e-01
3.108059211770218266e-01
2.864092605142552483e-01
1.713994335863752161e-01
2.389166438903405076e-01
1.890915689844721026e-01
1.779538548227201922e-01
1.504654866500472754e-01
1.554521127013940573e-01
1.500603063593659026e-01
1.558976179305471277e-01
7.809752492745797303e-02
1.402877112095660683e-01
7.163311941167048447e-02
9.972040258242850785e-02
1.611666017059452394e-01
1.713965799807450618e-01
5.126639778222527588e-02
1.661550577321562749e-01
1.493790016838675294e-01
1.577436022598010523e-01
1.001735385007023887e-01
1.085803024151911489e-01
1.310348790951913478e-01
1.680121501007267037e-01
1.670229197361080276e-01
2.250372335627926212e-01
1.930973115566707310e-01
1.696834857172910271e-01
1.752200468665864042e-01
1.892328093659501609e-01
2.156086591025559718e-01
2.427128750296748128e-01
2.413672520266771926e-01
2.482392884100388664e-01
2.077067086536414364e-01
2.337319621786915769e-01
2.673111615106560923e-01
2.648044687189707314e-01
2.787402609759772054e-01
2.265651121405587443e-01
1.986484196657209433e-01
3.012852814827778336e-01
2.739296044172289668e-01
2.168044717078961847e-01
2.769926607656483797e-01
2.158713507491132888e-01
2.750628705639378557e-01
2.721774477226516775e-01
2.429046638211320719e-01
2.378636811044643751e-01
2.166708111911358481e-01
2.510675815205806183e-01
2.589915692232242495e-01
3.021773153410123314e-01
2.825807863162310696e-01
2.754226239927380915e-01
2.743432187970561431e-01
2.358600355324344533e-01
2.496522503005987048e-01
3.088002981981710082e-01
2.471393399649040590e-01
2.417886370806248686e-01
2.117888221434972573e-01
2.047289162585049782e-01
2.053650638445791432e-01
2.291735216929430274e-01
2.712859880357939013e-01
2.398735012937295852e-01
1.969702568040183066e-01
2.503066976310257541e-01
2.066542699080005097e-01
1.631792256500104177e-01
2.043030073858519979e-01
1.554164694326999885e-01
1.607568671126739512e-01
1.648401686090273099e-01
1.591824965403383085e-01
1.641087995807473665e-01
1.706902659346355988e-01
1.244657817390266014e-01
2.187989065404429001e-01
1.347426061640006612e-01
1.720262707335562802e-01
1.270645466489248032e-01
8.719486432077910854e-02
9.850012630932020175e-02
1.036650710350005139e-01
1.008663505896360002e-01
4.274735065276813462e-02
7.361692953852365384e-02
5.329694803070256920e-02
7.576077666688357803e-02
5.521593525719159512e-02
1.408827311552924844e-01
1.113221411726928178e-01
1.193140346210210673e-01
3.200997116558175482e-02
5.453264792728890198e-02
1.030491019100680111e-01
5.890827652390939057e-02
-2.519294983357084003e-02
5.044317048040249107e-02
5.703968299397493835e-02
3.634936474190213207e-03
3.375187980027445633e-02
7.166967104310403847e-02
5.372765796163997409e-05
7.462914443687906907e-02
2.397761219796260349e-02
-1.153555308038244076e-02
4.611967957653280437e-02
3.545712666980210120e-03
5.708351430300274976e-02
2.816187384341365535e-02
3.197781650446492041e-02
2.677723191887317056e-02
4.657601941914597810e-02
4.888968832248168084e-02
3.467921211598860853e-02
6.913133439076525610e-02
9.763040942087178320e-02
3.772802192048122644e-02
5.028028251156975437e-02
4.742927029820066809e-02
-1.856754636323289243e-02
7.479870954642371672e-02
6.905764938925854080e-02
3.627208184120975232e-02
1.782114974343877029e-02
-1.025168579570730903e-02
2.517040719041198707e-02
6.024924521766557989e-02
6.351575903839429271e-02
4.650526202497290429e-02
4.846511015744880968e-02
1.029873090131194630e-01
1.055965980552953098e-01
3.286071529015968662e-02
1.133340662642195740e-01
9.111660348718744751e-02
9.850239031775005760e-02
5.600256767448202194e-02
9.216402378929189343e-02
8.969769355588425030e-02
1.163361139123655352e-01
5.518028732058310321e-02
1.484511059715409864e-01
9.071382728102080073e-02
9.948659599417472577e-02
7.524562023328179583e-02
1.387145007198326563e-01
1.475200072690532604e-01
1.405577838805970869e-01
1.619890919020826048e-01
1.868055281881913499e-01
1.475047504504175822e-01
1.834836294649116462e-01
1.850917483138309894e-01
1.534661404779904814e-01
1.999148280890497564e-01
1.822106441102087637e-01
1.422032293512273116e-01
1.882410783295393186e-01
1.637824542208756728e-01
1.740905310694951802e-01
1.787109990685689931e-01
1.799845198840160920e-01
1.650961377937549268e-01
2.213243853571086328e-01
1.785451791180331649e-01
1.884075264156913621e-01
2.239862392010250614e-01
2.413149559778380304e-01
1.924287984041180843e-01
1.575674789680608645e-01
2.012595646247995196e-01
1.663735770047276574e-01
2.053007973684176091e-01
2.100083973184996289e-01
1.764261643958152104e-01
1.679157000315809611e-01
1.753546235986964408e-01
1.981406936826355658e-01
1.580484038031916005e-01
2.066118832940716521e-01
2.339805868244560216e-01
2.364669548745706451e-01
3.060584167939517375e-01
3.329234567952510937e-01
3.314932986205528231e-01
3.194589108062066418e-01
4.410769316749796332e-01
4.353960781680720205e-01
5.013445039857318264e-01
6.265364485196341926e-01
6.980034945603615926e-01
8.109215092580588369e-01
7.819382985537335351e-01
9.236189146117114168e-01
1.007925901893634624e+00
1.057615496578979908e+00
1.187497120641819004e+00
1.166966529275221154e+00
1.188021743382212447e+00
1.200952351940117735e+00
1.189979548144642685e+00
1.245195570708181876e+00
1.227711709315761235e+00
1.162849568514428444e+00
1.141411288687542713e+00
1.095028124816916915e+00
1.022222440655037756e+00
9.540864105228697989e-01
8.643338749228569595e-01
7.661497691304460789e-01
6.869925733024735415e-01
5.644804741272417825e-01
5.613405883274343866e-01
4.482099871899216104e-01
3.814906389933404030e-01
3.470434568105353890e-01
3.472755581547377624e-01
2.928046717520253472e-01
2.533338978773908012e-01
2.203585523100265731e-01
2.019342283576668895e-01
1.749778734392618551e-01
1.959543856064802358e-01
1.596912300753691449e-01
1.575228500832113743e-01
1.631742385196174316e-01
1.666727284940990317e-01
1.739967331162543540e-01
1.512221414814157172e-01
1.223228753045148831e-01
1.921606869978753906e-01
2.127133932831128948e-01
1.314925358267087230e-01
1.608534243252178475e-01
2.173169208452171708e-01
1.848799898165589539e-01
1.581027520177177292e-01
1.936219362121055498e-01
1.820992090135016561e-01
1.936151156991473832e-01
1.986068596003075504e-01
2.407140234261233580e-01
2.467275085704248028e-01
2.794725531825347775e-01
2.282529715751412391e-01
2.440289308983263905e-01
2.097716433840273176e-01
1.757247713744197748e-01
2.283304970824648339e-01
2.717378982135939536e-01
2.598434327945119415e-01
2.930689008310121690e-01
3.490716810354072552e-01
3.733161725858655799e-01
2.555205960247627361e-01
2.402374802544515464e-01
2.711852969039810768e-01
2.748110838317356364e-01
2.814810078368574775e-01
3.102824247645843414e-01
3.552022060272785331e-01
3.006849573373174822e-01
2.999195916098805759e-01
3.174796436454705995e-01
2.945277542720987629e-01
3.753130588716990790e-01
2.831789834144534668e-01
2.545620936410810664e-01
2.918412707163670627e-01
2.794888629204663744e-01
3.260682571230352211e-01
2.942094084232190765e-01
3.288240205294555851e-01
2.701308534786168725e-01
2.515129442973318974e-01
3.159960713030191548e-01
2.605368214694612217e-01
2.419596775484544882e-01
3.294451186431212597e-01
2.947230732846048973e-01
2.676438712594121361e-01
2.434263248558573567e-01
1.960978735122206329e-01
2.337593300384335215e-01
2.377617984414155117e-01
1.746344038498629236e-01
2.448882118485777304e-01
1.849371692650465249e-01
1.876407895843638374e-01
2.034816516271881759e-01
2.066976656500100207e-01
1.262063230295495386e-01
2.153922773746713148e-01
1.574965429187573651e-01
1.700819107734665159e-01
1.235880707613674356e-01
1.827902667047007768e-01
1.620637818865525714e-01
1.621128109908159531e-01
1.336538906319840181e-01
1.149315917546990806e-01
1.218124067011654710e-01
1.534710849286509415e-01
1.570774070402707334e-01
1.287162368447974381e-01
1.392709427013197332e-01
9.607078645994518440e-02
1.137759470862899497e-01
9.602095307728518436e-02
5.918905011786730619e-02
7.470499838658153924e-02
1.039446048112226129e-01
1.111734128064011673e-01
9.151429814689723830e-02
8.423633447921188844e-02
1.068687747227878015e-01
1.028127222154683190e-01
1.087794023745017047e-01
7.120475125538731909e-02
6.719254618680245428e-02
8.672955473612921351e-02
1.477659230174602767e-01
3.457990370997293672e-02
1.001554087900309031e-01
8.016926720276015828e-02
5.750082234567105433e-02
9.068613041178996692e-02
2.980580879242663087e-02
7.747364270651332929e-02
8.315122964352895940e-02
5.816970399279497439e-02
8.025027462744990792e-02
6.620383167410082148e-02
9.002937468851472669e-02
2.674849086129296727e-02
4.208403295267101885e-03
2.571101145164418969e-02
5.375170273515691988e-02
1.974989556026793963e-02
3.611519616260409210e-02
4.083438914335000419e-02
4.638670737698015467e-02
6.477800234763225751e-02
7.508291962485592885e-02
7.246575116012513029e-02
3.700229465623676439e-02
4.832491652049909076e-02
8.153131349880943235e-02
6.872908519076856293e-02
1.022151633167078522e-01
2.283390058060225103e-02
6.855738833010933952e-02
8.576614159380135938e-02
7.901701007553132983e-02
7.248150844932861603e-02
1.046591472093722219e-01
1.306567101204123005e-01
1.286445385721224910e-01
9.486654866362682903e-02
1.476013856692404980e-01
1.632143778518375665e-01
7.132290694170950740e-02
1.048147442063226686e-01
1.355542917314028484e-01
9.969466414813035748e-02
6.042994617086121928e-02
1.442494329516279539e-01
1.883583151805882649e-01
1.428256492139538536e-01
1.704132923197196059e-01
1.189399002257451876e-01
1.887140198671620750e-01
1.652284910907283466e-01
2.070390480752456464e-01
1.916866600129339959e-01
1.781884822395588264e-01
2.247184585732772133e-01
1.604135260747184266e-01
2.072222148575286749e-01
2.045509972798585929e-01
2.084624102011979618e-01
2.080637387946960015e-01
1.943970837812460384e-01
2.118747376693695117e-01
1.835863889772056112e-01
1.524395377963306819e-01
1.646389957860310560e-01
1.436804191544381604e-01
1.851804960264633870e-01
1.610707292688135783e-01
1.039913335935894190e-01
2.103831738591869782e-01
2.454205455687637760e-01
2.285004937534840797e-01
1.941403656463016048e-01
1.740751541851754403e-01
1.889591234132358688e-01
1.195782658885772981e-01
2.224248684263191167e-01
2.725394509831464140e-01
2.169903331752889852e-01
2.614484521076399504e-01
2.494313388384847285e-01
3.037756287249242515e-01
2.708493922699556911e-01
4.253008260398899454e-01
4.626223812310864547e-01
5.016715197027902251e-01
5.527356986898813718e-01
6.304315588521907099e-01
6.995407558463277997e-01
7.534771619660131092e-01
8.236515511185968919e-01
9.476958867671880782e-01
1.078477511003663070e+00
1.042279089946975601e+00
1.088884183057660993e+00
1.120414271183474364e+00
1.201133070739226483e+00
1.203995185711357996e+00
1.233681596338254360e+00
1.189949967406118692e+00
1.151460346407264135e+00
1.149037736560745149e+00
1.099671857343008430e+00
1.057943335326651413e+00
9.242024831610369251e-01
8.341536850156084926e-01
8.247705066001416174e-01
6.801420673880703704e-01
7.102219252651885695e-01
6.179242130519168041e-01
5.369516276912743580e-01
4.489240405209271034e-01
3.653372285714329148e-01
3.435541282944485353e-01
3.188619840873036515e-01
2.446889614613069475e-01
2.270187503354316183e-01
2.011697036449285880e-01
1.709696839906681143e-01
2.266346634208611099e-01
1.694859148065958609e-01
1.598920446629543968e-01
1.203821622974337452e-01
1.311731251727107916e-01
2.434661403356890297e-01
1.036967614530982240e-01
1.123101857513894575e-01
1.617256711226597310e-01
1.584456358698335676e-01
6.816586252077405650e-02
1.770435167964674594e-01
1.737776965338863888e-01
1.924076423242427059e-01
1.741828722947639241e-01
2.178889801877359478e-01
1.907540884275118476e-01
2.248112577964514469e-01
1.737426247263592349e-01
1.786709644474912817e-01
2.739267295870033148e-01
1.801164899095935579e-01
2.309770613311431520e-01
1.909128275200507319e-01
2.122620455743230161e-01
2.670379620374933594e-01
2.311009764848345194e-01
2.000633362837017648e-01
2.593204459370277992e-01
2.463597622853405944e-01
2.311463677693084418e-01
2.328042593516054248e-01
2.221041263737925098e-01
2.593399655347444765e-01
3.033488147932852375e-01
2.881898673113386100e-01
2.664406721169967907e-01
2.708291743857217382e-01
2.344931935832103853e-01
2.639594057909645519e-01
2.782467652626469112e-01
2.790650271635732871e-01
3.188630781091003064e-01
2.739992271959211800e-01
2.908847681114143935e-01
2.927898786202441372e-01
2.913760422138049200e-01
3.144527947655978983e-01
2.956296912886255401e-01
2.751147822928835529e-01
2.804254631736507464e-01
2.410005054899856669e-01
2.581927496241461784e-01
2.781074493634859146e-01
2.931214715697975093e-01
2.217912604311639002e-01
2.399383996116291329e-01
2.537171914939365669e-01
2.585005393502208815e-01
2.373633194138889679e-01
2.183309120674046255e-01
2.438908383156200288e-01
2.588187217782400573e-01
2.226571213817535866e-01
1.827664481309524969e-01
1.366406456738187836e-01
1.750979655333242957e-01
1.859529675893907275e-01
1.846896217288582220e-01
2.093159769231852096e-01
1.681803664857902114e-01
1.759079592805715964e-01
1.867854796187864708e-01
1.447473846828687405e-01
1.505337993999397161e-01
1.482381656077665366e-01
1.616954234119921119e-01
1.486759945750959488e-01
1.874123711756946198e-01
1.355396837742253169e-01
7.111590799907124838e-02
1.038435718380865125e-01
6.198553938302608923e-02
1.287224312633215018e-01
9.253022126639866285e-02
7.569553824877145454e-02
6.494781601544094563e-02
4.855788620096336550e-02
5.517796930361108798e-02
1.860697364512128166e-02
8.721273475722348539e-03
6.229308962523082832e-02
3.363962296225637971e-02
4.446888188978418560e-02
6.669193146170253328e-02
5.159585259512085992e-02
3.263976939971829222e-02
6.514670671789962730e-02
4.728942540500541414e-02
3.444742811830688034e-02
2.053488237622386886e-02
4.636453901461693589e-02
8.799177281616027413e-03
2.893526401586973135e-02
6.132829720933186124e-02
2.587576804655872600e-02
-2.694892885112614572e-02
3.518490812615798075e-02
1.844640169707642552e-02
6.638828039107974588e-02
2.918771964300828289e-02
7.057253861108973847e-02
-1.108790911218354193e-02
8.347317734782103149e-02
-7.051872079835657878e-03
3.345578599632881636e-03
4.098954729778851724e-02
3.518210631764875918e-02
-2.533473921300146564e-02
4.931170646581521308e-03
2.614322438141618299e-02
5.954217327753393713e-02
3.167056961422669292e-02
2.767041096349870388e-02
6.931322197453097800e-02
3.389230896966794609e-02
4.919482353164561159e-03
4.588680426359250525e-02
3.765396189589729353e-02
3.570656107897862697e-02
5.260041186170372196e-02
6.183161132718104774e-02
8.683613954652169564e-02
5.857611182937794148e-02
4.523677878528496732e-03
4.036306002747143407e-02
6.001564046829688248e-02
3.925174583281926255e-02
3.379852865020289976e-02
1.117699810636461483e-01
9.557595324554320204e-02
7.776752546194301563e-02
6.222670194572381408e-02
8.332230707450279106e-02
1.098720553972898639e-01
1.229298452874151015e-01
1.127837432662648909e-01
1.208749223422903446e-01
1.123480570062101586e-01
1.719721532714810486e-01
1.487260499315020135e-01
1.593281095002047343e-01
1.558985280848851629e-01
1.627727940882468249e-01
1.508259277637689355e-01
1.214047354953765034e-01
1.305967529007953098e-01
1.292934592682619399e-01
9.740908931211082755e-02
1.736368786251774599e-01
1.335809855102312038e-01
1.550545559945872010e-01
1.724293151825013470e-01
1.677445070698228846e-01
1.865203959293068592e-01
1.098578395943003161e-01
1.860773225235464456e-01
1.380495007753695935e-01
1.904413268260154446e-01
1.168754863199984173e-01
1.436585228836008976e-01
9.024921663699066177e-02
1.482914794627579746e-01
1.365385754431634735e-01
1.416056036655959915e-01
1.553725157868806328e-01
1.396518404270928604e-01
1.486191500817129196e-01
2.169263058729504201e-01
1.440130992721871117e-01
1.233889033721759093e-01
2.484619039921102113e-01
3.089120786481375780e-01
3.575251159664885048e-01
3.943599294121764576e-01
4.042903396144489347e-01
4.889175007928401318e-01
5.487566384420160537e-01
6.112599958126467836e-01
6.948138558435440482e-01
7.734734387176258608e-01
8.098854930099766980e-01
8.768626446242041572e-01
9.924092523809655564e-01
1.048600333783949790e+00
1.118373823365530262e+00
1.137681412101084533e+00
1.196088115271882302e+00
1.169291861067586202e+00
1.150384234796101079e+00
1.167888138705839518e+00
1.106402949397904178e+00
1.050776499116865326e+00
1.065563415411672210e+00
9.794349662093900788e-01
9.252332754012838612e-01
7.737540589255188506e-01
7.201993897092590080e-01
6.673329285218114748e-01
5.771070957552251190e-01
5.525208181244803951e-01
4.574055144696852482e-01
3.871484065495934823e-01
3.631030428619324013e-01
2.983419220640290970e-01
2.507815883643043087e-01
2.463617209020736998e-01
1.475828688997967431e-01
1.724459902105570375e-01
1.509105808625930412e-01
1.163821557531798667e-01
1.569922684806984159e-01
1.370238484901969978e-01
1.435869517566071840e-01
1.056363925429330830e-01
7.399415465770579903e-02
1.348567687707233897e-01
1.166821358532747072e-01
1.080463015301147689e-01
7.560051406163602328e-02
1.148724168837116644e-01
1.733490947816414551e-01
1.182664847236594707e-01
5.462138734910591820e-02
1.388200139778950071e-01
1.533567790897409078e-01
1.588768241999530262e-01
1.540714950921222570e-01
1.176555054708748604e-01
1.615317553429136965e-01
2.079279155267880208e-01
2.157639346071930087e-01
1.725590913345667610e-01
2.017676877395761792e-01
1.358072955312125685e-01
1.890407280402036649e-01
2.227060189779631327e-01
2.102449064942678580e-01
2.309192868731261283e-01
1.884155248488822709e-01
2.062867491735217995e-01
2.039496352226864151e-01
2.061903582294090653e-01
2.238888025892109557e-01
2.280414213096205456e-01
2.171981722792860614e-01
2.314480880856885081e-01
2.821199286872232426e-01
2.132468408190558717e-01
2.319078767714236045e-01
2.506917076263058264e-01
2.158542932300703543e-01
2.680790565930548097e-01
2.228485145567855041e-01
2.084595395445588972e-01
2.372528789780256053e-01
1.517613480440824780e-01
2.543078343565446930e-01
2.081412934127924441e-01
2.102548600792665257e-01
1.933870643348314100e-01
2.220852443898381212e-01
2.108036714781839349e-01
2.126835005564178815e-01
2.066381129320812304e-01
1.699433463690310508e-01
1.585380210864973383e-01
2.120744323115336949e-01
1.685391812043516013e-01
1.865803908288182489e-01
1.708320018613118385e-01
1.475571239777070109e-01
1.359027190162748200e-01
9.987957565554868300e-02
1.524761822877286899e-01
1.438336812114251739e-01
7.304868561142605077e-02
7.266151381942075049e-02
1.160182722215938877e-01
9.503092614632435708e-02
9.792357184515819435e-02
8.250682113318479061e-02
1.107361161731328647e-01
9.524735387189899039e-02
1.067875095170208455e-01
1.302154519458602888e-01
4.148179380788375586e-02
4.672509126908273858e-02
1.168173326465949957e-01
4.872953977154009797e-02
6.159708713559901294e-02
7.600872231561256465e-02
-1.273065093874549761e-02
6.197842208160057875e-02
6.188858927482156214e-02
5.517285634537801020e-02
4.769727618986811801e-02
1.164177898781081771e-02
-1.644947845205635417e-03
-4.123994139218607746e-02
-4.745843341142615829e-02
6.708904070703092248e-02
-2.869770334624725111e-02
4.855504595876115881e-02
-2.837746190325637560e-02
-1.913687327079516970e-02
-9.332403782650249696e-03
-2.542582046161430409e-03
1.376847485477390026e-02
-9.764361810282708165e-03
-2.625102816639754422e-02
-3.808185945020459845e-02
-1.605101530273372878e-02
5.581407545780537466e-02
-3.594698406413897318e-02
-4.693170492798611620e-02
-1.598672067387380338e-02
-3.857169645939149960e-02
-2.865894105099935432e-02
-8.315102904545577933e-02
-3.354686552512602116e-02
1.637923945571833489e-02
-3.664660427469742382e-02
-4.589640238671793132e-02
-4.185794636783755907e-02
-1.837319050295261463e-02
-4.447956644540627252e-02
2.225430258941427097e-02
-3.496929628836814574e-02
-5.341166564851437815e-03
8.739892617464099789e-03
-7.225195583553165046e-02
-1.847320344765805006e-02
-4.039673775826194135e-02
-8.181452388523843822e-03
-1.131212568306390678e-02
-5.835919587168306166e-02
1.610807503829077281e-02
-4.825444817545875009e-02
1.511994173112939793e-02
-2.265097174131804753e-02
8.663634635066995437e-03
-1.502482308754785056e-02
7.545429166144694555e-03
-3.593865994778776968e-02
-4.861340425575844115e-03
8.066990770083035112e-04
4.137244232125223548e-02
5.161253801509467498e-03
3.039753516179596882e-02
8.014336240321963400e-02
4.133835476496343364e-02
4.372941463223278119e-02
6.452687351701791307e-02
7.693536916664350800e-02
6.475788896563772212e-02
1.326595712011574557e-01
5.322006079815234242e-02
6.817394370873625098e-02
9.805990118506469067e-02
7.210738156967526347e-02
7.608398442802447037e-02
1.694528136140587837e-01
1.304204522071469308e-01
1.193273090675367465e-01
5.821501788820461487e-02
1.228906154476092083e-01
5.602708720416597898e-02
1.008693080560364996e-01
1.313366568791253797e-01
5.140291849324792051e-02
1.276383427521921021e-01
1.250078294364022624e-01
1.000689818018397764e-01
7.547904871786126346e-02
8.046976397075086829e-02
8.562466541467850245e-02
1.206549752917111806e-01
7.146674778274840489e-02
8.694377064290401136e-02
6.327880257064991132e-02
8.984892556551508924e-02
4.867118966808611780e-02
1.170392374966527094e-01
8.433214805552838311e-02
7.259780631105411386e-02
1.487581501082079205e-01
4.248595693169401888e-02
8.560452177724880984e-02
1.506617676313900533e-01
1.773565313206299232e-01
2.141077668887215457e-01
2.172512567977579190e-01
2.748169465549425983e-01
3.003903725379383216e-01
3.703710743745501355e-01
4.442240872062076518e-01
4.946758694330155581e-01
5.698040923672116342e-01
6.789945385413775902e-01
7.663705430841140087e-01
8.704226426708665532e-01
9.013380892014023482e-01
8.875024402151046043e-01
1.052253911783584961e+00
1.066008198689272435e+00
1.054444651509751418e+00
1.153602061419920055e+00
1.108223618711751346e+00
1.134633536443964807e+00
1.108788964993459247e+00
1.072088415811573325e+00
1.043239847211435700e+00
9.710380777521648854e-01
8.914717871477361166e-01
7.698885289181820468e-01
6.971266496338797136e-01
6.590868789072842349e-01
5.980364070143118216e-01
5.607005196383293422e-01
4.292841487788275345e-01
4.045768221847315660e-01
3.107862396381668169e-01
2.288979328742116459e-01
2.672468901351885973e-01
2.049256849483972465e-01
1.482209776845099802e-01
1.571814968818109337e-01
9.518997586091360041e-02
9.146903539187703491e-02
4.886135783004711547e-02
8.003097583011319072e-02
1.695996954654135913e-02
1.553078884210277316e-02
4.676713782637828554e-02
6.582825296160918493e-02
9.204503045125209115e-02
8.113530118426806603e-02
6.463795640931585540e-02
8.051792643278782302e-02
6.301031617273035457e-02
1.000362594449811515e-01
1.196619004393214419e-02
7.613624265862106721e-02
1.205541232665842677e-01
9.066979356197962803e-02
1.231842930516673928e-01
9.489826602993134408e-02
1.041301248933038381e-01
8.231836294746597282e-02
1.046058490987606671e-01
1.240058400452995063e-01
1.365153407117250250e-01
7.192216109855897876e-02
1.201793993441112318e-01
1.315946573421749588e-01
2.176309228218144542e-01
1.801766149307833520e-01
1.565000510196629946e-01
1.505109804074580004e-01
1.467370600794218327e-01
1.690572145973271156e-01
2.314367484181501511e-01
2.552276843000523265e-01
1.845498522367408634e-01
1.815544874368155703e-01
2.037134373345259875e-01
1.934072666142070407e-01
1.457380234642669525e-01
1.687734289526921783e-01
2.273208288763333973e-01
2.058654099484062971e-01
1.816656059821289138e-01
1.840730230140266710e-01
2.222962649030816584e-01
1.952225158076148492e-01
2.269750329451692972e-01
1.672035338613418187e-01
2.162228406053333662e-01
2.223878190889983786e-01
1.647842601206924718e-01
1.703779833207432204e-01
1.719432044182898078e-01
1.947094513498034141e-01
1.549067122495409454e-01
1.839640558234224565e-01
1.489632570713817217e-01
8.023552178058809825e-02
1.607804683502513932e-01
1.982346133393443066e-01
1.525019346597588366e-01
1.405930506677235403e-01
2.013532978432011900e-01
1.448177371358320142e-01
9.944259434090316208e-02
1.370331914364712467e-01
9.854867783530782410e-02
9.851204024850331031e-02
1.081719898634390109e-01
1.086482673482661865e-01
8.976522186348798171e-02
8.650744092924425588e-02
4.987377939210702049e-02
6.908176110592309516e-02
3.478627850275618771e-02
7.356236414024878989e-02
8.940606627297417730e-02
9.717166656044662343e-02
2.890624109053878399e-02
1.002564381668506754e-02
8.344266047771134454e-02
6.623971374901774234e-02
3.506590227691309264e-02
2.003946275815948058e-02
1.316417819731431627e-02
-1.311469211018538583e-02
7.013797272401936511e-03
2.732806438802270338e-02
2.470286135478941270e-02
-3.054764953828493362e-02
-6.767671621882430377e-03
-2.879523951741072563e-02
-5.368363767899939076e-03
-6.647584324046995619e-02
-4.995273329205796031e-05
1.046069884396602645e-02
-4.928516369952472276e-02
-3.242453412762959231e-02
5.271736132308760259e-03
-3.167524512834999501e-02
-2.856397704928973630e-02
-8.281184807353644817e-02
6.348626852089617190e-03
-6.345767027874468780e-02
-3.796606508978364602e-02
-8.520847891381182204e-03
-1.939309373669138511e-02
-1.195215624764966317e-02
-2.509289168179586194e-03
-3.431918462177405149e-02
-5.714457674034761209e-02
-5.158655072140644338e-02
-3.776690520345860058e-02
-7.080610884290752804e-02
-9.662178085108223680e-02
-5.801740346990023889e-02
-3.775021577561596398e-02
-1.854229028717528649e-02
-2.148079105224645624e-03
3.619256485667707302e-02
-6.838697388128825438e-04
-1.753804506366497123e-02
-7.086092423310182131e-02
-7.016562288756419963e-02
-1.300399405086445637e-02
-2.794087442345197930e-02
-5.061626447150113089e-02
9.973358343357476008e-03
-2.265203676943370811e-02
3.812666494615800372e-02
-3.955465640925378418e-02
-2.472125705901601772e-02
-1.514038270901731098e-02
2.087946635138436535e-02
-2.100756198468546262e-02
-2.964491743131281859e-02
1.508008302080712792e-02
5.674690039730916069e-03
1.315765722555325284e-02
5.555409745235936891e-02
4.933035517175283352e-02
4.287894733320719853e-02
-3.295746384483857344e-02
4.525222617389439150e-02
3.709165845905582071e-02
2.477953996363038702e-02
6.322657884677190809e-02
1.047464449677996123e-01
7.037159576083851231e-02
9.905392903323120835e-02
1.152112825030343624e-01
8.319359570703696583e-02
7.701725224126344804e-02
9.814694973032778158e-02
1.221400183354764274e-01
1.371531722818771226e-01
1.514613057598253598e-01
1.087913494008806853e-01
6.466496722214785942e-02
1.101171500907999479e-01
5.877436617857324103e-02
7.490434532469353313e-02
7.445072702882349347e-02
7.758557411925635916e-02
1.298810278768405546e-01
1.154594962422147708e-01
1.236058633300075316e-01
1.306886799798233079e-01
4.706332246221142657e-02
1.077215465479225698e-01
9.359766948998661518e-02
1.134622553857256855e-01
1.421366160449916705e-01
8.514817192096310605e-02
1.155915130536192270e-01
7.201738623191622501e-02
1.231416361716674984e-01
1.353990810937398814e-01
1.823893771221223314e-01
1.481653735942750072e-01
2.012001910924499926e-01
2.173684916110393273e-01
2.286742772021844172e-01
2.638757437045026744e-01
3.763342012640898404e-01
3.547802655357268908e-01
4.877252201536183551e-01
5.539731608283086084e-01
6.197121054739327395e-01
7.892161656727308960e-01
7.562659312314112814e-01
8.874000659788133794e-01
9.400220422917050511e-01
9.731764169165277867e-01
1.022469694636302551e+00
1.140025202434470808e+00
1.185843568758359501e+00
1.146819670087252385e+00
1.175431651321855897e+00
1.117704861756178003e+00
1.133021056696286166e+00
1.112549164564895499e+00
9.837071392404203030e-01
9.277212090614637141e-01
8.982620293521853538e-01
8.121247867405373411e-01
7.520343817184976798e-01
6.268713623181715322e-01
5.572434411546880462e-01
5.347599380707657168e-01
4.160547030512209421e-01
3.328499218922589264e-01
3.204911364672498597e-01
2.622913878894920225e-01
2.511413684259674040e-01
2.265875215271148657e-01
1.441151932074577480e-01
1.294242080099941850e-01
1.238699203573110780e-01
6.470632031712306165e-02
8.467224768680051139e-02
6.782539085152221314e-02
7.432648871570776694e-02
7.457430943623415132e-02
8.523036021745514224e-02
1.132268750973580707e-01
9.424266501663636220e-02
1.306672597945746639e-01
3.032442029916715756e-02
4.153174328168850876e-02
1.157525805394000740e-01
6.217558412128999790e-02
1.024337944133387884e-01
1.467782064055555835e-01
1.550106204242951424e-01
1.054517055228135491e-01
1.419740615392806882e-01
1.322656696353978201e-01
1.057689185839860713e-01
1.704859053066073993e-01
2.083056361047664895e-01
1.755228471591770978e-01
1.732920397248416955e-01
1.605673631253997091e-01
1.439810671479054005e-01
1.059513074321594833e-01
2.144306898504574899e-01
2.020235465055720547e-01
2.093090121334980902e-01
2.218781053440254947e-01
2.430768845682493018e-01
2.319933065161002839e-01
2.034243887025803943e-01
2.187470629053192284e-01
2.139742802065338068e-01
2.362233588085300151e-01
2.500722429106629341e-01
1.887202396886683287e-01
2.052932903782809793e-01
2.293882056650438928e-01
2.002382236183807285e-01
2.145255880954912708e-01
2.502362272108428765e-01
2.518089002051906999e-01
2.112738077786830426e-01
1.952387196232719113e-01
2.017122750215464555e-01
1.790615941943641820e-01
1.917457960776597081e-01
2.367152839866615011e-01
1.799581792225364019e-01
1.726913144747294626e-01
2.637796645792115369e-01
2.174178517509519626e-01
1.437222654647695719e-01
2.005907396138724708e-01
1.977420226402212822e-01
1.745257381341114855e-01
1.811520428858604259e-01
1.963110728797071713e-01
1.720750910505041698e-01
1.672484066419671622e-01
1.494420613273466092e-01
1.424828299258859843e-01
1.416077189187288088e-01
9.495347942247417405e-02
1.620635998555218227e-01
1.513943019172933613e-01
1.449553127824774468e-01
1.075548334787379268e-01
1.509687579773594246e-01
8.315412466333681196e-02
1.573415648728124505e-01
3.853098025365492285e-02
9.201047653824742656e-02
7.153163765091288817e-02
5.011848089170490433e-02
8.736767724253834133e-02
9.730400086499325918e-02
8.907026133479561958e-02
2.620527649487455757e-02
1.675513779190485053e-02
1.089966407206291975e-02
2.493164400342678944e-02
1.927549550480878865e-02
7.094915739866541893e-02
9.131390967417565840e-02
3.573199949641490958e-02
-4.359306652625619116e-02
4.823065475109725511e-03
4.953195843340085780e-02
1.230980962243206044e-02
6.752876120612569255e-02
6.467161106670060722e-03
5.674286046109627835e-02
-8.086374185762240999e-03
1.151115769125615577e-02
6.199619524525266934e-02
3.970025077289130247e-03
1.922564393742221336e-02
1.400064016359886879e-02
8.789561390084407039e-03
6.352780990255725221e-03
2.390561260550982947e-04
-2.805633647454702090e-02
-2.920963679683064723e-02
3.417775730237450349e-02
1.456554781153028381e-02
-3.991669180921409571e-02
5.281775223249066120e-02
2.216016118044392136e-02
3.184680707286680762e-02
-2.447404532962921958e-02
1.819937123894251746e-02
-2.454092961215717864e-03
5.402539438723161572e-03
3.160572170991541446e-02
2.045788010482719500e-03
-5.442509041784281826e-02
2.227414255929842379e-02
1.515139173377841320e-02
2.158411098868232014e-02
1.314760922401994603e-02
3.127422305422371956e-02
3.387849660103766508e-02
-8.236850718637887467e-03
-9.883415080302312972e-03
2.440086694775802506e-02
4.181395526536144103e-02
4.415720053877773138e-02
5.923149173475134727e-02
4.353925203920259307e-02
5.285320787417820652e-03
2.140665506410355419e-03
6.770126819660966799e-02
5.448307526773115556e-02
4.854811395823464826e-02
4.822588043029950311e-02
2.964113791183695112e-02
1.298831452718875734e-01
7.342192903586751418e-02
7.799627191409594373e-02
9.866881544696481932e-02
1.001790682463273852e-01
1.064821058471266124e-01
1.081562387143551046e-01
1.026204000162298097e-01
1.237510484462264471e-01
1.304920077382683563e-01
1.488791835761378857e-01
7.728294471879169902e-02
1.632038046075765525e-01
8.209467961238288425e-02
1.071056390117045981e-01
1.219843968229381570e-01
1.143069350866423445e-01
1.018428566966529530e-01
1.749420376878748351e-01
1.905331317561199667e-01
1.380055266514808032e-01
1.473734789134272249e-01
1.409673073119326603e-01
1.434655191976167143e-01
1.500444726233965131e-01
1.899285563526043885e-01
1.650022644669625893e-01
1.461076011899751781e-01
1.802902664823472223e-01
1.407241334346365780e-01
1.139232767743468405e-01
1.636650045457654912e-01
1.768104036341092422e-01
1.353285487335841308e-01
1.765226655433957126e-01
1.793484093385262768e-01
9.320861267680226325e-02
1.989119762751160592e-01
1.531162135184164219e-01
1.908939948238679296e-01
2.664142765038952088e-01
2.362587162384138517e-01
2.738853942519415829e-01
3.032856035941167150e-01
3.886940258571917606e-01
4.228971057638789000e-01
4.044198062119626624e-01
5.546364164427997068e-01
6.302889838220946395e-01
6.848858160858770638e-01
8.082057494838911227e-01
9.275018679978044300e-01
9.120733663422752047e-01
1.042188660694116420e+00
1.021335471681016127e+00
1.091616936634958623e+00
1.227218294651449160e+00
1.225125010396169500e+00
1.185028838243467719e+00
1.209839306770134737e+00
1.136173859872750214e+00
1.161359224877471119e+00
1.102897638684298132e+00
1.087432604846825690e+00
1.013605985545483090e+00
9.285190185463776391e-01
8.633069565081675778e-01
7.586070331037358949e-01
6.751282495606297784e-01
6.161870932859497829e-01
5.316958456271375644e-01
4.920950581910353838e-01
4.184353471734558183e-01
3.585180320674762888e-01
2.611392466421564307e-01
2.840714588777781269e-01
2.154316247242639981e-01
2.129842939150775882e-01
1.594793004452801644e-01
1.284309979229954213e-01
1.659587962388607285e-01
1.466722058659750971e-01
1.227588608417525262e-01
1.203004040344679837e-01
9.117401028044475053e-02
1.629096915342419516e-01
1.258541027290762393e-01
1.660993795839885157e-01
1.403839341499895088e-01
1.058383524844524193e-01
1.418433531994922614e-01
1.610690838747134701e-01
1.426270287459281139e-01
1.254297625623781443e-01
2.149241483281354170e-01
1.602413327760687234e-01
2.589604530084506639e-01
1.994921730790329972e-01
1.932737059478031039e-01
2.507095544678754617e-01
1.696143234803887956e-01
2.166349126043726481e-01
1.675835321047070281e-01
2.299664080710761005e-01
2.531472883315804556e-01
1.254693704171745416e-01
2.429461195014102626e-01
2.678939500300492327e-01
2.374464279815346746e-01
2.428786152859681857e-01
2.646219371748663729e-01
2.601289506270143548e-01
2.478796593432244511e-01
2.453658109332799431e-01
2.416444658674912205e-01
2.732788701747729254e-01
2.517215974360574871e-01
2.701101315066020137e-01
3.430463100629795870e-01
2.723693164295360458e-01
2.479279551566012096e-01
3.562193131358912801e-01
3.321413178911449826e-01
2.730713496671559049e-01
3.465872565052006138e-01
2.838239150740843320e-01
3.159643449565976425e-01
2.925601050801767133e-01
2.968256697351152607e-01
3.134628381207078540e-01
2.367062251742074463e-01
2.438177433142407480e-01
2.520495549116626433e-01
2.902878971702569921e-01
2.825525481788516702e-01
2.554134388331833483e-01
2.425460132700838489e-01
2.111067399739949280e-01
2.807159678598915020e-01
1.986167854900899032e-01
2.303907720584424668e-01
2.169400406941484338e-01
