1.324775480293985730e+00
1.315052600737313115e+00
1.231627738999742538e+00
1.213432655287231654e+00
1.124460198091647767e+00
1.153603165918841711e+00
1.057193072377159870e+00
9.282063713701985685e-01
8.997334297567648465e-01
7.823417951235096535e-01
6.743462449022444849e-01
6.199146650136818648e-01
5.723831920472581825e-01
4.698312361754616862e-01
4.146908404013377458e-01
4.093701601749611951e-01
3.201455554169962969e-01
2.818427380767776769e-01
2.385969821223808407e-01
2.077532841866995827e-01
1.721093893321898882e-01
1.600379160253081190e-01
1.404050665185614111e-01
1.287058314199328313e-01
1.494103814548718434e-01
1.665056045580877719e-01
1.349657744093911149e-01
1.971473965469962286e-01
1.535002279024716698e-01
1.202509348285955015e-01
1.655816512560693010e-01
9.889491640174784270e-02
1.453622168074409360e-01
1.332168124829127276e-01
1.510339110833937293e-01
1.751388082434094384e-01
2.158482193175485508e-01
1.564561658639801456e-01
2.427746059210902363e-01
1.453997867428755419e-01
2.709578848511774996e-01
2.816897764367668477e-01
2.151402150539437619e-01
2.013143435661148284e-01
2.510795708717247221e-01
2.435607839745660141e-01
2.326348308433390799e-01
2.589741112108322474e-01
2.860559742684198326e-01
2.437876826517958728e-01
2.994991391013780424e-01
2.545983468932925819e-01
2.469928405429503704e-01
3.135454747284875388e-01
2.491110020838322725e-01
2.603551727964722451e-01
2.571392613260859994e-01
2.688558826993886486e-01
2.600349873692442415e-01
2.677079609646431657e-01
3.387350261849712552e-01
3.094550400162457970e-01
2.493245591718102894e-01
2.598994333783306021e-01
2.671526969894079673e-01
3.170229700526622785e-01
2.973892577444691154e-01
2.499327890918163764e-01
3.150259996467771884e-01
2.996746689674438802e-01
3.025412171567752329e-01
2.922056580974793372e-01
2.567411512453339206e-01
2.827164836118853386e-01
2.382341808254235804e-01
2.303424465992693904e-01
2.684986907791305222e-01
2.202650853919992657e-01
2.353572546687346945e-01
2.454212719414708976e-01
2.598527611407556170e-01
3.393763429728012815e-01
2.841694828480681445e-01
1.907562041419388621e-01
2.237156877641314490e-01
2.211699345709910169e-01
2.543310631878299422e-01
2.158420762231924861e-01
2.198599318731690733e-01
1.945073276021847819e-01
1.831570150837671107e-01
1.866681405630160884e-01
2.249967814610269734e-01
1.982603417213345265e-01
1.248251410816010182e-01
1.806333678736121717e-01
1.566092635774453123e-01
1.530106374419971105e-01
1.235855718431779493e-01
9.646803710563436884e-02
1.414879347411057697e-01
1.633314830531613082e-01
8.734491865770127594e-02
1.365836560347579443e-01
1.451248698095500000e-01
1.046591640131563639e-01
4.142876493556955225e-02
4.991953361770375130e-02
9.705692256373044113e-02
8.641563551931649712e-02
8.216832890553796287e-02
8.939562226199949946e-02
1.093260372139346903e-01
1.025763274793088931e-01
1.351581506478080064e-01
1.240082923134185333e-01
8.456788065658052411e-02
5.459955627995353999e-02
6.987583273555036945e-02
1.096135151278100350e-01
1.015343958430735827e-01
1.392009265518219518e-01
4.473565413457237377e-02
1.150248567622990381e-01
4.765745220033389129e-02
6.484102260519455929e-02
1.083646044023940103e-01
7.048192655549771757e-02
4.458224555774524533e-02
1.309151381271779491e-02
7.476640692356803508e-02
1.663330761315437445e-02
-2.905601934080895288e-02
7.508981978502034249e-02
5.678113062475851486e-02
1.422155605234746989e-02
5.343163667630863173e-02
4.348826549944267983e-02
8.740205761858768629e-02
3.711929400296514608e-02
5.031203779849348356e-02
4.274454533309800242e-02
2.054246659408053705e-02
5.645002472073702704e-02
7.701255621272005969e-02
1.025298308734081676e-01
8.369094108202063120e-02
1.962070840134184924e-02
-3.182348361424817973e-02
2.362818798935410747e-02
-7.309205431683826748e-03
2.815261739722627055e-02
4.857702742555145004e-02
1.593747446322249517e-02
5.827797674457377980e-02
4.909622945969037422e-02
1.213043810070420780e-01
6.795102639626572627e-02
9.711242771498938831e-02
1.041950267367602045e-01
7.319669254086530463e-02
3.411131223006530488e-02
6.356159920492225612e-02
8.743576947364706253e-02
-2.161894249782806560e-02
6.603454545997292091e-02
1.334530352573019552e-01
9.604989863759311186e-02
7.267177571037757022e-02
1.301370774188645718e-01
7.789443949964897085e-02
7.045455978841663747e-02
8.038669626745709174e-02
7.968913076425093722e-02
1.455782703956077784e-01
1.381147042427433302e-01
1.064243758181175614e-01
1.348321372941909402e-01
1.565764842412719071e-01
1.240212822334691573e-01
1.308489854516516893e-01
1.058865484534629309e-01
1.402000847160277119e-01
2.139593748730722333e-01
1.221295670329144434e-01
1.403515764981209113e-01
2.338629700577594950e-01
2.110531837093952146e-01
2.320803987219578479e-01
1.844543383373818957e-01
1.934671346967627992e-01
2.228587464451549927e-01
2.067987033295718424e-01
1.721519433809349797e-01
1.830001584199673903e-01
1.696094270583893282e-01
2.043362282550951758e-01
1.977894137496589433e-01
1.729923042508411113e-01
2.042179082950361380e-01
1.906487595718547590e-01
1.931092701339037487e-01
1.853753518964787184e-01
1.703752932159856570e-01
1.257805098651020304e-01
1.962708274958115395e-01
1.541614506095106141e-01
1.910193647011194928e-01
1.601309149159275691e-01
2.479585126937025596e-01
1.627733953046885396e-01
1.406904956713045385e-01
1.968855752604715958e-01
1.977383252292618798e-01
2.414211653750259201e-01
2.615762371635669270e-01
2.501674872797962079e-01
3.277707823132046672e-01
3.147199362474509821e-01
3.956348195202196716e-01
4.499887962678223441e-01
4.834272560654397366e-01
6.286032087753051778e-01
6.783657573821413322e-01
7.294026161629386662e-01
8.350976196795933948e-01
8.897951939544831435e-01
9.237722716282397162e-01
1.098246538793401061e+00
1.154813447843617169e+00
1.214499889281129619e+00
1.219134097026824737e+00
1.291197538708016790e+00
1.334070270052379881e+00
1.312979546078158366e+00
1.289365735536090574e+00
1.292570186616489814e+00
1.202109206085949289e+00
1.196046310639174770e+00
1.124046549096757719e+00
1.081773709037121112e+00
9.273205581921417640e-01
8.914475169821164391e-01
7.606268239740849868e-01
6.806886849859603572e-01
6.188728184590213122e-01
5.553263282211040597e-01
4.731253607109778270e-01
4.480434189292378244e-01
4.353753618075176801e-01
2.916570423357234820e-01
3.111785165481774085e-01
2.458207633423268867e-01
1.968292966691949919e-01
2.147745071733234701e-01
2.348842422054970569e-01
1.762377213318342406e-01
1.338053142711569943e-01
1.873221407701976260e-01
1.257491764342725249e-01
1.533406739285494980e-01
1.763795371163584813e-01
1.575791197416280542e-01
1.463841251456044490e-01
1.968599571101886658e-01
1.839633649353474010e-01
2.197487040785339740e-01
1.912849632921575505e-01
1.400735912400880856e-01
2.160586744764838030e-01
1.914274086341518077e-01
2.471298492474848507e-01
1.740752616008402753e-01
2.088912388287359201e-01
1.862918636480077605e-01
2.494729931474563012e-01
2.260845733960393789e-01
2.291295212574734341e-01
2.268746874992784157e-01
2.254747791817507951e-01
2.690347902002943048e-01
2.447313678053378849e-01
2.562936485871212255e-01
2.839578080187617481e-01
2.957949707798576688e-01
2.550644873976035676e-01
2.879945675353879353e-01
3.015676969205207669e-01
2.997395135029823909e-01
2.612657228695680622e-01
2.844755777867962188e-01
2.707691920167132338e-01
2.635948636970332770e-01
2.665022516263141350e-01
2.850327502597350682e-01
3.041189546797004040e-01
2.852082058126422792e-01
3.148631437814188860e-01
2.423974599421374609e-01
3.186033159560952011e-01
2.803259247921302544e-01
2.612063353790325948e-01
2.803746753847456419e-01
3.072359554439325624e-01
3.176426558821435209e-01
2.661464268968455893e-01
3.010699200364893025e-01
2.908188873926628171e-01
3.203532749839020921e-01
2.428002210868723809e-01
2.768511644650611947e-01
2.472892156683792475e-01
2.229821728543242010e-01
1.880032742826483472e-01
2.389916242594541107e-01
2.188780977944378980e-01
2.204223822492078766e-01
1.552513333458987177e-01
1.837635888812157725e-01
1.623810007050378035e-01
2.321410523509891410e-01
2.262466889254257651e-01
1.761132853221681893e-01
1.523886564865133963e-01
1.769503462268068039e-01
2.271410477943439921e-01
1.696397378795548583e-01
1.908819748909987846e-01
1.771583397098549228e-01
1.816912069403703867e-01
1.460707566025262472e-01
1.539046853591115316e-01
1.193040201209715073e-01
1.320138065878597167e-01
9.114401199217968264e-02
1.298787893165500307e-01
1.400360849751944581e-01
1.401889235018103363e-01
1.017124047828065064e-01
1.225393624743540688e-01
1.082297459393519873e-01
1.019309855766388773e-01
9.181072820689238634e-02
1.196738369334445773e-01
3.958503330862186975e-02
1.122352306008771727e-01
8.801052812957813054e-02
1.127116528811226981e-01
5.615262814513875822e-02
6.512480725309549578e-02
8.358162362154480940e-02
9.078563382660876507e-03
1.214594130435838470e-01
5.332358140995342721e-02
9.766701094579563480e-02
6.559720600091108189e-02
6.504407044421676998e-02
3.678727805364608028e-02
-1.011696791531691703e-02
1.421518055441285330e-02
3.006423403633566582e-02
4.654476313159007506e-02
8.369364306266516285e-02
6.404608459386426644e-02
8.517982886859745695e-02
1.116475961815964479e-02
8.170764066252850233e-02
-5.082995546134387588e-03
3.545639762420491059e-02
7.297208717901351727e-02
-1.743137073246546487e-03
3.443627359317911335e-02
1.926011093762507870e-02
-4.179995939257722531e-02
6.947956728007124994e-02
3.677721532531051662e-02
6.181904429672254592e-02
4.680307748466920603e-02
-2.997299283740451070e-02
-7.681098481092329955e-03
-1.144179723568685553e-02
2.839898179165630324e-02
6.360628744867498352e-02
5.171180281458515743e-02
7.087932374029895510e-03
5.675904170163703633e-02
1.004269568798120578e-02
-6.784396685947147870e-03
3.003922160447956152e-02
6.564474835840906908e-02
4.481407756927939523e-02
1.937316098200354136e-02
4.720737517431554398e-02
-4.630084976393819551e-04
8.696589351777434668e-03
9.898171928051549551e-02
2.845400621099430233e-02
7.855347715365158801e-02
4.591495144560114872e-04
6.605657361076544554e-02
4.204418090954538390e-02
4.013486616595302037e-02
7.996618346491926599e-02
6.301236867723054857e-02
3.507121144435484950e-02
7.308409009461233619e-02
8.583026300264946784e-02
5.684177384997900206e-02
9.363318734009475064e-02
1.009508444943729016e-01
1.065512570797209901e-01
1.080233661212992441e-01
7.993700323453045709e-02
4.996331925225934445e-02
1.665713422202521610e-01
1.385203002933631244e-01
1.405130253476493118e-01
1.244058734900373164e-01
9.483335173783866145e-02
1.547863185159887578e-01
1.259080331627757121e-01
1.604781981046599915e-01
1.273679813810240091e-01
1.461483566377582144e-01
1.336420863801811021e-01
1.357177977458427220e-01
1.679986001634201365e-01
2.159715620109831091e-01
1.970792324200271450e-01
1.685078723055455641e-01
1.541044992423761806e-01
1.747842358207627733e-01
1.541863182300161061e-01
1.838332439239437066e-01
1.585979974179511087e-01
1.156229347927776319e-01
1.730306572318828506e-01
1.531333737076738810e-01
1.501541806977020610e-01
1.632562496729203783e-01
1.593902206048932735e-01
1.165027525798494057e-01
1.395888691915806445e-01
1.073970005477817569e-01
1.459198802117505633e-01
1.248094492789115217e-01
2.133552189266843535e-01
1.717244794837571309e-01
1.890254215464499399e-01
2.095617270732351711e-01
2.722838634620869946e-01
3.123398359839781313e-01
3.139639365595948139e-01
3.828612278441238526e-01
4.228093735609397830e-01
4.723419776729775865e-01
5.027746845130361963e-01
5.913125442950061261e-01
7.068974959026157467e-01
7.837712085842307719e-01
8.995887392111433511e-01
9.113190414256948646e-01
1.096452491555224507e+00
1.112486720861636913e+00
1.132380436932839851e+00
1.229563885365239528e+00
1.235728550953528293e+00
1.249827105224269763e+00
1.290031338879765732e+00
1.198327331278661534e+00
1.259130361272267518e+00
1.149365221645535895e+00
1.209901599108436754e+00
1.033851859724125744e+00
9.410751476968083340e-01
9.565831242743655372e-01
8.071548295515780236e-01
7.213794004832296825e-01
6.820530492664748090e-01
5.924625083517095492e-01
5.138942794903886835e-01
4.540752813105146668e-01
3.742784884236493026e-01
2.964603747708277059e-01
2.638009976991958494e-01
2.390350637313316540e-01
2.330635537688743597e-01
1.750295143420834976e-01
1.495417918552347791e-01
1.585227911507079979e-01
9.938322474884289659e-02
6.858271822821906949e-02
6.614229616414059321e-02
6.790682707506275062e-02
1.158206680126173810e-01
9.710389021016990752e-02
7.400997716043830610e-02
8.885584126761197910e-02
1.484360709947472601e-01
1.352322365950199556e-01
5.889283943654072262e-02
9.410668818023339155e-02
1.517991337916650973e-01
1.774392091979709318e-01
1.357355709205128602e-01
1.452227982589201771e-01
1.842227390320495817e-01
2.449625563450415489e-01
1.683289923777774866e-01
1.817495046738040743e-01
1.697171680373219527e-01
2.000561846879594097e-01
1.827186511486957321e-01
1.924290247811412946e-01
2.566743932132122819e-01
1.187950080648943335e-01
1.992110839679912537e-01
2.071692968083083397e-01
1.288639619571815831e-01
2.191051586057651823e-01
2.221738602019660003e-01
2.290776502569170647e-01
2.501146504627302924e-01
2.463473520088519386e-01
2.093402770735881824e-01
1.843784912881043792e-01
1.987313346941928793e-01
2.669057111163090634e-01
2.385028269880380136e-01
1.888800309298400981e-01
2.598607635268628258e-01
2.366369065016405704e-01
2.283742525274550239e-01
2.533258672157560620e-01
1.931342220117177044e-01
2.530125131073129863e-01
2.215475569367766906e-01
2.308072350308207898e-01
1.700892890469923313e-01
2.287173774781260382e-01
2.213320133032293524e-01
2.359780459519880969e-01
1.823184820505589498e-01
2.140531783740611815e-01
2.904473534231163390e-01
1.714208217854381877e-01
2.130603011562240690e-01
2.058965738831017855e-01
2.362865298376460588e-01
1.895603547416375156e-01
1.715261297626954895e-01
1.941702243783143267e-01
1.969511987264758734e-01
1.343140568365177034e-01
1.448100070133829798e-01
1.007747102734956879e-01
1.787613645879281010e-01
9.801457474295584282e-02
1.414628326324413876e-01
8.140438306854078099e-02
1.740226455873742362e-01
7.180481304554724165e-02
1.253868925787534894e-01
1.934070555377420675e-01
5.175705412925132864e-02
8.120034749000816510e-02
6.214625491259673229e-02
1.301446176485095141e-01
7.622423556486529472e-02
5.504629108930293724e-02
1.762441298198959283e-02
4.506889139378468523e-02
5.971537337555640756e-02
4.244710940062042942e-02
7.110010331217124502e-02
4.071721867719936550e-02
4.565601966564630798e-02
2.871098552373536894e-02
-9.108770566800886148e-03
3.078929955716711020e-02
5.445389559081310893e-02
1.465787220804647822e-02
2.673386781028948278e-02
4.848033805370552396e-02
-1.783779591882051971e-02
1.614491101102825607e-02
1.115717934086872531e-03
2.638674213053924036e-02
-2.313855243865988939e-02
5.873054991886339504e-03
1.499919287847554725e-02
2.286423936472178550e-02
-2.855763295459168641e-02
-4.913299573615092369e-02
8.370220104574270514e-03
-7.200105965838518585e-03
-3.454973627569363215e-02
2.571807786463561202e-02
-2.158309143572094413e-02
-1.242206218197271228e-02
1.408888028426272948e-02
-3.911427409476170985e-02
6.661279644527492994e-03
3.580013347264356105e-02
-3.265600230871557041e-02
-2.563793835793723094e-02
2.534652231609398759e-02
-2.395211555567715311e-02
-2.036248074220289514e-02
-2.417075331239981056e-02
3.447183403986656125e-02
-3.985119554463275454e-02
-1.509364302727020032e-02
-2.850409027366614112e-03
-7.640707048428990039e-03
-4.637212460212302573e-02
-7.487599840217545877e-04
-3.409121248349213790e-03
-1.559541606913555922e-02
-4.715672212075242009e-02
-1.791508694689425418e-02
-3.374060266049207224e-02
-2.849938027637476806e-02
-2.458109921846755169e-02
-1.552173162493235975e-02
-2.001900603205957266e-02
-3.358105023006230372e-02
-1.858322014253406540e-02
-4.978474616601984148e-02
-2.584886159731746708e-02
-1.042462070061946425e-02
-3.742084727624196694e-03
1.984596464744231570e-02
1.561315584233698150e-02
2.318574034721897215e-02
-2.296053768566591602e-02
-1.738342093722563750e-02
-5.876677938238654419e-02
6.931590579361626703e-02
2.270794185876603283e-02
3.367528448373530159e-02
-1.003289270946079725e-02
1.268477243364384000e-02
2.953253656213334494e-02
2.362689087796072257e-02
7.160174414626255257e-03
3.144440787668342091e-02
6.178845040657595516e-02
5.828014921246727625e-02
6.841729164527290963e-02
1.350029440747486653e-01
5.548373655656693021e-02
7.846538998458482683e-02
9.863473737112449236e-02
1.224082086298332317e-01
1.051757648509011600e-01
1.205746933649148867e-01
5.952880649832797272e-02
1.147481167779472733e-01
1.083752846740597964e-01
8.594358990841516333e-02
1.030678811470544798e-01
1.083100711051424442e-01
1.641709125140485281e-01
1.242377351208591441e-01
1.016889951182807506e-01
1.406897514200539656e-01
1.229035712845336636e-01
1.300231223416788984e-01
9.251557765168977321e-02
1.246549088192573929e-01
1.384049004295335727e-01
1.146172471594882614e-01
6.148947148796267415e-02
9.762038004912015898e-02
1.356942324778403763e-01
6.292104447006834078e-02
1.291646382883945010e-01
9.940536166365240844e-02
1.205735231117950335e-01
7.174566146300787040e-02
1.422271596891196421e-01
1.348018240165373138e-01
1.901856479000662570e-01
2.507068012668094426e-01
2.618172846630318906e-01
2.574972483356511299e-01
2.856845666372895276e-01
4.018410329156388849e-01
4.214170850350009712e-01
5.417711904277864310e-01
5.874519186156924588e-01
6.562039661905886279e-01
7.240683007237406210e-01
7.714477987830151706e-01
9.041341993983957881e-01
9.564790924199644273e-01
1.046491856684482302e+00
1.106902977457551174e+00
1.212544769374569453e+00
1.198363472248330952e+00
1.238684196005776617e+00
1.226942717487447876e+00
1.228902588609436242e+00
1.215375236343585241e+00
1.175057306049692940e+00
1.046175175156926818e+00
9.643829863182861173e-01
9.908433538789145345e-01
8.680793976624333608e-01
8.061845593813319333e-01
6.661125955685844868e-01
5.807384976645921792e-01
4.707567702737814330e-01
4.137089495146955009e-01
4.188547858977643701e-01
3.109064195278329334e-01
2.710044895414154276e-01
1.707267008904536087e-01
1.684278435442081445e-01
1.649126723543619111e-01
1.400702350044748523e-01
1.044390466921564092e-01
1.276674045401578195e-01
3.341411200558553479e-02
5.371860962309012166e-02
7.352382393444098496e-02
3.231002041653394108e-02
8.698920079942173977e-02
6.514303521463901681e-02
2.725440115129032503e-02
6.207712642767600902e-02
9.483628356011938876e-02
6.682480978572176433e-02
9.731299181491287476e-02
1.144124274871272107e-01
6.023540453936828548e-02
1.059504976370571061e-01
1.353080361391829356e-01
6.618306762707204527e-02
7.087511708590814308e-02
1.715086483018637697e-01
1.850031503489288076e-01
1.041425726890265746e-01
1.133931214850334296e-01
1.411063302053630619e-01
1.941484370306050811e-01
1.469726604682353999e-01
1.073048921915026876e-01
9.921136774879839304e-02
1.945782873904912669e-01
1.869236801453789676e-01
2.360602459762729810e-01
2.077937621290814607e-01
2.046943869028451657e-01
2.395023022880917452e-01
1.729883818179382415e-01
2.103309851647526540e-01
1.874504289963111470e-01
2.035694669063767281e-01
2.072493954384635739e-01
1.930332728035402401e-01
1.290428943877079682e-01
2.220148007017370417e-01
1.661917631408740270e-01
1.533726350456661724e-01
1.824940068381243341e-01
1.713812646013996022e-01
2.115192211200044303e-01
2.674329535947331804e-01
2.482170548049391634e-01
2.077374074608407395e-01
2.009474660739279106e-01
1.702588776590091280e-01
1.594507671896679968e-01
2.120583321588231929e-01
1.949787785781893490e-01
1.087627612256399368e-01
1.930256000490254698e-01
1.920960956889081750e-01
1.647060277103878367e-01
1.790506162783349065e-01
8.688903742238861250e-02
1.579932871740679645e-01
1.042006282235152237e-01
1.168964562691546527e-01
8.761656447608787146e-02
1.092311896580849123e-01
1.083245585890845047e-01
1.159914339319793597e-01
1.317917720956988947e-01
8.447590067785878953e-02
9.899299361867787417e-02
7.817400671116944699e-02
4.004020503407705600e-02
2.368482570454250036e-02
7.398111925817674184e-02
6.158782261406767905e-02
8.881169705462046982e-02
2.910206623069584719e-02
4.280125722292255075e-02
7.125528451559129395e-03
2.706388136924747084e-02
4.374391203604743872e-02
5.431284446098577634e-02
-1.302165410886205882e-02
1.751565100125288682e-02
2.652410432613121899e-02
-1.744006767617561904e-02
-4.324146402176939213e-02
6.956804261760796138e-02
1.677637826570836654e-02
-8.722635298035553986e-03
2.356137256512111366e-03
-3.597432014068502326e-02
-1.385704836923527805e-02
1.286211286957374134e-02
1.278507207801408280e-02
-2.107387602314204911e-02
-1.954550371459785885e-02
-7.164422994553898416e-02
-1.926180271456888471e-02
-2.578840520007730230e-03
2.227337008723449113e-02
-4.739147762251583185e-02
8.432637856113749109e-03
-3.175020174642481652e-02
-9.781137683758656109e-02
-3.675727408547128233e-02
-7.500838155553204989e-02
-5.841723687682540134e-02
-3.980672389060836702e-02
-4.329171782280252095e-02
-3.491701636460160796e-02
-4.364071847262174925e-02
-4.045220613254837949e-03
-4.001885804820649872e-02
-4.825013932912464165e-02
-2.031081923038008386e-02
-3.434798786037311646e-02
-4.344340276664679368e-02
-9.363571864066290440e-02
-3.709267903177032588e-02
-3.038846520786854521e-02
-8.937870402278511039e-02
-3.993707634275009410e-02
-5.242582421846249396e-02
-2.419565601162130403e-02
-2.107831312241039562e-02
-1.861800364175974706e-02
-8.360204356143118021e-02
-7.912106808135975500e-02
-9.900505571448911524e-02
-4.378136194611807752e-02
-5.086482680769668224e-02
-5.872796263260464389e-02
7.015404568902379456e-03
-7.421638076724607069e-02
-5.209505847703956721e-02
-6.115046639248784138e-02
4.543962966824600241e-02
-5.437133484331194144e-02
1.542399674703584522e-02
-3.930159386402174576e-02
-3.776224907415710874e-02
-4.582923873176694696e-02
-3.450890595915355463e-02
-1.190701428458222633e-03
3.360769530859931964e-03
-3.953847991356208846e-02
-4.996773530412897124e-02
-2.044847385195175393e-02
3.155566855318191893e-02
5.022056044437037126e-02
-3.312475603374861327e-02
4.223600196048774014e-02
-2.483450013712061588e-02
2.216182388771530121e-02
-3.491734403893727301e-03
4.475337910178470158e-03
3.416116153291310492e-02
8.500229849330270815e-02
6.661898554636738745e-02
8.801334801741447778e-02
9.072572588685146044e-02
5.557096866186386763e-02
4.832319513101425434e-02
9.182443524060403262e-02
1.362087718817207860e-01
1.208211279387644138e-01
6.059854252246642953e-02
1.261402011726138750e-01
1.093275724226008272e-01
1.338654011920106246e-01
5.057183461288278226e-02
7.606139092867611473e-02
1.054495023612123661e-01
1.512099826986990081e-01
1.039357998394945803e-01
1.340634705259223514e-01
9.118046803687673840e-02
1.283907378650068487e-01
8.867363402551625695e-02
7.817042703957030603e-02
1.544375791642617901e-01
7.794948514275223950e-02
5.220002386453526794e-02
1.022870538214690761e-01
1.130715170896719746e-01
9.796370162895748357e-02
1.046890571595592567e-01
8.773016789912693736e-02
9.645205002337016442e-02
1.200316048014323234e-01
7.814481709132126142e-02
1.141233286881117859e-01
1.589507896875016202e-01
1.314141713713286863e-01
1.438886959009889610e-01
2.325403047421002178e-01
2.861486688719594995e-01
3.577640733373657622e-01
4.208398460148690123e-01
4.742470525971652640e-01
5.507772869211328137e-01
6.087399981121498493e-01
6.510927001815547399e-01
7.976757950608233116e-01
8.618756844718747923e-01
8.670418571837351651e-01
1.053789947084135648e+00
1.048279483589785510e+00
1.041313606511931278e+00
1.168424253197787754e+00
1.251366421513489202e+00
1.221353896383379878e+00
1.169881294686588191e+00
1.164355898393774957e+00
1.228984749165148438e+00
1.155475876934752844e+00
1.097943290534282301e+00
9.970212562235383214e-01
8.864263808733704453e-01
8.991324513330745116e-01
7.544526170683016897e-01
7.046171964756018369e-01
5.945167023181678889e-01
5.337180822947381609e-01
4.119473893476751636e-01
4.362320534921824144e-01
3.279575932969104879e-01
2.438111020456137645e-01
2.430371739675977749e-01
1.852334305457934704e-01
1.803162205056419443e-01
1.034402743709146449e-01
1.187478525544597291e-01
6.463311535326859980e-02
1.105103864129338420e-01
1.200608712020165558e-01
9.046218982396417307e-02
4.332592957728940292e-02
4.618266526082191042e-02
8.927621966536414266e-02
2.103867772346059567e-02
8.881712359603760598e-02
8.612897388217613526e-02
6.623203139742399326e-02
8.305110874493620843e-02
9.624606369705537845e-02
1.017230026469228832e-01
7.276619611679349675e-02
1.137668920236467041e-01
1.333451150811716113e-01
1.086105694660409043e-01
1.364376975227392097e-01
1.353988141701133741e-01
1.424011132269329405e-01
1.324726232391259528e-01
1.172623008958811330e-01
2.035880359735972311e-01
1.738313210509885021e-01
1.679770994530855044e-01
2.144300239890949700e-01
2.230088136409207333e-01
2.129615524600548815e-01
2.023033653087970840e-01
2.030188037926313194e-01
1.898256048670748930e-01
1.727767936793248860e-01
1.996224015858287792e-01
2.408575690146462223e-01
2.505366755265943102e-01
1.951044688000016236e-01
1.416967845306115192e-01
2.142103139120370425e-01
1.921125356245158844e-01
2.336720021903007927e-01
2.379690065959546019e-01
1.799135648626721540e-01
2.250384126019217279e-01
2.329624343242344131e-01
2.501919889284174303e-01
1.841875165871136033e-01
2.138625571205609310e-01
1.717242428229284468e-01
1.866841315024960757e-01
2.000016223879901578e-01
2.083476337325737560e-01
1.928865791303927268e-01
2.318426203499386606e-01
2.240141178814069600e-01
2.069386486315592799e-01
1.931068530276686124e-01
1.892581726178691470e-01
2.262527508397024212e-01
1.528944735450271375e-01
1.319386149339312198e-01
2.135453302793388630e-01
1.395291911141638697e-01
1.600465277583479062e-01
1.292863404409770323e-01
1.245152776090036328e-01
1.725136883772874219e-01
1.059611930890804188e-01
1.392165236343499701e-01
1.433616097125432198e-01
1.466631302540900572e-01
8.100377485701606983e-02
1.105513546556929488e-01
5.319256402189546928e-02
1.276297533781193816e-01
1.110016843954661908e-01
1.048530864255119710e-01
9.746047567149553059e-02
1.329218262387983351e-01
2.324030701879913063e-03
2.440847747195745016e-02
4.540191911913314671e-02
8.555990478334059290e-02
6.900246232011686409e-02
3.709073292467787719e-02
4.692172824201017167e-02
3.422505980055165486e-02
5.024250209311426074e-02
2.018369601210419362e-02
5.816289623934707553e-02
1.502128665063861418e-02
-1.557403177264519989e-02
2.358334868881493962e-02
-1.364208288949089569e-02
-1.158819902917144519e-02
1.431301996289402467e-02
7.166398042458256568e-03
-7.819845519312570992e-04
1.738411858843633834e-02
-7.946905546222036987e-02
-1.572805532070355866e-02
2.156386820581458058e-02
1.375520698733589606e-02
2.551430890129836870e-02
-2.898434700661218361e-02
-1.302223755225239213e-02
6.396929832275076097e-03
4.165834904589446955e-03
-1.849907789697589899e-03
1.609726746189590885e-02
2.338327127760826685e-02
-4.077076711438873749e-03
-2.391849039141263206e-02
-3.976049606084311461e-02
1.661572100786236697e-02
7.812416140230604017e-03
-1.688090346601330005e-02
2.868420520451905528e-03
3.741895551487888633e-02
-7.361929997732387376e-02
-2.544952690450295527e-03
-5.914606115953409404e-03
-1.682833376761109362e-02
-7.441058423294066859e-03
-1.493289073832569647e-02
-2.015237922930076392e-02
8.303906747882335709e-03
-6.129802687210759299e-02
1.508235497208964236e-03
-5.454447498411832060e-03
-3.861167178299457908e-02
4.083549120887540115e-04
-9.657374723586142212e-03
-4.786583137847442992e-02
-3.133755282197106529e-02
2.936597343403951621e-02
-4.520816090830671527e-03
1.777304710220102210e-02
1.743065874591483502e-02
5.761536498161937137e-02
5.013187104241932646e-02
1.867726381532141058e-02
7.327428417115379455e-02
7.096861761880265962e-02
1.325788578102760074e-02
-4.163287894008421870e-03
8.974672750895208370e-03
1.625126087663062574e-02
4.688596285669305308e-02
5.321323406964827835e-02
4.536298658675463197e-02
1.424359331785015649e-02
8.900523662206138997e-02
1.135745356616909701e-01
9.076776314087980913e-02
6.058921136795301227e-02
7.444765679577411421e-02
5.300106057355894601e-02
7.343939739693225444e-02
1.356225261511751212e-01
1.285736019894954674e-01
1.389336759224026607e-01
1.482630417855718141e-01
9.881940009242155820e-02
1.349514161732899287e-01
1.039667470833816887e-01
1.152128545797333758e-01
1.411408337468408047e-01
1.346998101220720223e-01
1.774052602405443158e-01
1.553818347290064350e-01
1.174626539806572223e-01
1.740410997077505295e-01
1.304192487637541586e-01
1.443356667179396258e-01
1.564591368465825805e-01
1.472169183172783447e-01
1.404517519641802215e-01
1.628542136365718207e-01
1.820268728377130718e-01
1.300174872946677218e-01
1.499960462097291447e-01
1.520293435425290884e-01
1.391232689248660670e-01
1.277475639377606831e-01
1.856213403726481581e-01
1.189188186622995858e-01
1.731572420496444442e-01
2.017429140725385539e-01
1.482147246060900592e-01
1.552170751078824351e-01
1.942190642774601628e-01
1.595068017854903153e-01
2.443333992350389117e-01
2.169188271431834458e-01
2.896222236091948177e-01
2.548481443839909488e-01
3.632372118253400228e-01
3.286908238241121882e-01
4.643759668510896721e-01
4.785179118694539158e-01
5.380778080632532268e-01
6.503423186992683958e-01
7.405057099284384492e-01
8.227307225169031568e-01
9.313625097789052232e-01
9.884057736863082200e-01
1.071027350115670629e+00
1.117710571856533663e+00
1.174961609387480399e+00
1.251898051286735258e+00
1.313606339063010831e+00
1.238239980477869873e+00
1.277855734845777747e+00
1.245703571957379685e+00
1.238862656581249944e+00
1.233068718892183835e+00
1.119079521640312214e+00
1.036705282125397698e+00
9.150546241823683813e-01
9.544684255307470666e-01
8.032217867612848616e-01
6.632060659518862478e-01
6.977774080535705803e-01
5.997457533001506746e-01
4.674319174959541412e-01
4.553948751484731550e-01
3.842420316486568344e-01
3.685084152958292281e-01
2.490101732317351324e-01
2.733555818451050556e-01
2.133127318621870772e-01
1.255975350269074586e-01
1.660930780036076193e-01
1.366070332486873651e-01
1.214079713463562527e-01
1.387485662244827833e-01
9.878310181949438717e-02
1.338200782230276609e-01
2.003225120697866013e-01
1.330166185467487605e-01
1.625349370316470921e-01
1.415480777264536139e-01
1.398816072659244680e-01
1.228418996639339400e-01
1.400885053833338389e-01
1.485448363859671050e-01
1.698834597427743565e-01
2.103831850108462409e-01
1.377739300077178708e-01
1.904365937891278338e-01
1.609534628148625857e-01
2.265300145413461641e-01
1.701573308309670685e-01
1.789266624791206184e-01
2.081918723978033459e-01
2.423097554735544334e-01
2.557460297803093585e-01
1.966690710729318003e-01
1.901705903870677394e-01
2.492774238543810639e-01
2.110307875148387247e-01
2.325171496630912826e-01
2.242786489944816886e-01
2.437819420505474288e-01
2.468529025250567610e-01
2.615962177506965247e-01
3.027005313478160486e-01
2.474362920239014663e-01
2.721920196308199591e-01
2.802996955906933430e-01
2.549581257355873487e-01
2.906985646114080279e-01
2.827186229095122183e-01
2.687187368067873172e-01
2.700505405882643317e-01
2.893323998557720822e-01
2.885955030171110658e-01
3.179894014053336604e-01
2.901612004866912509e-01
2.871554517333988477e-01
3.269720584953568210e-01
2.825064965989059762e-01
2.626064759194084441e-01
2.769921417166160138e-01
2.369230347933239944e-01
2.949424693103985806e-01
2.151377837159144379e-01
2.208965726156205400e-01
2.313654611465638944e-01
2.358185947978707619e-01
2.597039146588578928e-01
1.797955652906122193e-01
2.325585451729645370e-01
2.640457578691882135e-01
2.378170468049820852e-01
1.946214360429928403e-01
2.378364132888505234e-01
1.523705082394152255e-01
1.568215988623538892e-01
1.818318491553066185e-01
2.325249811779962761e-01
1.844360073139846568e-01
2.209667171482361248e-01
1.776817918476635560e-01
1.491770200440766247e-01
1.554351407489495684e-01
1.819978554500735479e-01
1.078826997774615382e-01
1.374120549191835683e-01
1.829229915490582226e-01
9.356137875489256572e-02
1.137969730864956952e-01
1.013002078992400468e-01
1.274920210111037677e-01
1.054166532681040519e-01
5.931640484660390816e-02
7.013357771645156724e-02
6.419512330099789998e-02
1.218532167342778472e-01
1.005194423642278984e-01
5.168585241877250019e-02
5.475832564041051287e-02
1.025901630678792420e-01
6.246708641516770383e-02
9.178727324997722203e-02
1.028475152367868545e-01
6.063338441771908005e-02
7.960329708958335804e-02
3.510499331298768538e-02
6.783863868704102795e-02
2.377973904341798214e-02
9.724476818867403005e-02
4.214737006718159706e-02
3.991728681986325689e-02
4.546686965834319250e-02
3.664574795201586133e-02
5.424290218692534582e-02
4.208134562337621093e-02
6.891255642535522308e-02
1.278239812393278108e-02
-8.045991865632803886e-03
6.062352719065416951e-02
6.116879905507838222e-02
1.376279880131557609e-02
6.119814642311040276e-02
3.511690256812015354e-02
3.461298120583301829e-03
7.811000639863956152e-02
1.044532606874832015e-01
3.724953230997034986e-02
1.231728508865844451e-01
3.550544737377538812e-02
3.561850649322757106e-02
2.980623262517347744e-02
1.670818851988726053e-02
4.167027402745558662e-02
4.098685226407076249e-02
3.979325240412531772e-02
6.368727100200866076e-02
1.236268342509135587e-01
8.910124927367207848e-02
8.805130197766349032e-02
3.646545684301620571e-02
4.791824531837970969e-02
4.241735046399335712e-02
2.479471408988120212e-02
8.853327274796679580e-02
1.716939845342872750e-03
1.020355506865334438e-01
9.090623008923395809e-03
8.999360939766709588e-02
3.159524483183311083e-02
9.442436687157079733e-02
1.108603898980047159e-01
-5.529487080431036428e-03
7.935919242848739341e-02
1.681525201270669401e-01
1.015554471427310007e-01
8.706938222842020014e-02
9.857865249995692580e-02
-7.064876378136963897e-04
1.235398786238277591e-01
1.277669876873326338e-01
7.690950610833707790e-02
9.486340260313566586e-02
1.139511857565406738e-01
1.346433054773238380e-01
9.831644816926693453e-02
1.211294250761754121e-01
1.261055224547963649e-01
1.150274273652742152e-01
1.535878601520112574e-01
2.163454357845582821e-01
9.224303358223928662e-02
1.701378773809750222e-01
1.877789725453939407e-01
1.581929692291424161e-01
1.854213030742367652e-01
2.040578382118297951e-01
1.730298832316038149e-01
1.994998938125309151e-01
1.957003357121377685e-01
1.573878086086766548e-01
1.640477469677548983e-01
1.611769674165737243e-01
1.371358652215791951e-01
2.315997986740749581e-01
2.402936853177834176e-01
2.293104468954219044e-01
2.154341775639125878e-01
1.863023714063516689e-01
2.066326918817910641e-01
2.008445447124837802e-01
2.138601364002035987e-01
1.633700768089131339e-01
2.095463374320681582e-01
1.931267013972822189e-01
1.250209807925335426e-01
2.045133268824094741e-01
2.140304926696295629e-01
1.320028441055205448e-01
2.232429468956354246e-01
2.008434505392644176e-01
2.703119418854905698e-01
2.245784760777641831e-01
2.219540315838102185e-01
2.696399613893749603e-01
2.446349621977414734e-01
3.165559753960585643e-01
2.990747378509601151e-01
3.676746413218062726e-01
4.185129265643662833e-01
4.689039319398252137e-01
5.717258038963322075e-01
6.564049778495087972e-01
7.150412240937660258e-01
8.173703137063496049e-01
9.039683053659592904e-01
9.168628915220873310e-01
1.017440605322395886e+00
1.079749254948278558e+00
1.162021167444503122e+00
1.183657217764856773e+00
1.249163456708987985e+00
1.322723022971173057e+00
1.321877199135842451e+00
1.277440937959601897e+00
1.253414263647787630e+00
1.298170331887970042e+00
1.220519719269529180e+00
1.158250273602950520e+00
1.019977729615022088e+00
9.624216575317985356e-01
9.242306972138719656e-01
7.791471583474324225e-01
7.660256244294468830e-01
6.184675060843338734e-01
6.118131085187774598e-01
5.085666565850992527e-01
4.543088085995140579e-01
3.894514998355138036e-01
3.280961097686113659e-01
3.498071556787966663e-01
2.596229248366599962e-01
2.291092198547675096e-01
2.253349964729927934e-01
2.362610671385242389e-01
1.890668875475667587e-01
1.795585662415724038e-01
1.803971790546099463e-01
2.315246289630450705e-01
1.679410199350103716e-01
2.040050550960260112e-01
1.273439248782041178e-01
1.506093297517488439e-01
1.859843684807420128e-01
2.317533639332809148e-01
1.856581651042226722e-01
1.834870489561360174e-01
1.863617279917952341e-01
1.996089936736953896e-01
1.875659847747485898e-01
2.130405641788419568e-01
2.162306968305122978e-01
1.998182609503439677e-01
2.071542679680938859e-01
1.861849293583446030e-01
2.168638170050081471e-01
2.568412260194026797e-01
2.484501478351987536e-01
2.332351042058479207e-01
2.081593371058576558e-01
2.562149024309713918e-01
1.930980806132225613e-01
2.161414077476952744e-01
2.588426982634164375e-01
2.629908153472193533e-01
2.839907637445604482e-01
2.841554468723152538e-01
2.726064245692245702e-01
2.686539927426065399e-01
2.953091768121270388e-01
2.949720821495876999e-01
3.074135572145808015e-01
3.236839441554726360e-01
3.091832381897953175e-01
2.948276864595220093e-01
2.840925888155746426e-01
2.935929439983530065e-01
2.877616623393554063e-01
3.192484409374948817e-01
2.587323769067950141e-01
3.377954148086128594e-01
2.984963463540707962e-01
3.355807175836134082e-01
2.943868773768070768e-01
1.976017908502445408e-01
2.715237880494261180e-01
2.867635720423558077e-01
2.769324478498679798e-01
2.373746546161577820e-01
2.393325045741482027e-01
2.436874831322620449e-01
2.741664380157552983e-01
2.756746457527627925e-01
2.387111944222150839e-01
2.313564688769844946e-01
1.946534853413776633e-01
2.123061419179144149e-01
2.213833082312700318e-01
1.719127257156402577e-01
2.162589324149448711e-01
2.443033326838955077e-01
2.206539422939841344e-01
1.536669260757013433e-01
1.621088496751345587e-01
2.095586680916638467e-01
1.891468970721677245e-01
1.708333238860297310e-01
1.363378168983809813e-01
1.720101797390998777e-01
1.301439350013914864e-01
9.617218321122630864e-02
1.500680257757555647e-01
2.061039575528147150e-01
1.640704937562040833e-01
1.387493003341468412e-01
1.352686764558947985e-01
1.120551121081328205e-01
9.520880554192098777e-02
9.499164987803539184e-02
1.591446422735703081e-01
5.856289732040152740e-02
9.579247894043234346e-02
1.026396864171905399e-01
1.017573105458757787e-01
8.068273161065336874e-02
1.023380645067480665e-01
1.248842434168498106e-01
1.175134319006280181e-01
1.388322119864992543e-01
8.099526062875060661e-02
5.191291154959683241e-02
1.161065455961607651e-01
8.038838397254154111e-02
2.856599945864113019e-02
1.144061734167399896e-01
5.208387846592694298e-02
2.857831158640216501e-02
6.374562550521360726e-02
3.214066319767171914e-02
5.919898061522307908e-02
8.425553429516566273e-02
3.945430839342704138e-02
3.364942476047985687e-02
4.987947465028402805e-02
3.332121212064771687e-02
-2.072290954624647630e-03
1.626925766431010917e-02
6.865644071156906669e-02
3.927346304768833396e-02
6.252449450648403517e-02
3.152217362770910053e-02
7.112080191854093514e-02
2.248916573630706933e-02
1.387050123154640047e-03
5.134066883395102532e-02
4.871346984147643944e-02
6.388459035202129210e-02
5.237209891376563842e-02
3.040652066681844012e-02
-2.326094305629442666e-02
1.809212830974318495e-02
6.709365138509058857e-02
6.496124360615382343e-02
2.875979660686885098e-02
6.683345928641509781e-02
9.589827133061989972e-02
1.213198264563517814e-01
9.290840614362876060e-02
2.250527138229584112e-02
5.989539586697606444e-02
6.341484117785084473e-02
8.920561931758239083e-02
8.928053267127253334e-02
9.056937102075954260e-02
3.639319841571711511e-02
8.573431394455670318e-02
5.026866036875303478e-02
4.916035087464408482e-02
5.589982462780310885e-02
8.881796326375673845e-02
1.369899957833646542e-01
1.202751849008163731e-01
1.159616137564592198e-01
8.356660895335926709e-02
7.929748455254516382e-02
1.028171743188217580e-01
9.334057649899282771e-02
9.251323952990303523e-02
1.072619524314852857e-01
8.840631083647609856e-02
9.679527440309494690e-02
6.964516588836919264e-02
1.067061368098502494e-01
1.154984159294715484e-01
9.163972587557930871e-02
1.474957161982177190e-01
8.965589206871737993e-02
1.124367936233452991e-01
1.989227828414513455e-01
1.388575706358561590e-01
1.828462146911322417e-01
2.144660990094047759e-01
1.845437758296567532e-01
1.423567103820045920e-01
1.928006295851768526e-01
2.141894465993620378e-01
1.820378954942386551e-01
1.664422657245050730e-01
1.782562091410561655e-01
1.688839466089217256e-01
1.411559215395338240e-01
2.200629991928670093e-01
1.878712562311598278e-01
1.807844087236035457e-01
1.394504946481818775e-01
1.571326247513354646e-01
1.512745356279008024e-01
2.045496746078188655e-01
1.589493463457416766e-01
1.249755333067420482e-01
1.798617516923725346e-01
1.909176605683483852e-01
1.139651843453645258e-01
1.047315590389666512e-01
2.410088305818225973e-01
1.628967162567630800e-01
1.808449071282734189e-01
1.373011402736530884e-01
2.085751557753336427e-01
2.469180984541862189e-01
3.010273833326375104e-01
2.569263844780590444e-01
3.503740637307094508e-01
4.401601879765372760e-01
4.820241657412566716e-01
5.410668352445071605e-01
5.996677653726562029e-01
7.142930380709467952e-01
7.064565553743700210e-01
7.924813657873739370e-01
9.510871637345088558e-01
1.017441951654168619e+00
1.089117214183713767e+00
1.127928064186800139e+00
1.223286377466423991e+00
1.230180209759704102e+00
1.265435722766205417e+00
1.243962979875737895e+00
1.257977605106161523e+00
1.255700043340875149e+00
1.192618465412054407e+00
1.164456952479712371e+00
1.136767008636756504e+00
9.964618639556457325e-01
1.024343786927246702e+00
8.945141718362785710e-01
7.823594298292793070e-01
7.537111861764160814e-01
6.418179511410384563e-01
5.657441098404277779e-01
4.936952387976485390e-01
4.437000592349344963e-01
3.752344064010376679e-01
2.806078358085210001e-01
2.476611214703519082e-01
2.243694208517761080e-01
2.045167056466473399e-01
1.921744237294131519e-01
1.906469969938724973e-01
1.103298369726122413e-01
1.332915042454628773e-01
1.488324166961965123e-01
1.316731336977146338e-01
1.402395326159917854e-01
1.207231726022544860e-01
1.255619795051445553e-01
1.373644361280619008e-01
1.703854592413878710e-01
1.312166587201974710e-01
1.206600000448165427e-01
1.726138528648279713e-01
1.106906109133737187e-01
1.151116483684282987e-01
2.343416510346589543e-01
2.000814061798828203e-01
1.834633263363926736e-01
1.610238211654742568e-01
2.000625810962609885e-01
2.145170211784407088e-01
1.748458569363582626e-01
1.840193507799041395e-01
2.413939901851815117e-01
2.070322260570788830e-01
1.535043057042645154e-01
2.035084280075950269e-01
1.484680243111926035e-01
2.205229392217660234e-01
2.308477197977464868e-01
2.669140000198141349e-01
2.394260862158946179e-01
1.882363934467516375e-01
2.519255038764349752e-01
2.675217712800876946e-01
3.061844750239523516e-01
2.498218284185308724e-01
2.687334998571138667e-01
2.487894187965821735e-01
2.231761575306981105e-01
2.540004834300027547e-01
2.633225607913780020e-01
2.848228952750631593e-01
2.600536793941906621e-01
3.139197215301726129e-01
2.816836169862302897e-01
2.021627868066430134e-01
2.048782597397868499e-01
2.794209718970310230e-01
1.807968253015024562e-01
2.227672993409923474e-01
2.329175635508402564e-01
2.083502098976785233e-01
2.120147496656569208e-01
2.290950179292334243e-01
2.230573639035366429e-01
2.699104632593145592e-01
2.208419901136634000e-01
1.452293406531957320e-01
1.972539649575490162e-01
1.848980796986748332e-01
1.726883963038472469e-01
1.722325167039859273e-01
1.865314423348380379e-01
1.890496702724682732e-01
2.124306200894394148e-01
1.324723325606573798e-01
1.810686619235236938e-01
1.585475993653538695e-01
1.682579291630098839e-01
1.379678715518790899e-01
1.046470012290198204e-01
1.275777258976249495e-01
1.618998800566767982e-01
6.543146615529718546e-02
7.591472236181780187e-02
1.315605486081012354e-01
1.271355549390698891e-01
9.635958208648201517e-02
8.943312892706678507e-02
5.744990622570071009e-02
7.435620906649689776e-02
4.132447410708159352e-02
9.682078773995915488e-02
9.541875845387116917e-02
6.382120497257552649e-02
8.680786602145484920e-02
-6.360064671797793952e-03
5.425837602160796247e-02
4.741340334138544055e-02
1.067175258376308611e-01
4.049329936355052645e-02
4.703289652472694704e-02
2.846982689582839079e-02
5.858838442684708575e-02
-1.953184854520023661e-02
6.985499151045168609e-03
2.623746876366265038e-02
2.790561848802454101e-02
4.733215929368681657e-02
-3.554001087964245992e-02
3.898034939393115600e-02
3.308387715732992451e-02
1.962154416680728791e-02
4.464841240517325449e-03
-1.536769164387899629e-02
6.059495756985353032e-02
-3.710288057714367094e-02
1.936159578923486724e-02
4.074978121045691459e-02
3.278261604693432502e-02
1.772224183564322791e-02
2.579794364949093699e-02
3.977520064166053387e-02
1.596383518895874015e-02
-2.475059440681729589e-02
-7.482473006445980457e-02
1.298782357047071657e-02
-1.300418402811288898e-03
2.918753258638599746e-03
1.239277106774455336e-02
1.778922639605998862e-02
6.266318230354998853e-03
-5.553549779733072886e-03
3.101530534294557120e-02
-4.509222321727135441e-02
6.557136641638703842e-03
-2.709745416621799075e-03
-1.657069847951674404e-02
-2.903835504149446245e-02
-4.086858739730480500e-02
-6.029745121017678067e-02
1.140697531985370057e-02
-3.365169865810110558e-03
-8.136432930957684939e-03
-3.815733529957132664e-02
-1.320175934624634277e-02
-1.051163461138925406e-02
4.859123730595670682e-03
-6.973502925887505033e-02
1.137242455713198888e-02
1.211804847816015315e-02
-2.785407871059330728e-02
-7.883820111930599922e-03
3.137213696726300072e-02
-8.590010721316099218e-03
3.740952033749943978e-02
-1.633093217256395904e-02
4.359152166157756469e-02
7.301916626202657745e-03
6.002324286659407870e-02
3.320251981158518773e-02
3.704248279983925196e-02
1.242661398777112486e-02
2.598055184094952286e-02
4.559042036811053467e-02
6.073569959326333145e-02
5.576381006085247283e-02
4.052269396249853078e-02
5.785857027490194648e-02
1.165140414267837182e-01
1.023734040877554846e-01
8.245298923516856948e-02
9.115286502856848050e-02
1.037220977734731459e-01
8.147300501850703036e-02
1.034615898600488582e-01
9.441836067471201521e-02
8.505619530237915060e-02
1.775687464721602271e-01
1.150037258139936236e-01
1.355563957965878752e-01
1.050813776060476046e-01
1.065165905322167095e-01
1.607887946626377629e-01
1.057342115767525709e-01
1.272906722678502633e-01
1.624576392150091642e-01
9.746509789508631116e-02
1.008039662947414761e-01
9.965688157715862916e-02
1.200205336151779212e-01
1.245053161436641409e-01
1.531551444555838692e-01
1.282269962802455310e-01
6.697892160472701528e-02
7.367270406861174681e-02
9.959283676661520590e-02
1.273619903717657098e-01
1.475896792978544092e-01
1.070385115486245098e-01
1.080041834621983804e-01
1.404973864232220704e-01
1.551127435679470756e-01
1.972183584599036810e-01
1.377245614045737032e-01
2.199484429564904919e-01
2.197426934581594993e-01
3.040944684552169819e-01
3.604758142230389817e-01
4.586823179262322081e-01
5.100410483359461011e-01
5.902926184661707598e-01
6.544942123906087872e-01
6.773153844334699469e-01
8.287960641771133785e-01
9.027085417042174376e-01
1.013752934498635128e+00
1.045555250215889131e+00
1.080961512447859763e+00
1.209477426039162085e+00
1.199395325307282656e+00
1.167408234666707401e+00
1.232787332202922359e+00
1.189288138657008220e+00
1.270139145097148425e+00
1.157889320018333779e+00
1.144079558742876479e+00
9.926231088669521530e-01
9.546384319284818565e-01
9.176693572290253176e-01
8.267586486733029538e-01
7.086688459982779520e-01
6.344992037550161168e-01
5.235165539795373357e-01
4.672711856444980993e-01
4.542392922206157091e-01
2.987222192105957741e-01
3.326784885190791630e-01
2.949574985532248395e-01
1.544240980938820784e-01
1.588360901912131140e-01
1.840205109879723966e-01
4.177112522234330272e-02
1.006998447812332553e-01
1.317608848732348681e-01
8.208638071595569796e-02
3.836861450448245808e-02
7.537690533427515716e-02
7.064658129974457634e-02
4.894957771324382617e-02
8.580565654119517993e-02
3.980586892307164809e-02
1.014026771172165942e-01
7.577950220515991542e-02
6.739252516476779142e-02
7.919409125748154421e-02
1.267140130627325834e-01
8.954668648426353239e-02
8.759383312887542017e-02
1.028810224112351457e-01
1.967672091150917124e-01
9.085035118854101199e-02
1.628011378920338204e-01
1.634645497068938358e-01
1.310812395573163203e-01
1.240718823994942099e-01
1.716508519842510072e-01
1.837223994341472544e-01
1.830574947528743335e-01
1.960478124670149980e-01
1.986829926576446637e-01
1.849577899986482588e-01
1.857184005241612756e-01
1.752655911805963695e-01
1.847958991516478744e-01
2.044977336695608938e-01
1.265447425047963315e-01
2.010927812287555960e-01
1.695672292327318198e-01
2.146371991882843056e-01
1.892524899597327614e-01
2.423463395270451515e-01
1.998526611952789467e-01
2.034783379413485638e-01
2.082387239975819204e-01
1.984013623883621180e-01
2.031622909980187741e-01
2.347548404180041237e-01
1.904944468040009331e-01
2.217680293015972248e-01
1.966314115797210271e-01
1.881252311826061563e-01
2.354671579356439892e-01
1.652262359990749330e-01
2.284892511223214906e-01
2.125165774979033140e-01
1.678333162856577021e-01
1.705316872590883215e-01
1.736262545415470648e-01
2.285745270719169997e-01
1.821297132868265056e-01
1.243243774523648121e-01
1.321710245057732547e-01
1.295879533526272942e-01
1.778520064027778180e-01
1.685248525468274194e-01
1.558302813262901210e-01
1.754909341591487371e-01
9.950165209868833127e-02
1.075975609422426954e-01
1.245837602946053280e-01
1.618811088142133314e-01
9.818877001084468092e-02
1.341989651881400625e-01
5.336635050478503312e-02
1.299850059950510839e-01
7.852984085409531190e-02
9.349171800213504357e-02
6.229693636297707615e-02
8.103235100522590550e-02
3.317991598895433242e-02
2.065273751297204419e-02
7.965640848856592182e-02
9.689550334529073439e-02
2.444150831597058371e-02
4.865492482822318665e-02
-2.636188596861231692e-03
-1.177047156943692580e-02
3.847056912728566425e-02
6.694584252602706065e-03
-6.701316859641398560e-03
8.254584429218246588e-03
1.563859606764779475e-02
-3.879364658317689674e-02
-2.115816360719567982e-02
-3.603533805035988302e-03
-1.191740472149326741e-02
-7.938097100370791748e-02
-5.736955652107020298e-02
-4.921752383635220884e-02
-6.099097152071758510e-02
-6.277818225185480272e-02
-4.753902711046503748e-02
-1.584368709313300344e-02
1.299592837561887315e-02
-6.352650759517561307e-02
-6.668384753785043528e-02
-7.213966019400813723e-02
-6.329842774727455212e-02
-2.580673432800165840e-02
1.903253097019819845e-02
-5.102391950027719558e-02
-4.708505531687727508e-02
5.949784686207680584e-03
-2.476580517643502816e-02
-3.167041944184263713e-02
-5.152205965713387015e-02
-4.632046127922108403e-02
-3.896212089801986272e-02
-7.482734713864877540e-02
-3.983593772673374445e-02
-2.499278895936644929e-03
-9.374867218846341665e-02
-1.718577007816187580e-02
-6.219327397439182448e-03
-6.128361256800715640e-02
-8.081477259095347365e-02
-2.541400322730211561e-02
-8.725260158313433156e-02
-3.918192183385476451e-02
-3.040039274674107006e-02
-5.669419329355492726e-02
-4.944920788612652829e-02
-6.729418763133376835e-04
4.954419296907631998e-03
-4.039898868509056440e-02
-2.504658012752480900e-02
2.893865824941256604e-03
-6.133145781529267260e-02
-1.776988938947397789e-02
1.278733499678468000e-02
-4.683521197058517632e-02
-7.207361082389299178e-02
-4.962318970483103886e-03
5.164826285761403568e-02
-9.149396777563163774e-03
-1.303224295979988484e-02
2.543699888560010253e-02
-6.070484624345584557e-02
-5.384537990497598181e-02
2.102089493806047482e-02
-7.553072509724186034e-02
-2.377577086687122920e-02
3.181928361415718720e-02
3.976612749801548136e-02
1.027482239017522142e-02
-5.285838170997211871e-02
2.051073536777137801e-02
2.859645163847922972e-02
6.672419749243579945e-02
2.510024265795676029e-02
3.776291507273867726e-02
4.311238046141646629e-02
2.004149244479436903e-02
4.423229940392813669e-02
6.890487959225680137e-02
1.244258119087379710e-02
7.784187478615708922e-02
1.044165940227081146e-01
9.077423316439955925e-02
8.401696839550712448e-02
5.234687269985068003e-02
1.070850059975120283e-02
8.267116543949493135e-02
1.438538391066585265e-01
1.275612986965041218e-01
9.103287490343442423e-02
8.979651548606980282e-02
9.790572263792030050e-02
1.547024103621139068e-01
8.424121557155397899e-02
8.946298449390760466e-02
1.270664078013002962e-01
1.107624060758755913e-01
1.359776083113945488e-01
5.602303526868418482e-02
1.041696456660890224e-01
1.517964355731761805e-01
8.346501330476180369e-02
4.824498519840209054e-02
8.334528798630766455e-02
7.911710439359788405e-02
1.057381052497836094e-01
1.146556138825133297e-01
1.090747870938139630e-01
9.369469166842678276e-02
1.494475026039761845e-01
1.578627357329827618e-01
1.541031871522365870e-01
1.894660428750002401e-01
2.935238185358875485e-01
2.849039816763242472e-01
3.593470324501448765e-01
3.784465752875683653e-01
4.583159972316719344e-01
5.680247079649413111e-01
6.516759542051882015e-01
7.277357804765913762e-01
8.262772622327080319e-01
8.977329518477012993e-01
9.786230881212626409e-01
9.879540397855134382e-01
1.039582793995723398e+00
1.141132468770739372e+00
1.076718808973995634e+00
1.193998160791830410e+00
1.197878976470277523e+00
1.219688976313566320e+00
1.180838282305315401e+00
1.155512739913167941e+00
1.108143675184130705e+00
1.050060927608665429e+00
9.909553013964566004e-01
8.645139585534618032e-01
8.167044403386555240e-01
7.270834443275639991e-01
6.525386679241014232e-01
5.313338975678070231e-01
4.892743254123159136e-01
4.004623163486737969e-01
3.283238808928974350e-01
2.644376003876349746e-01
2.138248139521349289e-01
2.579699340605897673e-01
1.896546991732897258e-01
1.969404772658069902e-01
9.868192633824071636e-02
1.036493901280500507e-01
5.870568331857832500e-02
8.011293991332461839e-02
7.510019885282109842e-02
8.438639384336432681e-02
7.342539642353725082e-02
3.226873946578621977e-02
7.724969213825466641e-02
5.437524612886719677e-02
7.282352964202182255e-02
1.041077942821478919e-01
1.081993788973872883e-01
7.063441403472509039e-02
6.411123296154841444e-02
1.002113027740686585e-01
1.243957846306924520e-01
1.170168987850212089e-01
1.204575690022059720e-01
1.160486602651787380e-01
1.032032330500916584e-01
1.129398913181906550e-01
1.413983264229250469e-01
2.238718814937844803e-01
1.358857593324833135e-01
1.211298425443103066e-01
1.649357726228689036e-01
9.417135073796667477e-02
1.190960349092341081e-01
2.118853224653556300e-01
2.285333138569876632e-01
1.306647709032398019e-01
1.777654176989044710e-01
2.330063186666284369e-01
1.544748182533622338e-01
1.777234978403629539e-01
2.458798033212613310e-01
2.153796880412288950e-01
2.249252693661849267e-01
1.754294681038004455e-01
1.919240984526962845e-01
2.242565230568757673e-01
2.073390559695225399e-01
1.684075599027290426e-01
1.895081369510522307e-01
2.635366904294024204e-01
2.087838515415605944e-01
2.602332724049588042e-01
1.892250874988120890e-01
2.034595995726065920e-01
1.674847418971607826e-01
1.863328737709836203e-01
2.416896243831286872e-01
2.420097489941816504e-01
1.643817386111399992e-01
1.846844800725575275e-01
1.752492806337951070e-01
1.524120162921011878e-01
9.928072573381443999e-02
1.625337479676024488e-01
1.769613291145122336e-01
1.534986340651484926e-01
1.778257809541479439e-01
9.658217699014542967e-02
1.086676884356541362e-01
1.951198323806721535e-01
1.072776092685291671e-01
1.151883831485007170e-01
1.097423763738541724e-01
1.351054650970060778e-01
8.322319626635288348e-02
8.939262506643944062e-02
7.906227193509572648e-02
1.245591407826360658e-01
8.353410740089722841e-02
4.860395999111765536e-02
6.373395475825499590e-02
9.378624487784964492e-02
2.056267709990517584e-02
6.857277286875218536e-02
1.045100869531653542e-01
3.520203777317115063e-02
6.285611817724748307e-02
6.388045950213136481e-02
2.628042984773680535e-02
-4.065248768302347215e-02
2.500777617482365794e-02
2.316488071853647912e-02
5.656271908366825030e-02
3.201265320631498101e-02
5.273217047266139101e-03
3.939199122611403842e-02
3.016119679914407159e-02
2.991354263843338385e-02
1.475493357601571909e-02
9.044854495890590484e-03
-1.784334331829844425e-02
-5.019682380818787232e-03
1.394246526515498935e-02
-7.684578144590750032e-03
-1.041931420869583041e-02
-1.818699707416619737e-02
-3.100074328614478916e-02
-4.180640245000431798e-02
4.152634168524710345e-02
-1.097521707756873161e-02
-3.245236013447823364e-02
-4.701330969808844434e-03
1.307313403527671225e-02
5.005273148213272572e-02
-5.313730876705427542e-02
-1.149380110547630618e-02
3.867028952712422973e-02
-2.623599016807854484e-03
-5.689961858022232061e-02
-3.867529059504139222e-03
-7.897861252839383922e-03
-7.097872145755743101e-02
-1.091161401273388343e-02
-4.254018907886694678e-02
-6.946467593272906416e-02
-3.606027703834746578e-02
-8.542094069940886492e-03
-4.237396268142614580e-02
-7.569235188476414189e-02
-5.775363515671992631e-02
-8.275193627519508710e-03
1.050625597392580018e-02
-7.711065949557706356e-03
-5.590543749218199188e-02
-3.597001459066550416e-02
-6.611748934857361593e-02
-3.175223563917942138e-02
-1.428883733233639840e-02
-2.537901539296370801e-02
-1.632056391939568085e-02
4.946258523723139761e-03
-1.023275412716181075e-02
-5.817191259575570789e-02
2.088399088846121243e-02
-9.417159715397260128e-03
-2.722861024674443076e-03
1.481975740088398510e-02
1.944082141105742123e-02
1.710771972254304316e-02
4.827890528388668889e-02
6.501934574372446318e-02
2.625377209549673019e-02
-2.996344140434880829e-02
6.997876491238075314e-02
3.476371270197088637e-02
6.270150722651124386e-02
9.054356369327343224e-02
-1.027803345980984190e-03
2.775254656376453799e-02
2.364879733897449349e-02
1.924091745394661962e-03
2.984872806394006650e-04
3.693889647502057727e-02
9.650185429245972113e-02
7.703962554781038086e-02
5.691498394866513488e-02
7.003032327998559570e-02
7.662516322924532719e-02
5.117791994303321629e-02
8.061002963242606956e-02
9.933161420924278839e-02
9.744264899617914588e-02
1.357686229657759924e-01
1.314674602634986755e-01
1.271467799974861368e-01
1.127003387277345642e-01
1.721190908859983881e-01
1.514490509331271884e-01
1.294920782916796076e-01
1.370721620359362236e-01
1.215332764089793183e-01
1.609149357608923303e-01
1.569175786303880771e-01
8.805502537210016523e-02
1.651087749372961155e-01
1.715181174020230792e-01
1.302693964781194702e-01
1.176063676914880091e-01
1.240669711089538302e-01
1.266243465166510540e-01
1.212007422480086138e-01
6.861859803360739751e-02
1.416716108523405626e-01
1.130451589148278591e-01
1.646484687128026980e-01
8.077782764010597860e-02
1.467534110818403403e-01
1.860334241941182798e-01
1.812749046244518936e-01
1.868650911427978678e-01
2.650850505417259306e-01
2.308646819749478052e-01
3.136879726200015317e-01
3.345360451189528517e-01
3.579917541458080277e-01
4.228836943170530271e-01
5.295876470467050234e-01
5.788173629683213139e-01
6.542242439197006876e-01
7.957997865756611944e-01
8.249746684040222267e-01
9.097621890839634462e-01
9.928171287409682799e-01
1.045609641602280426e+00
1.149388118759085087e+00
1.227950581435270472e+00
1.239085579077354282e+00
1.181252663487011079e+00
1.219007395570945951e+00
1.240563814002307863e+00
1.202190321923214622e+00
1.149125310520050736e+00
1.148729128698183333e+00
1.133242363893646631e+00
9.491121379862150764e-01
9.552953150169827268e-01
8.329189750367193001e-01
7.220323898883530545e-01
6.518002940599463280e-01
6.194754849989506651e-01
5.330089711232236516e-01
4.429612623544638694e-01
4.285186300622091382e-01
3.024407898284803831e-01
2.758431640300580967e-01
2.101754010164129660e-01
1.955864028684783928e-01
1.908924514190119548e-01
1.415451227527146083e-01
1.222382501356966134e-01
1.765406645970353239e-01
1.300388053478624406e-01
8.741505736559410100e-02
8.012923332217575245e-02
1.302705283527215707e-01
1.264729981898194133e-01
3.323482861522069481e-02
1.420877778849755080e-01
1.280320932107049392e-01
5.366515168814963571e-02
8.867498664440162659e-02
1.433963381857049635e-01
1.008180847988780909e-01
1.821899976387738040e-01
1.643134801096967912e-01
1.702579725307501735e-01
1.727113685084155636e-01
1.510969948515274996e-01
1.715347241046847326e-01
2.012439082767386589e-01
1.535136154451250123e-01
2.109384222464062986e-01
1.853282441383187207e-01
1.964898649566184097e-01
2.052746509145417508e-01
2.421129439893029422e-01
2.206180331450953158e-01
2.418466075727590259e-01
2.618828196995336421e-01
3.156084025409415239e-01
2.235083317970870120e-01
2.327466502333219722e-01
2.325076938291257000e-01
2.535238933904210845e-01
2.523829071226328380e-01
2.445921686629960456e-01
2.783440087174314237e-01
2.175836341204570867e-01
2.627104263531745421e-01
2.669724862888926409e-01
2.635217879161675381e-01
2.519849680064999986e-01
3.020809093244932186e-01
2.766587445897253361e-01
2.181253084141311638e-01
2.371843779010243125e-01
2.613775063888751915e-01
2.370412878420226910e-01
3.011290044440448344e-01
2.327726697111464904e-01
2.470434655432172666e-01
3.139531581861318421e-01
2.525532403943906434e-01
2.998373522029557647e-01
2.578142168828075897e-01
2.397086275458830962e-01
2.570140756872256182e-01
1.981267348916233018e-01
1.856955828604484326e-01
1.673302843620290692e-01
1.623854488245159988e-01
2.332931468599241387e-01
2.017959317796025331e-01
1.939404870832284467e-01
1.884627265468316049e-01
1.797580627721166169e-01
1.801583777669516773e-01
1.939091448904760318e-01
1.171306947350281846e-01
1.801370492544809854e-01
6.304997522762537110e-02
1.434003124850884436e-01
6.458590521167698051e-02
1.288049601531882082e-01
1.408035534779461806e-01
1.468928662380704908e-01
1.162553637292255415e-01
1.707967535134663484e-01
8.271082475865856876e-02
7.336157892163797101e-02
8.193215427182617971e-02
1.178612269444851562e-01
7.143613790079351988e-02
1.080762063225550046e-01
7.105447969156442056e-02
5.605701094131362860e-02
4.368952482418067551e-02
1.059372204129371831e-02
9.874209232634070799e-02
9.483267332026693031e-02
7.474870787127513294e-02
3.846662114261820142e-02
7.275509617658232342e-02
3.099800933070109843e-02
8.712180323297100126e-02
9.502839576850555942e-03
8.722792933581700880e-02
-7.868962536523960855e-03
3.189182798559578313e-02
2.153382156807695166e-02
6.651741932335483720e-02
4.624770595147791041e-02
2.747003807851221974e-02
1.850387927446975680e-02
2.281907022090624154e-03
2.661147335129555175e-02
6.028428934859185462e-02
4.843258465577651023e-02
-5.335751276032345281e-02
6.559316175108208247e-02
1.147113309636337564e-01
3.172866194744671658e-02
3.794739009255507917e-02
-1.270102092825568102e-02
3.093568804855752891e-02
2.465871573959199994e-02
-3.482879435459695916e-02
7.206439073146279906e-02
2.489169043523520655e-02
1.023880471524643287e-01
5.433846168761798101e-02
1.506010741394352669e-02
4.223487065445137578e-02
3.301804059802610630e-02
-1.528960140708471999e-03
-2.662082121029410442e-02
7.543135459733937842e-02
7.461074452434046655e-03
2.918888424733699985e-02
2.261621727970261966e-02
-2.110774508046577014e-02
1.881834854506370114e-02
5.188483148156979030e-02
2.072364696473871087e-02
2.902354940753069240e-02
1.956307651531113620e-02
1.813033250986938183e-02
7.783269145613994078e-02
3.965015022577976500e-02
