1.267271923484683427e+00
1.280712935783331563e+00
1.237703170991324431e+00
1.160195045103006084e+00
1.139427014244442260e+00
1.123029416515385348e+00
1.019382871658602197e+00
9.637845598689682713e-01
8.811534460472559838e-01
7.564405971428236342e-01
7.077473847582679278e-01
5.978998169818047215e-01
5.916266225482746943e-01
4.884664069973342349e-01
4.142926489522739120e-01
3.606453575220883168e-01
3.176574766792729099e-01
2.218917703070275860e-01
2.193984550036719439e-01
1.934339395219469293e-01
2.200837322898640258e-01
1.939314179654922921e-01
1.527895695047880864e-01
1.844361098085125772e-01
1.359487109255959336e-01
1.300658960616961068e-01
1.352046071161061291e-01
1.668724868092829883e-01
1.633323012106569216e-01
1.484892265850216997e-01
1.951166968507002109e-01
1.131433849509837358e-01
1.434316347201674002e-01
2.013766748117048477e-01
2.097007952917026019e-01
2.868470183269121732e-01
2.198658204861130838e-01
2.020849127352094265e-01
1.704092310177320879e-01
1.932691422963839500e-01
2.127496219286490187e-01
2.197859935126315889e-01
2.062164777399189408e-01
2.516806684512059022e-01
3.024683696806381716e-01
2.228285782148997918e-01
2.406279342136907196e-01
2.426720980743790335e-01
2.855915958897800588e-01
3.020939358964656041e-01
2.378032018690112714e-01
2.449651165688683796e-01
2.856098627579800597e-01
2.005295388846602966e-01
2.882766420124731610e-01
2.639103852235676895e-01
2.815922111817018014e-01
2.694962033571974835e-01
3.168491141670843336e-01
3.047139335355489864e-01
2.937661236392620778e-01
2.747503095327110123e-01
2.677141524950749640e-01
3.031172049653608203e-01
2.646270032078650858e-01
2.934890360023023614e-01
3.297686125909449761e-01
3.036688163082285064e-01
2.767605210363647261e-01
3.222761022413522802e-01
2.840879462232250852e-01
2.476624290367306636e-01
2.494625070524002508e-01
2.726165230547386020e-01
2.581234293919991152e-01
2.831527120785626295e-01
3.088710011248380627e-01
2.458418642774519158e-01
2.415247972590256476e-01
2.764237474503176140e-01
2.391340235736040820e-01
1.920675213501473466e-01
2.273717636422755151e-01
2.176360092059791140e-01
2.396660266539282214e-01
1.903428200664445402e-01
2.367432916350824257e-01
2.103227027872406896e-01
1.898979853114196592e-01
2.251574855756215687e-01
2.053652213903820745e-01
1.791800259313128807e-01
2.359358175229648857e-01
2.269120869661349349e-01
1.821991468930329872e-01
1.757336061022638507e-01
1.634166205241570913e-01
1.392144054846122803e-01
1.643403683737849341e-01
1.747667898912545204e-01
1.785411340038462469e-01
1.241795458361683868e-01
1.570226622278312889e-01
1.180743462485858708e-01
1.220224622028510952e-01
1.021619744494333126e-01
1.401386997105573684e-01
5.919478408943441849e-02
8.353758007170795918e-02
1.435409743765232726e-01
1.240616628157833884e-01
7.978043927558668702e-02
8.702479649463873423e-02
4.285111997116176213e-02
1.037377405420279175e-01
6.155363602748356588e-02
1.251992305086983281e-01
7.956283386562901239e-02
7.306266495993588017e-02
4.175889566535492120e-02
6.432020096282495270e-02
6.188827372734677368e-02
1.038896135372515822e-01
9.041997202533355593e-02
3.165973660886832464e-02
5.502914549971835156e-02
7.587287791306801532e-02
9.635757104066784706e-02
-3.778590968441700171e-03
1.073605688461643781e-01
6.290709746470211916e-02
1.112642420178957259e-01
7.018768228109531493e-02
6.329584351045410007e-02
6.524982660713460336e-02
6.188426966511192256e-02
7.680682354582500648e-02
5.932620972145940391e-02
8.109956739283621929e-02
2.352067276710908747e-02
2.609520716337909718e-02
5.447495634457649727e-02
1.763830556612607653e-02
4.224950726873268059e-02
4.445487282164356513e-02
7.152300868862149219e-02
6.035348954435507812e-02
8.691786250872632347e-02
1.553724076716114788e-02
2.097189682501288469e-02
3.927304292733189289e-02
3.797365742327725446e-02
8.273862638933419944e-03
7.954635773957480227e-02
6.811826560695954935e-02
1.095643028197347268e-01
1.012277695746573725e-01
1.529368398445413169e-01
5.537782874566443692e-02
6.872471863722655339e-02
7.269482947652630700e-02
8.198378017144632157e-02
1.445266727515189809e-01
6.026168721843474380e-02
1.121620689751497424e-01
8.391126045178845527e-02
9.156272992812036771e-02
1.246581126368411091e-01
1.080265599259751519e-01
1.288725224175326645e-01
1.762907314083393406e-01
9.635728775883292685e-02
1.176030952420471509e-01
1.599832888688021426e-01
1.449717125320468813e-01
1.667618235455072540e-01
1.531597987062042199e-01
2.117974271548501708e-01
2.139322642260963747e-01
1.737244153509926448e-01
2.260587004307362258e-01
1.849654908873682724e-01
1.546699558908274652e-01
1.747635550589523579e-01
1.828622434769910099e-01
1.949121182140111375e-01
1.785233850347489881e-01
1.611528724596059670e-01
1.963531390182022829e-01
1.980401890396321085e-01
2.121154598333057639e-01
2.315211371848475419e-01
2.038239264569251530e-01
2.374966226771059175e-01
2.103639951306332245e-01
1.717970118336167584e-01
2.027601102577326064e-01
1.525525337386545166e-01
2.249479903049132756e-01
1.957664390826956424e-01
2.000478137715351878e-01
9.522548129317975896e-02
1.451224960201845382e-01
2.010815612479465164e-01
2.671312523660313576e-01
1.221383980424017857e-01
2.290920920440442377e-01
2.351401817892024015e-01
2.459726028641661955e-01
2.619307428534987658e-01
2.470069225757958731e-01
3.534474251216233598e-01
4.015007097405910441e-01
4.090546316150657780e-01
5.248372510513517053e-01
6.127435255236869383e-01
6.825025709070692281e-01
7.384507232719497161e-01
8.325383110836477307e-01
9.580301647355009553e-01
9.231831609744601819e-01
1.010863291356947524e+00
1.096601262845739999e+00
1.141219009710617627e+00
1.205950770023397567e+00
1.233307409663711995e+00
1.295237521529368330e+00
1.259165796643279878e+00
1.340472479733738176e+00
1.245628436359917268e+00
1.242379412701666963e+00
1.163278816054642562e+00
1.071968529894248956e+00
9.986533138013475863e-01
9.143085007036537704e-01
9.105108364729812553e-01
8.081995968574537947e-01
7.164553163625219101e-01
6.008617698147631359e-01
5.555192622995799301e-01
4.997911298340027564e-01
4.205741810220559596e-01
3.486081990933683761e-01
3.331131929423538085e-01
3.011520098714108307e-01
2.440938024114945593e-01
2.146704287836859182e-01
2.504714522070355387e-01
1.930893090295805470e-01
1.223402918422082375e-01
1.243946868104108122e-01
1.797815149856098471e-01
1.224461559928457094e-01
1.153598057802288634e-01
1.303890184547293885e-01
1.649300030509808501e-01
1.436221097586559692e-01
1.674256882795986667e-01
1.419405050246107247e-01
1.196328523781294284e-01
1.661901220567266746e-01
1.669272354486693588e-01
2.008630081004556256e-01
2.370228020543861946e-01
1.682419981427254740e-01
2.153046458799220408e-01
1.403064602256066662e-01
2.279415011040539785e-01
2.105297228566994083e-01
1.587943597988853428e-01
2.292703757818006782e-01
1.905997826176838439e-01
2.481406331197195947e-01
2.435213903230082633e-01
2.293216344333424417e-01
2.620553525373187087e-01
2.732914516253904802e-01
2.578440381576398432e-01
3.580344591883894978e-01
2.392850232415121847e-01
2.920793907816020551e-01
2.620650961006655844e-01
2.133933553622760770e-01
2.667799155479066986e-01
2.753806879532021412e-01
3.232435615265157880e-01
2.639659547679250040e-01
2.835707361035568752e-01
2.600094891908238393e-01
3.582776860050398415e-01
2.866197038605114988e-01
2.970755755275589771e-01
2.861662639465258895e-01
3.160591022963278318e-01
2.623657212417213613e-01
2.984925140065437521e-01
3.227074929017684224e-01
2.776717339857330269e-01
2.583681033466005417e-01
2.175182948300088404e-01
2.897962475078780797e-01
2.356304975235041232e-01
2.035615829177032654e-01
2.686287455305517158e-01
2.463008113625643203e-01
2.623363753410364874e-01
2.890661908539912117e-01
2.623163643117503163e-01
2.458020686781922648e-01
2.608931714319630002e-01
2.445965770647722526e-01
1.987725426545893237e-01
2.188964642418231299e-01
1.871972512824922608e-01
2.148077202578682898e-01
2.187274469105552899e-01
1.978562236587743661e-01
2.071467182473708812e-01
2.003519738190359667e-01
1.726587367670262552e-01
1.843727156973234971e-01
1.716035994532408293e-01
1.322921858390533334e-01
1.653961245346434461e-01
1.627901173959594439e-01
1.394060443989073306e-01
1.561738422134639759e-01
1.486021512966099745e-01
9.786457096793607646e-02
1.047403096410152168e-01
9.284362028587320181e-02
1.105637521772224185e-01
1.161469901541154343e-01
1.320887688423109385e-01
1.509713425672971621e-01
1.497498367854226964e-01
7.837818511690422540e-02
1.551683632405689295e-01
6.430997146551119259e-02
7.327654661843052697e-02
5.173797089257238524e-02
8.398120580534089441e-02
4.413222401082547708e-02
7.907083626238645135e-02
7.410296890450482343e-02
7.257296472493554584e-02
4.364206676973057114e-02
7.584256835252073392e-02
3.823370356862931807e-02
3.772084349815318233e-02
1.010252694406584273e-01
7.878736292417681114e-03
6.999485515348463638e-02
1.276018657565479719e-01
5.173025524547728016e-02
8.336682956654963006e-02
2.592272047417323172e-02
3.141972212824636901e-02
7.917814116374152777e-02
-5.216615225676096701e-03
2.891083676067451175e-02
1.804837664363644761e-02
-6.294329451077315674e-03
1.259007288548159853e-02
2.676039973677497505e-02
-4.476452634560416921e-03
5.524751241881663277e-02
2.542340833422527049e-02
2.730125722176704461e-02
-1.605140044857390758e-02
4.280390150296410623e-02
2.480599793720195817e-02
6.800563593135874885e-02
4.830142523104292984e-02
1.283017308075049857e-02
5.658446134648599524e-02
5.385732236668806794e-02
-9.243177926026580060e-03
-1.416211965061016376e-02
6.408404341571362350e-02
2.079751685188167137e-02
5.802927859314715997e-02
1.035996073564623560e-01
8.464653243214149969e-02
1.060418049194711276e-03
5.321070655106825004e-02
8.756847694205929789e-02
8.696286475048252418e-02
4.632614380946560584e-02
8.190362403559825477e-02
8.294103261723276277e-02
8.852018536921782421e-02
6.890301495725410785e-02
5.249795293272858931e-02
4.566473233989504915e-02
1.643875813387017659e-01
7.296387913624471921e-02
1.186488710035383948e-01
1.427337724262645047e-01
8.171295444559767418e-02
1.210863901074080984e-01
8.341533804204957769e-02
1.540596021766642842e-01
1.585655875141267768e-01
4.712889019575433602e-02
1.444126016348349639e-01
1.717379051532434142e-01
1.206833330358203643e-01
1.426596656017194709e-01
1.445391830294694702e-01
1.369661393091176627e-01
1.412374748482353448e-01
1.726052350519120260e-01
1.620185425429105097e-01
1.309868247254934448e-01
1.587384338374294990e-01
1.893722108277416383e-01
1.347059848336482069e-01
1.533944220789994206e-01
1.910810629371968994e-01
2.053155536676884441e-01
1.154130094011348584e-01
1.867426829389381149e-01
1.325076893965954072e-01
1.196749110754359996e-01
9.678154136235234128e-02
1.867993258169367288e-01
1.665715730036785025e-01
1.698659802388419737e-01
1.465079338467545067e-01
1.460577913059984134e-01
1.881687127832135931e-01
1.934069042793525317e-01
1.856583375408680514e-01
2.180399360217346594e-01
2.891821644252117185e-01
2.145181951157005273e-01
2.616695189106093000e-01
2.850630398712068470e-01
3.678877232526054364e-01
3.874559191825299176e-01
4.361509924321622655e-01
5.964290801638945094e-01
6.171959893941871833e-01
6.907445407676988669e-01
7.695271110123945713e-01
8.293926935999424988e-01
1.002340660999698541e+00
9.996239857932599504e-01
1.080967950361322316e+00
1.164747454366829693e+00
1.160248317063003354e+00
1.235480470965710342e+00
1.190520285244268894e+00
1.261325200661858714e+00
1.267953481047791930e+00
1.229837296670005520e+00
1.166195846639994649e+00
1.108726904169092808e+00
1.037204519536355951e+00
9.553642714253953727e-01
9.504564923119375175e-01
8.634973052541595750e-01
7.570631753852915535e-01
6.807214490475307356e-01
5.446296183807906033e-01
4.562907079080721351e-01
4.054385086767812174e-01
4.160593175457315551e-01
3.621182178264237272e-01
2.756627718001707916e-01
2.246778856751155684e-01
1.372420141047758502e-01
1.384712943924100159e-01
1.690360899614473944e-01
1.621822280351517820e-01
1.336241941836129321e-01
1.106862292573827511e-01
1.430870463849027996e-01
1.109454711719291692e-01
1.480881101833145808e-01
1.134558383863626674e-01
1.219666417206241582e-01
1.300075674192513742e-01
1.377546156838898028e-01
1.385381859353129186e-01
1.460602449482808485e-01
1.672053175672662817e-01
1.543893726754517193e-01
1.221223827306970600e-01
1.997218823776122920e-01
1.121669812641448438e-01
1.917521192738763924e-01
1.116372929905252859e-01
2.013609940501800699e-01
1.350083092301287424e-01
1.911759111607637951e-01
2.326187169284942569e-01
1.753310947951354226e-01
1.990480902103859140e-01
2.172883132451678134e-01
2.207454828838987526e-01
2.127565660553181748e-01
2.402413724936546535e-01
2.005616815844215028e-01
2.642194819817267337e-01
1.866972079789626648e-01
2.164302817984467553e-01
2.387203120538269052e-01
2.115858000244756065e-01
2.818293674134084714e-01
2.526434935768091528e-01
2.376218286739645857e-01
2.478096489497552124e-01
2.468935066056617278e-01
2.206166532359198351e-01
2.107763033606573910e-01
2.220142343391821316e-01
2.437221692710361820e-01
2.638136337316284163e-01
2.982062202753839597e-01
2.677088454494988556e-01
2.469852586319138954e-01
2.261936765408797678e-01
2.257647419405232059e-01
2.127356056352152358e-01
1.669348811393421839e-01
2.053689183521196227e-01
2.336893516757474754e-01
2.356844817744760123e-01
2.408824942237247912e-01
1.712750439364330857e-01
1.865947600816668106e-01
1.967214288969897640e-01
1.412959796416782265e-01
1.930627228304502285e-01
1.636964721918909016e-01
2.260677846330210183e-01
1.955409669260054772e-01
1.823057188511831572e-01
1.160597953257036241e-01
1.520241984196885054e-01
1.315532248317431985e-01
1.162090557190052914e-01
1.600256217092022870e-01
1.436596393013767070e-01
9.598328846040186935e-02
1.596648463762254666e-01
8.644733806414447996e-02
8.299333423691475364e-02
1.296843383379366610e-01
7.486501970647531368e-02
7.895088081192010165e-02
1.269526005228914858e-02
7.853350200994298203e-02
5.349264057652946408e-02
8.950130023722473183e-02
1.000432378739173483e-01
5.068761767763174664e-02
6.376710581799988065e-02
8.736405555036248771e-02
5.424723128926259297e-02
5.430548468021066666e-02
4.282721810365439086e-02
4.784131583885106731e-02
1.901731286419483871e-02
-1.590330074475842723e-02
2.418233969732963562e-02
-8.951634415275858819e-03
5.709833397236739605e-02
6.127760722274562533e-03
3.135725901818204459e-02
2.256563922821187146e-02
1.636457233321879368e-02
-6.952841610348540341e-03
-9.607691588690323720e-03
-2.287027997200735685e-02
-2.294943425899943074e-02
2.092670969288818600e-02
8.713738727699565922e-03
-2.282781522794284992e-02
5.075106787545295706e-03
-5.733515246324787096e-02
-1.797537154386360733e-02
-2.794944951764088276e-02
-3.005179173471483889e-03
-1.224214787733024501e-02
2.066867251543267128e-02
-1.270102329313786520e-02
-6.840124011811288263e-02
-1.664481100459098278e-02
-3.692838150254072749e-02
4.006803877079716247e-02
-3.535062160093355166e-02
-1.051192492921332322e-02
-2.065876293558822907e-02
-6.930218220065989532e-02
6.978246794625116156e-03
1.061318874581614405e-02
-3.255268704880234787e-02
-1.087476643807823440e-03
-2.058314060025448824e-02
-6.164737921314877855e-02
-8.211095337646029391e-02
-2.284629286912785717e-02
-3.110603341377127934e-03
2.016390297791352537e-02
-1.442192326839323441e-02
2.200751432799456786e-03
1.098149742793024658e-03
-1.975274840833839141e-03
-1.560753910705144250e-02
3.404412815531242947e-02
-5.625986374970026738e-02
-1.493512188491284004e-03
1.105943334704654474e-02
5.593852376050648806e-03
5.654423285915151365e-02
-1.228102906812011952e-02
1.322519620469636559e-02
5.378022590768066769e-02
6.808120806435014050e-02
6.921474460351104141e-02
-1.178246853445428372e-02
1.253413132383522921e-01
1.738632858059086655e-02
3.965476499346314715e-02
8.030652596402258758e-02
1.594271307075685595e-02
6.065095999692259737e-02
3.248365979064262582e-02
5.456254644992843128e-02
5.555180857368155478e-02
7.713392023287775345e-02
1.103798149327284983e-01
1.005037149616264391e-01
8.534655787626285739e-02
1.139247686576760760e-01
8.650273761924523463e-02
1.262151228671938297e-01
1.102744831173477491e-01
1.437497642246729768e-01
1.501303159089152628e-01
9.276489283892036530e-02
1.095212122935087240e-01
9.583068068281580532e-02
1.073239117815955324e-01
1.752021263415627084e-01
6.751736448398870660e-02
1.254792171677954760e-01
7.967218159462205462e-02
8.555623967796285867e-02
1.176197169822476574e-01
8.005916761859394049e-02
1.248088181375395511e-01
1.630410176184008408e-01
1.187646734672784810e-01
7.106798187524265842e-02
9.217508978980648582e-02
1.101911505564460714e-01
1.285283375549562124e-01
2.187792372144059527e-01
1.962620970696781209e-01
2.199802773147767621e-01
2.593293370838457568e-01
2.442498393787555511e-01
3.019491958259299391e-01
3.598612693181063027e-01
4.353813954321750224e-01
5.301307831915710311e-01
5.811059940744431884e-01
7.042887182905500643e-01
7.729337478076655499e-01
8.314157965626386426e-01
8.632636583211968917e-01
9.326815104716911220e-01
1.090140730845945871e+00
1.103177898881633423e+00
1.153702135612276969e+00
1.172108568835016351e+00
1.178209851437559630e+00
1.191628522670050039e+00
1.162507848030978286e+00
1.161966044863893099e+00
1.142731514571325713e+00
1.072452912136796499e+00
9.768377746722916033e-01
8.949753142911289761e-01
8.086646112196352876e-01
7.924984327674379214e-01
6.728630471388292733e-01
5.710935061537629753e-01
5.103433806301673759e-01
4.182430054197395219e-01
3.818676755758511066e-01
3.072936968592982487e-01
2.572276945742124621e-01
2.240840259146396340e-01
1.996818831374833070e-01
1.903377509027231185e-01
1.203546536234754438e-01
8.358233305231116406e-02
9.786054378689384992e-02
6.373860891371166404e-02
1.112783268094563460e-01
8.339428495285769460e-02
8.229681095140634062e-02
4.338791617469476419e-02
4.535468174240741418e-02
2.960727122068423922e-02
7.841956764065943775e-02
7.928492143608292797e-02
1.058353001194274057e-01
5.438996307589488710e-02
5.314668276951518833e-02
1.044966531281004973e-01
1.394843090660688734e-01
4.767721060142788431e-02
1.092935283299649035e-01
1.336215389507318108e-01
9.707577364439004541e-02
1.295963228092201214e-01
1.038859416327298918e-01
1.152606668654241329e-01
1.324490842704065530e-01
1.404748299313970383e-01
1.040487436016361844e-01
1.965354170030430558e-01
1.347729308901930989e-01
1.529449356096022894e-01
1.528375408590443296e-01
1.617429661299065735e-01
1.507755231341201818e-01
2.249086986362819895e-01
2.515988880684732476e-01
1.963689030239314515e-01
2.260069434750916206e-01
1.947099291938235166e-01
1.646129534909520353e-01
2.928604970613391534e-01
2.704775959402335728e-01
1.456947756208859523e-01
2.100588706866242106e-01
1.911996281740171999e-01
2.301920853433451764e-01
2.683988561783335891e-01
2.202628025898125674e-01
2.496355706819239906e-01
2.213638337644613097e-01
1.679193293450907953e-01
1.768953526097877815e-01
1.935474117868823396e-01
2.162923938355975351e-01
1.924468171345600775e-01
2.277305113651544033e-01
2.165455488952728047e-01
1.596178489025738834e-01
1.986730803775590970e-01
1.945026297276785665e-01
1.693854692645596904e-01
1.433692535106277643e-01
1.200062065754415874e-01
8.863091919374446737e-02
1.107382729571996238e-01
1.229916508983660978e-01
1.470837527022462177e-01
1.277747299870378994e-01
9.024162777021516035e-02
1.288024615696133079e-01
1.263057745226955908e-01
1.032158147551899691e-01
5.311810800035166036e-02
1.105623674650665633e-01
7.020441501373855808e-02
1.177511944027041235e-01
5.411982561194210450e-02
3.763259412477150401e-02
5.429454824047753175e-02
5.834473942971030169e-02
7.392166011749544408e-02
8.979085027789736329e-02
1.618617539603946220e-02
8.380922952608525767e-02
7.993387993685853454e-02
3.640359946605040836e-02
-1.596227388361161348e-02
3.732099651048387950e-02
1.465813642379069914e-03
3.242615583783343969e-02
-2.003197178532807599e-02
-2.862805634922839515e-02
1.190400926210012644e-02
6.154286214187608406e-02
-2.771436273515347562e-02
-5.480422719690248440e-02
-2.564637164940551661e-02
-6.263283644127801142e-04
2.507479798842122271e-02
-8.521488546338787384e-03
-1.017666060760605978e-02
-2.864024479533780129e-02
-4.741485303479939933e-02
-6.109620890620083566e-02
-2.381940828594029252e-02
-4.672579154233851007e-02
-6.460522158420749228e-02
-1.996701525538096059e-02
-3.495189322232031270e-02
-7.227234196055087878e-02
-3.274513377218651877e-02
-9.267921937372311514e-02
-5.871627226396160248e-02
-8.996314918481360112e-02
-1.394103131076056268e-02
-6.204875609454088559e-02
-1.521080993647234286e-02
-5.413219040471612536e-02
-7.240180044064348230e-03
1.447272515085594458e-02
-6.138377486188521803e-02
-7.075960213189574910e-02
-4.579463743246651314e-02
-2.109308096610239616e-02
-6.282708309271353708e-02
-4.981594704980783772e-02
-7.350439649692334931e-03
-2.598476472983549806e-02
-9.058405406574387975e-02
-1.100657836632732145e-01
-2.633323984713628954e-02
3.050251979603530589e-02
-6.165869571110511871e-02
3.135013304949663127e-02
-1.835271463277585169e-02
-3.872775014826861789e-02
-1.802467580860631774e-02
-1.156742090244002735e-02
-1.786667559864420218e-02
-2.528549085276596275e-04
-3.505342502694323847e-02
-2.063057250450433741e-02
-4.732475629651443361e-02
-3.694100036399791676e-03
3.952809407698144178e-02
-2.390722305779756710e-02
-3.647508849236607426e-02
1.914879706553321986e-02
-5.929315829439796987e-02
3.594367818109335533e-02
1.042664673058739389e-02
3.020499513594469831e-02
-9.951009949586767100e-04
5.173140633836693231e-02
8.876868894826966949e-02
1.723827634805545628e-02
8.749998553323232175e-02
5.235185241651984372e-02
2.478051902233306680e-02
5.611024890048773445e-02
8.569468431781562812e-02
9.441390912206040764e-02
1.147892158403157753e-01
7.179704594966813958e-02
-6.070529927179081631e-03
1.151380033680276943e-01
9.155870712720975968e-02
1.120276933425616017e-01
1.323702225311584324e-01
1.202130584603776642e-01
1.056358383761509950e-01
9.069599333609032477e-02
1.546674463458173332e-01
7.002789044174650979e-02
1.005844249907029142e-01
1.594833755606028802e-01
9.043655508339880356e-02
6.334447551817284916e-02
9.143392529037917826e-02
5.633518921658550727e-02
9.812929865955613562e-02
1.209112112755778290e-01
6.834492131256120206e-02
1.151519995039304023e-01
6.522092576861310276e-02
1.607235676116703926e-01
1.406752922524912019e-01
6.033710853314874778e-02
9.868970548381371388e-02
1.433604162020220008e-01
1.059660758810320874e-01
2.091546723510187278e-01
2.430646968877282488e-01
2.865207283779674374e-01
2.967046246794809439e-01
4.123985218957969545e-01
4.086064567924356794e-01
5.624014156167380651e-01
5.789110037950513377e-01
7.082693604752622329e-01
7.565122576290487233e-01
8.130108787427609007e-01
9.478103626734074583e-01
9.636119036507335700e-01
1.053991272425375714e+00
1.102925422338637995e+00
1.189519009141567496e+00
1.174274588696476052e+00
1.228138980840094652e+00
1.184370248457367936e+00
1.197597417844252332e+00
1.129928406996313139e+00
1.092029131465934277e+00
9.732347250807993344e-01
9.609974860505763328e-01
9.188903307852608338e-01
7.950120204694739456e-01
7.077215918072303769e-01
6.445425412527155951e-01
5.782546150616379999e-01
4.610162333718857974e-01
4.509722134399999360e-01
4.425130759695944382e-01
3.030439899080292210e-01
2.766761631792945542e-01
2.612818871184522385e-01
2.151627060983696826e-01
1.596795359335970166e-01
1.152512456296210519e-01
7.954418951756248024e-02
1.269569705801166792e-01
4.071445249739243794e-02
5.667069431578117961e-02
6.343266170566679019e-02
6.865859985811635646e-02
4.245136546330947891e-02
2.053609485152187164e-02
1.190417611229044603e-01
9.808041961196811709e-02
1.013032594375214562e-01
6.708640339469676417e-02
1.000609012368578049e-01
4.275337030095087421e-02
1.057067921612095396e-01
8.725435811175369372e-02
1.290616831994827463e-01
1.000300324373966931e-01
1.059934369338455390e-01
1.623699308534624075e-01
1.122957381396950116e-01
1.581155254876184246e-01
1.318087349467630121e-01
1.898567535796010231e-01
1.104072727495992168e-01
1.633895809038845293e-01
1.910387966272876770e-01
1.639206325781015772e-01
1.800303119660275897e-01
1.537123134723853146e-01
1.279314823295053249e-01
1.342437326436217160e-01
2.330088790339671923e-01
1.739903193848816865e-01
1.923577898220661941e-01
2.044777297131158966e-01
2.346718361159883526e-01
2.540923377756609258e-01
2.491847331718418934e-01
2.388078249466864811e-01
2.422928188000599004e-01
2.166231632666539564e-01
2.660483730227922172e-01
2.590431216196444342e-01
2.319664959867703269e-01
2.269708468433021820e-01
2.155660406241340921e-01
1.880766515863693811e-01
2.132531073508600050e-01
2.615593476645908244e-01
2.386368257637213053e-01
2.287047688472176321e-01
2.084157571238212381e-01
1.729930388140197561e-01
1.615858247924624735e-01
1.624578339616280787e-01
2.051058230627409440e-01
1.555990186694446997e-01
1.638728572726684540e-01
1.647548435145858581e-01
1.615025848839304612e-01
2.097670939111804245e-01
2.068077554680461949e-01
1.419434759096349363e-01
8.404261764755625863e-02
1.041891899458783632e-01
1.135738354461437172e-01
1.332805328167893655e-01
1.752737111732389774e-01
8.900230412237528088e-02
1.159535829609512764e-01
9.371924146331662986e-02
1.269563818645900177e-01
1.330851323327694735e-01
1.112376453931656212e-01
4.081648278692916881e-02
7.243703542304955056e-02
9.488733308389782350e-02
1.123958812720803752e-02
7.293981419755989071e-02
5.462196132516381614e-02
5.342429035341179216e-02
4.273578278546227849e-02
-5.311480155726182317e-04
4.956329336762393956e-02
7.849614384554312596e-02
3.535024395840263844e-02
9.784342922565703038e-02
1.551486750327812567e-02
7.231764326195844195e-02
5.618978091275458886e-02
2.871206265520732936e-02
7.690574929344842769e-03
2.882733275219208358e-02
3.535191399329591644e-02
5.223267946012871005e-02
5.366929901601858593e-03
1.460688245188737633e-02
-3.939806497242789168e-03
5.604948643522005003e-02
5.647436665755575791e-02
7.612532865532899151e-02
3.632434543868082871e-03
-1.883754146701556789e-02
-6.398800048985596456e-04
2.509779071425074018e-02
1.485025365291918822e-02
-1.629293290481541659e-02
-7.187679184266110299e-02
5.506076812814453270e-03
4.511219191671307638e-02
2.617988399433937921e-02
1.112723429904691197e-02
-1.049747631246989235e-02
-3.176170307529459225e-02
-5.488200948196310380e-02
3.146263829781743154e-03
-4.251378963845398040e-02
4.809365230689284509e-02
2.948891898401908435e-02
4.168136222128065310e-03
-2.513163645046959105e-02
-1.827830845182722846e-02
1.119318732197082354e-02
3.813361205986494362e-02
-8.522280804411048322e-03
3.418866635187943481e-03
-1.361956680168383352e-02
2.406791495439903825e-02
-7.125259306725481925e-03
-9.945903735922041050e-03
-2.523367382113082813e-02
-1.514352965474864005e-02
-1.275923053740661214e-03
5.474708368922512336e-03
2.182759053588931297e-03
-4.748626148295980592e-02
7.698324966481245868e-02
1.824649679061345758e-02
-1.160422713202632211e-02
2.808385885379687669e-02
2.360088150758429815e-02
8.169922911719591785e-02
3.391705892258124744e-02
3.611438999419316898e-02
5.156470578882053207e-02
2.672550828755099195e-02
2.691273197868965239e-02
6.620287253553115703e-02
5.455817371975901775e-02
7.088170256441535255e-02
4.548069466307555486e-02
9.407815353021314886e-02
4.314554454774607861e-02
1.318729252776197902e-01
1.250951578979491441e-01
1.043305778341976353e-01
1.084063744892970194e-01
1.390094962982386106e-01
8.885918836566454593e-02
1.379047049933846414e-01
1.450674906921336771e-01
1.739528154365851953e-01
1.911176635209106134e-01
1.568462564076790189e-01
2.289625997216183928e-01
1.192986035166178210e-01
1.589837452887042368e-01
2.006087229212375755e-01
1.511119661620388133e-01
1.471842458850790847e-01
1.321659820629268733e-01
1.447820569425709025e-01
1.188304458326317481e-01
1.559381845666160116e-01
9.815498298201547067e-02
6.996962250526850280e-02
1.514015741964384876e-01
1.722412232607566374e-01
1.429015436056171873e-01
1.324786549832979166e-01
1.872390467088027310e-01
1.530265903944646733e-01
1.170392957194392874e-01
1.734653312460553987e-01
9.193984173906576129e-02
1.748897791060915752e-01
1.903738201218435344e-01
2.596329528111154250e-01
2.545491948232656010e-01
3.067742372026502906e-01
2.983581824346954181e-01
4.075393346301769415e-01
4.046528674424658689e-01
5.047010676013614638e-01
5.812109894918798814e-01
6.782422468717623776e-01
7.294716732699941808e-01
7.456175343316027160e-01
8.872004642021089627e-01
9.308297574222343940e-01
1.065481216377550888e+00
1.116940724087363446e+00
1.168090950760375613e+00
1.153878613645352935e+00
1.191516380749508608e+00
1.296250108587289285e+00
1.276541404263773716e+00
1.249276421884584876e+00
1.153330590706430181e+00
1.206079873184428219e+00
1.130208689009291723e+00
1.021288147339985297e+00
9.761760535371731828e-01
9.116385806400517655e-01
8.038252023197988150e-01
7.848320035019978880e-01
6.400726751471106368e-01
5.444200207504060751e-01
4.964079375318424248e-01
4.087042098567773007e-01
3.261971016076119501e-01
3.565238512590594988e-01
3.099962288837404545e-01
2.714755412145190006e-01
1.554174840226764387e-01
1.447380121716073109e-01
1.046140823875447157e-01
1.434502411843303349e-01
1.467807924845810907e-01
1.343504674788308650e-01
1.226753475395161580e-01
1.126855720459070120e-01
1.216722518438295708e-01
1.456353549915411494e-01
1.322941224820951556e-01
1.126201401594608409e-01
1.996371983592585830e-01
1.384446794580981854e-01
1.771531316706427828e-01
1.629818009522573941e-01
2.186397203882612938e-01
1.839674315825072792e-01
1.764186150836128675e-01
1.683555824708059256e-01
1.970055639754885735e-01
1.697891897808460060e-01
1.629159585595507664e-01
1.535956167503419734e-01
2.174527350134979331e-01
2.253339595265279327e-01
2.358882757087449877e-01
2.136442557199954573e-01
2.135044679108331345e-01
2.813932634142337630e-01
2.511127911407839419e-01
2.486489415689451810e-01
2.507015941868576681e-01
2.387156688238252500e-01
2.463947045178748463e-01
1.997166424567893839e-01
2.586505330092845334e-01
2.596721079437112611e-01
2.834784320759776710e-01
3.341319923923017354e-01
2.868585950025196452e-01
2.679942019493405381e-01
2.464656068433572211e-01
2.679254957179635355e-01
2.750331810186237291e-01
2.597239918732612840e-01
2.598759306320841400e-01
2.611859302051358078e-01
2.805865880069171592e-01
2.584706747059146714e-01
2.878904572516596816e-01
2.975367571097273234e-01
2.757639233462449990e-01
3.116366297943277130e-01
2.348933150208785403e-01
2.573888331984364175e-01
1.994890890923853299e-01
2.673622265265920839e-01
2.045327172950055783e-01
2.209525799284144942e-01
2.570729505779438262e-01
2.331169064526970314e-01
2.396242323382951622e-01
1.943418942405101824e-01
1.909197316155357427e-01
2.548379867397764231e-01
2.100062517959921937e-01
2.249739133271994596e-01
1.885746182352515399e-01
1.993109708825916704e-01
1.876262397722630870e-01
1.834042602969324365e-01
1.405917905019805070e-01
1.593930076422685194e-01
1.373305577109826814e-01
1.493797608464267346e-01
1.320820308630968887e-01
2.033452084247798219e-01
1.896830950835886875e-01
1.507978105040811423e-01
9.278180863972054770e-02
1.162436286323382945e-01
1.597628931454345702e-01
1.221020015071682258e-01
1.083962816193542733e-01
1.129237219350767985e-01
6.315731800121919537e-02
5.705919337445278239e-02
1.217685854863735234e-01
1.237321547623739249e-01
9.117309564912690067e-02
3.562508675900777355e-02
7.628772906852371305e-02
2.987369279535802974e-02
6.343896611887711590e-02
8.740880507899406737e-02
7.428300572124385548e-02
5.797024723862007067e-02
5.380823664442687532e-02
7.874386539224717541e-02
6.189033625806138195e-02
3.920612112785497316e-02
6.107243048196579760e-02
3.701299492955809067e-02
4.689315443473948686e-02
1.177959637548925131e-01
3.075449312398442075e-02
6.958035552820110436e-03
7.639302581182078056e-02
4.071256574739107181e-02
3.296771941847115306e-02
4.401431528183448461e-02
1.880636062326646735e-02
4.979123307459307896e-02
9.258272631302633116e-03
2.724590551491813673e-02
-3.437592189649660290e-03
1.003993931096536230e-02
6.669931588088680308e-02
4.165516833434122074e-02
4.759180442213838125e-02
7.837009867964152277e-02
5.101521744940062941e-02
8.699543546114096859e-02
2.931464050346734712e-02
1.930434400111130308e-02
2.109043446845947772e-02
8.896814591627265345e-02
2.022194286249733713e-02
-1.288735842692972228e-02
4.656738993742343125e-02
2.840551114776267497e-02
2.286252757606015845e-02
2.420382408218943460e-02
2.920301504519204686e-02
1.930519561276940535e-02
7.231379032751937552e-02
6.306118854150664921e-02
5.641710028281603923e-02
4.673347203759428692e-02
4.649998865498387174e-02
6.068040840922032941e-02
8.832531979451302417e-02
8.134048770263793693e-02
1.135615066915136862e-01
8.324788667472238224e-02
7.615806751884562908e-02
1.646326058892856603e-01
7.522189139799095869e-02
7.640451305222217826e-02
9.156919930109332084e-02
7.755812834966713254e-02
1.211308038316508962e-01
1.882698495167913766e-01
1.539336052154118839e-01
1.512934262946908359e-01
1.462893756569437487e-01
9.503634536234220609e-02
1.966056768267704646e-01
1.282107050022653627e-01
1.522861450133738692e-01
2.287767775656965874e-01
2.547567098520151507e-01
1.630920181163550420e-01
1.775920280748462254e-01
1.281186084000811021e-01
1.700607110936260546e-01
2.217831750404514746e-01
1.821599810011562126e-01
1.804661831981463349e-01
2.462191246722390259e-01
1.874229896406068019e-01
2.036510069737313966e-01
1.915879607732734746e-01
1.695890879931609141e-01
2.357031318055743674e-01
1.826592890400731417e-01
2.139115943914019491e-01
1.836903592741478408e-01
1.845800334056212910e-01
1.555952382802029688e-01
2.134479818692974762e-01
1.966868137341065137e-01
1.609809298217511064e-01
2.584610606832964397e-01
1.704763431976762111e-01
1.845819281974382942e-01
2.707113444943022307e-01
2.567389886883065797e-01
2.769407409327344638e-01
2.903707337324821225e-01
2.552715882692575544e-01
3.357621297494475243e-01
3.766831035018605722e-01
3.858355611702875554e-01
5.241422373745886487e-01
4.971613352775429706e-01
5.894801710978809783e-01
7.736902436753263501e-01
7.852919671711541261e-01
8.140212647954327974e-01
8.734814598309017519e-01
1.025831900510833394e+00
1.068373891238205697e+00
1.165984071925299403e+00
1.140304620278731917e+00
1.226948689161657002e+00
1.285926600819812249e+00
1.267796159853314508e+00
1.311864298670001983e+00
1.273498595374832787e+00
1.215753604764126861e+00
1.181564345448602893e+00
1.112659533672152756e+00
1.049628258924431456e+00
9.490024769492504397e-01
9.175824465250149720e-01
7.960141207773754335e-01
7.069104917693900259e-01
6.816924736975857879e-01
6.253291652896668662e-01
5.441534261205747125e-01
4.746822584550135504e-01
4.238168708572135346e-01
3.440799075888313352e-01
3.370509634098956542e-01
2.732225684223983930e-01
2.545888439535396452e-01
2.224428563196804709e-01
2.070145832045337808e-01
1.623721924402247718e-01
1.179822259730831380e-01
1.467147335653392060e-01
2.005735004392436016e-01
1.730810812700672718e-01
1.615621596984294084e-01
1.837238593002308296e-01
1.662788039512437255e-01
1.570723232541885728e-01
1.519065336921367193e-01
1.376766472965397226e-01
1.996688798310889967e-01
1.697131649170439682e-01
1.906393798045573074e-01
1.869043540340312726e-01
1.727548349171254272e-01
2.665678074014918297e-01
2.613734226441090103e-01
2.825307817303484570e-01
2.444648787794441447e-01
2.168892128191740598e-01
2.458247750695464751e-01
2.603894722427004815e-01
2.613046378309888951e-01
2.215694196133912719e-01
2.361934435581501679e-01
2.220756669368273428e-01
2.062129655660668304e-01
3.245745126287290505e-01
2.672964518029158909e-01
2.776317433655394185e-01
2.728591542428823180e-01
2.319952307958670357e-01
3.046897037107976214e-01
3.145849941199138633e-01
2.877070837509876355e-01
3.161830683772748896e-01
3.418867349133843936e-01
2.888283592497487007e-01
2.614364852452031318e-01
3.308952871202659463e-01
3.205340518669679284e-01
3.165086998044569500e-01
2.230801723186102148e-01
3.166943385774135811e-01
3.207447962355048920e-01
2.961312480782863910e-01
2.390986786787283602e-01
2.643050586967084503e-01
3.015610494936880603e-01
3.075631903359342667e-01
2.486804588156375229e-01
2.620925498127898434e-01
2.441987324386068747e-01
3.322919158749919610e-01
2.177329400094921985e-01
2.764209359722799020e-01
3.065074413068106240e-01
3.075204133011752439e-01
3.197326675111367145e-01
2.794572973619604550e-01
2.683298292651906114e-01
2.403239859360824793e-01
2.197190432172472230e-01
2.336901807218667582e-01
2.018175423451610828e-01
1.555153092426842520e-01
2.315651366801247668e-01
2.489687997221996241e-01
1.656608115303488116e-01
1.772159604630465235e-01
2.401149602442330111e-01
1.842182755947018302e-01
1.530386909941566786e-01
1.504090829307755395e-01
1.207473760123470574e-01
1.643232612580247665e-01
1.151718342804377571e-01
1.823348100492439838e-01
1.399569776835304646e-01
8.935189470239313092e-02
1.169057720707047249e-01
1.167534482819231056e-01
1.145008244523610663e-01
6.681737428557996128e-02
1.431127105599920568e-01
9.229714482770520756e-02
1.317109746841545748e-01
8.418156723164105237e-02
1.030150194407201680e-01
1.466236043993198179e-01
6.058515197705781341e-02
1.019676536688466362e-01
3.897411031831546357e-02
9.056604176784048554e-02
1.219515582434699680e-01
5.897338104100678657e-02
6.564621127004943713e-02
8.876928310793798238e-02
-4.958464308715902769e-03
6.361095936192681655e-02
6.233539934159200435e-02
5.956017367755195302e-03
9.368946860912762131e-02
3.475444719901386176e-02
5.337757473558268906e-02
3.868461963955199118e-02
4.455904266579505113e-02
8.796693953075683525e-02
5.574323483729867051e-02
3.519991897125094443e-02
8.064579308345701247e-02
2.039434750232931026e-02
4.911889531777854229e-02
4.179250213071861175e-02
1.288205966536833808e-02
1.130608392044261251e-02
5.296474403756465388e-02
2.066858512093015798e-02
8.527875431306478071e-02
5.978662591111577607e-02
6.499240903475443643e-02
2.476553731016232010e-02
7.076310460452472917e-02
2.590667295428693284e-02
3.239334685230554206e-02
8.217414009956416909e-03
5.661752371450670673e-02
8.083302896778384039e-02
5.373494596937827827e-02
4.393383869052686075e-02
3.727315009461244777e-02
2.473973969025443365e-02
7.916168729243114321e-02
8.201807911212985469e-02
8.740390505635613205e-02
1.273764682500856116e-01
7.572911440312996012e-02
1.008064101499916154e-01
4.829718149681733880e-02
7.801196387889405837e-02
7.557883274025897768e-02
6.500199253808346123e-02
1.187374078188248722e-01
1.102063059928216210e-01
1.027323084295850841e-01
1.115400651725559633e-01
1.171775654273784217e-01
1.040056435790759765e-01
8.854951020153745134e-02
1.248496786186840679e-01
1.414438550906342296e-01
1.658736505124513982e-01
1.436101968040562060e-01
1.245970910924503738e-01
1.252158306426662815e-01
1.565656549275264986e-01
1.416119167414355284e-01
1.706314349395886554e-01
2.580702150714976328e-01
1.954787762643333537e-01
1.384053736171717564e-01
1.597974924403132990e-01
2.168676960484227645e-01
2.040759955892018640e-01
2.514816530156691599e-01
1.979885817161328443e-01
1.999933631870958184e-01
2.117188739841715517e-01
1.197092365849088125e-01
1.786709952891460118e-01
2.314447354527454093e-01
2.043710667231810607e-01
2.170848353356271132e-01
2.217772658307658740e-01
1.681866251563599590e-01
1.860102062175824078e-01
2.009033773401665557e-01
2.454803658179652570e-01
2.142020397386783237e-01
1.587370658092360221e-01
1.912747278732307987e-01
1.919107778427778244e-01
2.207756396626280593e-01
1.919343039029547948e-01
1.780817594065485232e-01
2.741996604480618771e-01
2.663912032617775649e-01
3.266198150103221676e-01
3.703063286393744602e-01
3.694248271031699837e-01
3.996264259280820630e-01
5.421272975346447254e-01
5.738713620167015250e-01
6.481660721846480566e-01
7.195459938362729346e-01
7.734250362493332309e-01
8.854147533223484245e-01
9.024576664682046889e-01
1.010777649290617086e+00
1.085143320072991857e+00
1.121475608318035944e+00
1.204191774627077161e+00
1.230690711387587122e+00
1.271069392253161734e+00
1.268360903623303670e+00
1.303597943289391603e+00
1.285370666032463527e+00
1.166794740388403584e+00
1.125314176757685747e+00
1.105607889098085161e+00
9.780390397226619292e-01
9.526280730978974320e-01
8.728308079968352118e-01
8.257003456862110902e-01
7.233477138883457336e-01
6.368291220109446593e-01
5.644131257064085583e-01
4.937792965409966151e-01
4.412941489248979887e-01
3.694693130678207704e-01
3.159428310434526099e-01
3.287745396789023000e-01
2.183157276816543313e-01
1.597527966057420978e-01
1.985473189187791088e-01
1.761103865442526506e-01
1.037792330521677686e-01
1.499070593299251519e-01
1.516941569081809993e-01
1.529033781812558501e-01
1.058909423884450418e-01
1.575328430791134715e-01
1.209533541528519662e-01
1.348874156856011974e-01
1.547882525975595447e-01
1.484050249983906722e-01
9.340887221166016552e-02
1.713988117098957098e-01
1.389408670945677937e-01
1.804129190388740756e-01
2.147698089938974986e-01
1.997080140452449082e-01
2.108082592379896814e-01
2.220144861018907290e-01
2.111892064902609611e-01
2.243026274355885141e-01
2.091980478942473964e-01
1.968980060325794257e-01
2.529821449683915535e-01
1.840094570604442203e-01
2.572211785306206533e-01
2.114489904293788691e-01
2.456586696051906160e-01
2.370183158678780266e-01
2.652709588915423966e-01
2.505082863907328594e-01
2.398563876127372263e-01
2.396741795809559650e-01
2.938381263473193727e-01
2.728685551823946676e-01
2.646870621020646630e-01
2.875290125155745558e-01
2.916902995551101663e-01
2.440657542136845659e-01
2.358789815663274170e-01
2.607824647314315181e-01
2.626370206618013903e-01
2.435462755123281031e-01
2.197462269304650273e-01
3.039693300565043943e-01
2.724241028313773016e-01
2.282235691569035885e-01
1.830440755324678759e-01
3.131159209246778263e-01
2.832173429116654484e-01
2.465770205253332847e-01
3.023080534503102546e-01
2.449758367171532836e-01
2.494104029004418910e-01
3.042462394887638921e-01
2.503491747218326013e-01
2.478588153702222241e-01
2.181682243480315697e-01
2.295187957443979854e-01
2.307421180450620890e-01
1.342882688829567517e-01
1.162344051328720179e-01
1.436447807660499176e-01
1.506638705031607406e-01
1.576678563409633083e-01
2.028937809698411199e-01
1.899504526238188218e-01
1.805047585142693645e-01
2.234142294920497540e-01
1.449559506983547352e-01
1.471429721876012786e-01
1.092801832382295224e-01
1.605492763988397853e-01
1.514674138805064685e-01
1.311151774322428243e-01
9.237751732554284889e-02
1.227368310499541704e-01
8.590275573916028584e-02
9.770430647832124837e-02
1.411622583015427479e-01
8.297223106217641031e-02
1.207583448621746824e-01
6.099621783164530658e-02
1.012379794413600653e-01
8.428961451014305162e-02
6.391408014953925409e-02
4.133094093164932370e-02
5.998526017446742520e-02
1.053657073432254371e-01
3.081274653924318679e-02
5.065419895538746803e-02
2.400710816904919748e-02
1.093303223953234586e-02
4.529661061609522449e-02
1.352740281315092941e-02
1.889608289675434594e-02
4.364067149048171668e-02
6.914708586912000909e-02
3.811772987660151657e-02
8.207663105792073477e-02
7.131152780647809220e-02
6.587180832177187695e-02
1.832900773857900137e-02
3.810237414084803598e-02
3.737362114148619352e-02
1.336242717696050665e-02
2.807880363501821450e-02
-6.691807674465445437e-03
4.906484186730696029e-02
-1.125771608153158451e-02
1.433213557321233282e-02
-3.037116944894797249e-02
4.402119524479254642e-03
-1.887797563544727983e-02
-1.438180001133042979e-02
-2.258327896207783583e-02
-1.689042880597693003e-02
4.883873393891490118e-03
5.959070130183016095e-02
-1.790645492088269175e-02
-3.068184544945236347e-02
2.479025886928622191e-02
1.127217541263422079e-02
2.368335839167305668e-02
4.751117893724525476e-02
2.039813098315955767e-02
2.256866685549635890e-02
2.659236036761326513e-02
-7.108613775842445581e-03
9.681525509061738796e-04
-4.906726704933124170e-03
-7.227230750169854473e-03
2.864379928269565612e-04
3.040696280856749339e-02
4.225796964449688581e-02
5.436863278504715929e-02
3.234437789401343327e-02
9.543550171378076263e-03
3.635004598250301394e-02
1.117793225051710165e-02
-1.076149471929694831e-02
-2.115302037831228929e-04
4.763652387573720504e-02
5.082810953446380980e-02
5.946883942585119015e-02
6.400051956209637516e-02
9.670552119505844424e-02
7.597981881218014710e-02
4.987597283791488090e-02
6.509882858069948597e-02
8.368893023815862642e-02
9.519359408850072701e-02
9.384185118573527828e-02
5.169417863471216512e-02
1.382671070440532335e-01
9.493976653686968248e-02
9.790254643830846593e-02
8.251002950400596059e-02
1.469127112907515076e-01
1.361788848105597860e-01
1.181016370641124608e-01
1.217929623964308927e-01
1.140339152330820255e-01
1.234796359395838872e-01
1.663479482862145475e-01
1.337865068970502669e-01
1.535701740815534067e-01
1.295704168988065785e-01
1.362430741680406565e-01
1.206313034203608248e-01
1.376791394074239061e-01
1.433281248770078564e-01
1.260000174705414866e-01
1.058864903013557734e-01
8.407668609094992584e-02
1.338739777445152879e-01
9.208995180301973726e-02
1.185964277802669525e-01
1.229123480941239355e-01
1.398004084713578843e-01
1.050943362184998398e-01
7.011756050607342861e-02
8.147417443776625023e-02
1.329411173299371030e-01
1.386624488958040358e-01
1.688569060695950530e-01
1.242423904173660804e-01
1.942191272731819685e-01
2.152828353683007845e-01
2.429464286144902840e-01
3.397922986765370967e-01
2.979785823805246592e-01
3.574310584610172481e-01
4.358453152453097279e-01
5.213520444866777126e-01
5.109607854131232862e-01
6.496494080223614853e-01
7.537571971518501890e-01
8.381046385542575416e-01
8.582288109189987191e-01
9.908399487666419425e-01
1.052282344376940237e+00
1.129697846790296945e+00
1.178250910300223664e+00
1.168716102459675721e+00
1.203717853957365413e+00
1.220124350911521383e+00
1.262469635321892492e+00
1.244262036633317914e+00
1.120319074598628672e+00
1.116615211580230582e+00
1.008482611354471370e+00
9.772232698507931081e-01
8.778121093038092626e-01
7.731460741101926493e-01
7.429620390048867762e-01
6.969192870514470117e-01
6.099623434056519189e-01
5.388891673003923799e-01
3.970691750810174669e-01
3.369240406864143500e-01
3.342855911759000653e-01
2.597377614766205878e-01
2.384429310235680055e-01
2.151510006521198948e-01
1.578459097465349792e-01
7.982113912603135131e-02
1.355526678306218369e-01
4.995579758161857592e-02
1.434436191584692599e-01
9.005077986195972328e-02
7.763886936687355855e-02
1.154192804431558583e-01
7.169658692029066971e-02
1.279938268856074812e-01
5.289464848767085059e-02
6.686840686462723615e-02
9.604562688719731067e-02
5.997634716551701606e-02
1.465639870290247893e-01
1.620307482239540242e-01
1.396847635264566734e-01
1.070221240959272069e-01
9.017255640683022322e-02
1.171668536210227762e-01
1.442520944911301062e-01
1.173130568190894063e-01
1.598101398124595340e-01
1.785084225428779647e-01
1.633098022966443796e-01
1.811932642360095103e-01
1.087512265782030751e-01
2.060392284186622625e-01
1.729250762675231812e-01
2.141571722475489881e-01
2.162768218473719861e-01
2.362856035776195740e-01
2.272182439758915762e-01
2.261688427479351393e-01
2.194882056603626175e-01
1.406250357848324584e-01
1.816189592990920254e-01
1.893016718294209810e-01
2.166988886241724144e-01
2.062615676345431748e-01
2.139502358551460537e-01
2.609646568851510806e-01
2.185776243957852361e-01
2.153882045776641663e-01
2.629576626689670849e-01
2.721729801533135928e-01
1.879669140570120189e-01
2.438141486810887215e-01
1.998194227893674846e-01
2.012888350198005771e-01
1.818546441683956405e-01
2.583565754258769220e-01
1.776670001481535921e-01
2.505266635931886476e-01
1.309028306243882334e-01
2.267720110470173300e-01
1.353943317195608897e-01
1.422883567002761196e-01
1.552284713899521884e-01
1.538235359595807317e-01
1.547443907506632355e-01
1.076790158451431945e-01
1.451546515003138416e-01
7.872330086774265157e-02
2.065658468457661490e-01
1.863588761967346907e-01
1.290931681769915684e-01
1.593183910534456404e-01
6.198140526116716759e-02
1.121069195411361630e-01
1.416315782772100129e-01
1.501820842259880551e-01
8.045770874130059314e-02
9.026229071947419746e-02
4.845877711452751396e-02
3.919627415775151641e-02
5.298812089742573755e-02
4.980636748932557728e-02
7.933550847717624199e-02
3.766259974628635709e-03
3.870024607064909139e-02
3.987371545522427896e-02
3.638650569242132121e-02
6.818810792139633203e-03
-2.017702092718898915e-02
1.358021998703397987e-02
8.766428734491292507e-02
-1.496784683038113184e-02
3.040712892734989681e-02
8.927223380918933304e-03
-3.712774488288329844e-02
4.054344543935985840e-02
2.688617907247718708e-03
-1.821741403390662872e-02
-3.363466712720616925e-02
-4.244155409306439586e-02
-4.256134884479428893e-03
-3.104486987114455851e-02
-4.447457965877160690e-02
-5.923356617889468517e-02
6.815089290743883699e-03
-3.353871985970775099e-02
-1.612386490209243364e-02
-5.206472770277366380e-03
-6.967144117640045042e-03
-5.939348055230854462e-02
8.813416281692805498e-03
-7.830608626594140476e-02
-1.021713949078980055e-01
-2.271164870442707318e-02
-6.026476016591467838e-02
-2.638955438388661950e-02
1.475200570494286656e-03
-6.125462647063568272e-02
6.528588793694119208e-03
-7.900480606119113236e-02
-1.012663242333758928e-01
-3.387225297807895663e-02
-3.625521578496359448e-02
-3.364436714081296687e-02
-1.250156647790835046e-02
-5.926444282388335094e-02
-2.312149695071663569e-02
-7.828207509296064570e-02
-8.748827036238886190e-02
-5.410171533229991142e-02
-5.503142956064710489e-02
-3.186070916791061691e-02
-7.341507113984541144e-02
-6.473564947002174996e-02
-3.762178568734435985e-02
-4.070211858177599784e-02
-1.098068110491251526e-01
-3.525026511806575447e-02
-3.690929564685462017e-02
-1.539977267631324753e-02
-9.287742175774202358e-03
2.706505571484556921e-02
-4.152066261036696515e-02
-4.792029860915349160e-03
-1.022397799577549199e-02
-7.595803219132439554e-03
-5.262579106941489560e-02
-9.589190879180774230e-03
3.929016978890115253e-02
3.777837403925363158e-02
1.711334463800363165e-02
3.660119446198696613e-02
8.158771998533931313e-03
4.306103880984166188e-03
2.663543868674336790e-02
1.220011052146589836e-01
7.030032345962014539e-03
1.890652479949808673e-02
4.847322033009266590e-02
3.981810673839025760e-02
4.668528714492140019e-02
5.457835352496437364e-02
1.271613821301663394e-01
8.925880108468670082e-02
7.205656892252149115e-02
3.875930518975485850e-02
1.452147303794862343e-01
5.016915995195125877e-02
9.986383167059859067e-02
9.165173840536589012e-02
1.052537196941540215e-01
8.540986158998897793e-02
8.985341357391804507e-02
1.194093360213566712e-01
1.234829457880951553e-01
8.255231661882131422e-02
1.029256563883648445e-01
8.473709314690316963e-02
8.598418963899986944e-02
1.145973710567982917e-01
1.032963053523086316e-01
1.029819046440169639e-01
9.375218933257101206e-02
1.626017772208868117e-02
1.148420810130317549e-01
9.114676766249438233e-02
1.391692802320900757e-01
9.220155219100756305e-02
1.268609841031801688e-01
1.229136859976004692e-01
7.859787731921392961e-02
1.270293742465304632e-01
1.818281023313647604e-01
1.507156867287490765e-01
1.649132093490504047e-01
2.339435111047730165e-01
2.355192340677346730e-01
3.466562593891592270e-01
3.323926187583579051e-01
4.005115820901918311e-01
5.145349102872709413e-01
6.092282965534117078e-01
6.282406094626884485e-01
7.249112424441097602e-01
8.300387627846669281e-01
8.369122860273133790e-01
9.058664952245911728e-01
9.718737637990414457e-01
1.100227342166899547e+00
1.124062535568872701e+00
1.157125617482744229e+00
1.166495919241302248e+00
1.220639368446877482e+00
1.166485286109802511e+00
1.178076060278314241e+00
1.160654816403721146e+00
1.013443312765965887e+00
9.638402729430847193e-01
9.189431461036119408e-01
9.173700921923764184e-01
7.595164581473740073e-01
6.975929009498856859e-01
6.413615668217452770e-01
5.526855609328455987e-01
5.249328607098379118e-01
3.863853191360218098e-01
2.826199610021915554e-01
2.860005922911103005e-01
1.834883086669956420e-01
2.421480252806477718e-01
1.465888837778091536e-01
1.471009646239202495e-01
1.252742885232644710e-01
7.585841692823885873e-02
6.120810491799138359e-02
5.487549966725660533e-02
1.068433377139527546e-01
7.639793011210904705e-02
4.588050883274270159e-02
7.032647327084078082e-02
2.981023988732879604e-02
4.181055309994960445e-02
2.167983938917490000e-02
8.032965757082076441e-02
3.579662916875769874e-02
9.953669358746530804e-02
1.284798936824688431e-01
4.295473624386549061e-02
1.291337405426782048e-01
7.897695223961062605e-02
1.014385333262062955e-01
1.261975110597082228e-01
1.394467679763310153e-01
9.252530816657414392e-02
9.401664485697575069e-02
1.262103040417891509e-01
1.678796328460031850e-01
1.787045784220429590e-01
2.065042927520335525e-01
1.939039223857917382e-01
9.231157092385078311e-02
1.476889055401271189e-01
1.568475616106986270e-01
1.942351255469158544e-01
2.189844368149746201e-01
2.180080190911075633e-01
2.138697855822285221e-01
1.320120434690020828e-01
2.212086595770965114e-01
1.806545345169289218e-01
1.974874723331690729e-01
2.114043759244030596e-01
2.059903910911273228e-01
1.530563267255960480e-01
2.216492893468285097e-01
1.516062571305173690e-01
1.806145906296328096e-01
2.201293597553676262e-01
2.103791511903084777e-01
2.239920078979001916e-01
1.793646190085325109e-01
1.966671383750651092e-01
1.762227346751538415e-01
1.892171313407646771e-01
1.294962896324760859e-01
1.862671609157833807e-01
1.684028408908639640e-01
1.839144503664234265e-01
1.789818646516422029e-01
1.869169377942841159e-01
1.735313940190519044e-01
2.224007911156741790e-01
1.238379266462256573e-01
1.965906832506600643e-01
1.358696204275428587e-01
1.865830420039836512e-01
1.443084907243465109e-01
1.271983026674345651e-01
1.486058801224553472e-01
1.074521614931348013e-01
1.158453590387339138e-01
1.441451715280859802e-01
1.100415386358047226e-01
9.289947912495680193e-02
2.900894121393345071e-02
2.414734013250421224e-02
7.647214836641172409e-02
6.618075079744553668e-02
8.139198289959789778e-02
6.761276242290323313e-02
1.039901232440999801e-02
7.461061363074289465e-02
8.581665317824831163e-02
5.950912627637129637e-02
1.885547308797408395e-02
7.361356446228761730e-02
6.396821307863634343e-04
2.208134063623441029e-02
3.262468928039888305e-02
-2.512849392618251437e-02
-5.341482696684157067e-02
5.218755687371456897e-03
-4.231654486953137506e-02
1.455916984878390108e-02
4.913076801390178772e-03
2.379778028280009339e-02
9.176490672450979269e-04
-2.694763066581382094e-03
1.477691336538994316e-03
-1.167142890813726783e-02
5.419592134554214458e-02
-3.028835600763174832e-02
-2.055925853045846921e-02
2.174830818942528193e-02
-1.446234572355308695e-02
-5.079236589148219960e-02
4.664710432479549085e-02
-2.925282152661320967e-02
-1.247058169131848304e-02
-3.896454664829179793e-02
-6.258333662388587681e-02
-4.890567529644190836e-02
-7.648657664983127269e-02
-2.280154050778123928e-02
-3.292674902404334192e-02
-1.117292775626696488e-02
-1.007117018132704794e-02
-4.847188394655182336e-02
-4.629155853112462693e-02
-2.987132030076875000e-02
4.697436151804214310e-02
-2.729883176303429110e-02
-3.193862793830865715e-02
-4.727065960274441647e-02
-6.802477564871498017e-02
4.123548530461540462e-03
-6.190762355296577923e-02
-2.360066828139159231e-02
-6.997119588198427720e-02
-1.641736728050657498e-02
-5.321264784378410689e-02
-1.650638007807646301e-03
-3.154987151166989412e-02
-2.008506832677825482e-02
-1.124972825568962276e-02
-7.456772446097135326e-03
5.120974731179402106e-03
-3.256382449873573143e-02
-1.462604383360049595e-02
-4.955901034827686624e-02
-6.795919024688164278e-02
-2.866975214713914782e-02
-9.004182274106597994e-03
-6.908574529207137105e-03
-3.365418093822069440e-02
-3.521152138583662911e-02
3.432573118119947725e-02
5.055195996593755264e-02
2.041232374132176397e-02
3.571587360276455569e-03
5.521129472021563123e-02
2.643579663076101732e-02
6.504259308623420999e-02
-1.900800758056743478e-02
3.902486550707241764e-02
5.193018185490868438e-02
9.335042028817264192e-02
9.910004305971596705e-02
6.024765489607137453e-02
8.420748449038138739e-02
8.681332341594731605e-02
1.051252989312664587e-01
9.649177774552189502e-02
1.356888055579795749e-01
9.128121111435658075e-02
1.147179039127062539e-01
8.895540576196010740e-02
1.115300498972438825e-01
1.238463755895196639e-01
1.308738671285069322e-01
1.838345940538946843e-01
1.284216825286083608e-01
1.449092268737787181e-01
1.308602865691025907e-01
1.229581966090748102e-01
1.283090227010521278e-01
1.132180359485549098e-01
9.095598418305850252e-02
1.101475671126030120e-01
1.194833567578248018e-01
1.342177374108168841e-01
1.061190779065789708e-01
1.380837665224702859e-01
1.001995685045565243e-01
1.515360973424894064e-01
1.284116902141475558e-01
1.419945887090892367e-01
1.169990735965549256e-01
1.655110735618752493e-01
1.593681184744815960e-01
2.041976281828162820e-01
2.271968101850780908e-01
2.599335417296005923e-01
2.553254162751850687e-01
3.263274768285323035e-01
3.572372367036170115e-01
4.360228045214105674e-01
5.195995735018577033e-01
5.413635642155788519e-01
6.613489723074450488e-01
6.652572188507874795e-01
8.475207550225987152e-01
9.396748455591612537e-01
9.453114957443481403e-01
1.074166632879812511e+00
1.089674364029024289e+00
1.160233866898535027e+00
1.227648364383048252e+00
1.237766170591471537e+00
1.174348250122337234e+00
1.186472527534081944e+00
1.192539085590017311e+00
1.125208652116631569e+00
1.128030065124379311e+00
1.081567535827013149e+00
9.677776628234079359e-01
9.363575911242337790e-01
7.751252248252052945e-01
7.227733343948793410e-01
6.853408823513169601e-01
5.627019198292663171e-01
5.208953885256334404e-01
4.196157463836062140e-01
3.581298973115492057e-01
2.935146968429333536e-01
2.151544594171022062e-01
2.464695478658550654e-01
2.323593174093130098e-01
1.135664542947127098e-01
1.603021590799533769e-01
1.241993812210702847e-01
9.974641177982414286e-02
1.043465513902316066e-01
1.108489924714044506e-01
7.587283716481654783e-02
1.017411829459051731e-01
1.442714750452557260e-01
8.953221055937161943e-02
1.111794098441028222e-01
8.579666314053871479e-02
1.546592532126730146e-01
1.076905940694264235e-01
1.039726571203349187e-01
1.194016854876854133e-01
1.381644896217516794e-01
9.898581330487668528e-02
1.230873390786062088e-01
1.562394471743362712e-01
1.708356616243983939e-01
1.576166971797928196e-01
1.763723179205433922e-01
2.031293876934324449e-01
1.722922264200532350e-01
2.168616929464241561e-01
1.763355600010169943e-01
2.033052191521166896e-01
1.892412426995855323e-01
1.738482727173548403e-01
1.810548138835071375e-01
2.329127071846414099e-01
2.237430985032669573e-01
1.933903751673102522e-01
1.934262803742104186e-01
2.536271026105253457e-01
2.326130880212938512e-01
2.367828308642685176e-01
2.587887295579473501e-01
2.682727229274485259e-01
2.523826662914119279e-01
2.130040345164509186e-01
1.898416177651297554e-01
2.164667643830586463e-01
2.209290046405772701e-01
2.904381566040147855e-01
2.866153917994010425e-01
2.274891124729574721e-01
2.410817127077965472e-01
1.905923906787098943e-01
2.225830127094848565e-01
2.790114013198808918e-01
2.006504341394669266e-01
1.977373776015334261e-01
2.121284676328897834e-01
2.014108018879468831e-01
2.364664966644388355e-01
1.860615350013497538e-01
2.399723590572794274e-01
1.903490762921916657e-01
2.083891468351985188e-01
1.647800001072652898e-01
1.493539164292522758e-01
1.883177957245440459e-01
1.871135724233543018e-01
1.343195884817582619e-01
1.681710549200484406e-01
2.005673720693374740e-01
1.262683334480251829e-01
1.910249340319808142e-01
1.747459958288344606e-01
1.919747310582423649e-01
9.579847534755200900e-02
1.409758090869196456e-01
1.392137839838998858e-01
9.691718947475058688e-02
8.714196623769766836e-02
1.147253139528547905e-01
7.978983236599769546e-02
8.325370261636969027e-02
9.588994834955065494e-02
6.312953485344365012e-02
9.882111124355777432e-02
8.902872406133917338e-02
7.836181240545676829e-02
2.871946348729225232e-02
5.943668303433999323e-02
8.571039980525632651e-02
4.357366482021925863e-02
9.150731737576033031e-02
4.495643113794643708e-02
1.846020568957468244e-02
4.740428822271734038e-02
-1.769730513450431392e-02
6.992904665718964463e-02
3.609443053209319269e-02
3.645230636957064868e-02
3.171557939795558584e-02
3.979289012144210380e-02
8.333387323655583323e-02
2.531926478904093433e-02
1.582796562502505888e-02
7.776164978207507350e-02
5.939347436102133948e-02
1.621078566107597013e-02
-2.518184751869519469e-03
-3.017937547706154786e-03
2.662298220569751794e-02
4.677396599363484175e-02
4.095964044178840996e-02
-1.921904220699561031e-02
4.644324604314759714e-02
1.252798884231439563e-02
3.220748207119887574e-02
5.117304087881206255e-03
-8.112839400796531542e-03
4.624535579095639254e-02
-1.443360617672162852e-03
3.540801349756965422e-02
1.464949066825397064e-02
5.866817110271890442e-03
-3.264341834113036050e-03
9.780133993687165420e-03
-5.391623756658711283e-03
2.465996671343094471e-02
2.263956145173387155e-02
-4.868537673706964386e-03
1.574931831304896002e-02
3.250264362373976590e-02
6.747743269219233508e-02
2.928092344053420670e-02
5.723440824423257217e-02
3.953541205653385987e-02
4.863842774779317257e-02
2.510395985252131951e-03
3.892308659743801136e-02
1.425509973793850568e-02
1.965920698404015690e-02
1.446014650214773323e-03
1.265398809084721243e-01
6.214259068197552915e-02
2.908062883465952972e-02
-1.656852553482694029e-03
3.904193369332363550e-02
7.130638242245930514e-02
6.404103376647354851e-02
9.054017262873134686e-02
6.467459448424707491e-02
6.985286637926865771e-02
8.807123914157316547e-02
8.077594177755621774e-02
1.178399329587639377e-01
1.274761733767125205e-01
8.584760984616758572e-02
1.635329038123173040e-01
1.123189258430295628e-01
7.860921009974768114e-02
1.054036000713711868e-01
9.388929863250074226e-02
1.304848507001287183e-01
1.659909570085931763e-01
1.070936644950623851e-01
1.079689929551151673e-01
1.449801629344234510e-01
1.887692922682407681e-01
1.926881610563116742e-01
1.813073023704954156e-01
2.072532476892094966e-01
2.143051388843871807e-01
1.843592919688298304e-01
1.268831179386272490e-01
1.746994932294986813e-01
1.373472838165946397e-01
1.581492248673344037e-01
1.944287433277339383e-01
1.635693214275101837e-01
1.585378481846055343e-01
1.309949957516388097e-01
1.261342972125725492e-01
2.112367968712606514e-01
1.486626518096414995e-01
1.284318164414952612e-01
1.495389979675467718e-01
1.875442110089411418e-01
1.824575653844804912e-01
2.212730976114581360e-01
2.286092119040210313e-01
1.407576193288617716e-01
2.051811428013392002e-01
2.791339773102223254e-01
3.100020621106376328e-01
2.895497259470274365e-01
3.492316958730724563e-01
3.815406106941514053e-01
4.218214605276543461e-01
5.676712083498425265e-01
5.804042859650704322e-01
6.182590464922634865e-01
7.096315907181690585e-01
8.058521901866992909e-01
8.531700791827919739e-01
9.871943817650330466e-01
1.013111871725931312e+00
1.114388859523383513e+00
1.168888310471818182e+00
1.246730635555326705e+00
1.226540169641351818e+00
1.271607921239210626e+00
1.233873131907898602e+00
1.323549469789785382e+00
1.230118656395132515e+00
1.216645914519265848e+00
