1.255354154796404664e+00
1.265882217689375588e+00
1.264606935321319847e+00
1.221756325219307993e+00
1.146766102914795971e+00
1.107941647596847989e+00
1.023844914770052794e+00
9.221024715024008778e-01
9.079606421703055874e-01
8.060020516918147138e-01
6.826046204419869978e-01
5.907038924058690688e-01
5.304411699837084937e-01
4.821171484020600473e-01
3.967466043592717262e-01
3.667690624130920396e-01
3.322982176819804234e-01
2.880184217675859637e-01
2.942540575602025088e-01
2.290255034025219238e-01
2.073178256193178304e-01
1.745817584277375711e-01
1.236329221310920323e-01
1.471159754853476331e-01
1.641195825548125153e-01
1.442375195702668977e-01
1.023519058353157402e-01
1.256696035778979148e-01
6.834220352266021092e-02
1.939736406302023097e-01
2.338297969571700441e-01
2.159707361977987738e-01
2.188002765465052457e-01
1.871428888562959303e-01
1.821837631063173424e-01
2.184278445982933137e-01
1.950997789553780559e-01
2.140295137257607616e-01
2.562414832463293934e-01
2.089411217524644593e-01
2.452052005877453367e-01
2.013937489116072455e-01
1.886211580103785146e-01
2.305939084057685440e-01
1.946255886272145463e-01
2.321856707451185609e-01
2.195466561795161031e-01
2.503452259289588588e-01
2.910968064968537106e-01
2.768304968265226651e-01
2.855328461413306762e-01
3.046804206180004915e-01
2.979796108605964333e-01
2.731280537369544792e-01
2.926209460965186193e-01
2.581383045734932935e-01
2.554343592785330852e-01
2.780957502161465200e-01
2.948117307698723266e-01
2.742750531788361590e-01
2.708405812557538872e-01
3.457349574072356990e-01
2.905328858752225796e-01
2.779121324170187868e-01
3.720784269125830823e-01
3.047070003566799690e-01
2.875119602702191912e-01
3.442791923916108665e-01
3.233741149132702275e-01
2.989946629101898345e-01
2.732438722204594272e-01
2.658932424292895780e-01
2.873708663710998756e-01
2.829743419602249177e-01
2.740629977282078023e-01
3.295351218331787901e-01
2.747121004431152258e-01
2.579818067131711135e-01
2.873770818164351204e-01
2.695379464450257112e-01
2.691331697461293304e-01
2.496359399092563380e-01
1.622092622426266062e-01
2.207820288077054771e-01
2.194860927650497673e-01
2.097269678106948587e-01
1.790316413645700877e-01
2.345268654807489139e-01
2.223180275197672862e-01
1.972568471532962497e-01
2.727890002002198999e-01
1.839874876157831518e-01
2.199734317923882632e-01
1.639967454330292229e-01
1.722866466150268783e-01
1.656244173762704552e-01
1.987876678924200835e-01
1.391953968170698275e-01
1.561144640561512031e-01
1.697647649288492877e-01
1.753290033429711903e-01
1.429497088010789341e-01
1.129846538871682876e-01
1.585257779155694047e-01
1.738393586709763017e-01
9.624535098432848712e-02
1.456405608851520650e-01
9.985414969022041176e-02
9.222224632628686636e-02
5.609722114302333890e-02
1.402286700278862486e-01
8.583776157526146200e-02
9.475742388507392422e-02
8.061074716339659829e-02
8.274630104450012014e-02
9.047552306250775112e-02
9.448056990678263545e-02
8.547317796535588985e-02
9.816189606673222934e-02
4.529912949101339015e-02
6.565874773930212294e-02
8.376903386457754119e-02
7.512471824733771286e-02
8.841816897888413185e-02
1.004962342785660073e-01
9.899800031723232641e-02
6.714302545153258417e-02
5.508329348550520393e-02
5.537136153975774633e-04
-1.564014396485902819e-02
8.340581231743328383e-02
-2.650756743769126789e-03
6.648699548602619858e-02
6.253221506121751927e-03
4.210726694575971096e-02
7.840916028943005489e-02
4.067756987173132277e-02
6.370880651690978558e-02
-7.739783125750007708e-03
5.702965749847237198e-02
1.325690118849056076e-01
6.647790298807965126e-02
3.981583498955682671e-02
4.522094492176381708e-02
-8.042523804287923794e-03
9.607178787565925915e-02
1.006200055141728694e-01
5.139991912824222464e-02
4.148307068600685932e-02
3.468314217184047255e-02
2.969228328139796036e-02
2.813746440069195276e-02
8.460157605057330721e-02
3.902226629742103214e-02
7.251010517100867081e-02
1.238943655623782336e-01
8.403753316342800483e-02
5.069238479682838805e-02
8.230683474940098110e-02
1.064992996166978512e-01
7.201568196406882283e-02
4.920326706104608677e-02
9.247785496382969483e-02
5.136769594233288327e-02
9.687971659749769482e-02
1.260243002690933645e-01
1.114728600486519783e-01
9.269815888399213222e-02
1.539732800695282344e-01
1.264661507266842400e-01
5.806207629199759690e-02
1.468457454880235102e-01
1.664639889258276717e-01
1.568167675996788579e-01
1.728930427849496576e-01
1.255322511751137404e-01
1.551959941183046476e-01
1.785898187524120051e-01
1.792961847376267903e-01
1.596584384969337855e-01
1.666876331296118230e-01
1.823064515792936213e-01
2.182259575582699285e-01
2.021145036892372515e-01
2.084878777256158333e-01
1.919725776800770001e-01
1.534884058568498633e-01
2.195410200358691166e-01
2.168917225952176897e-01
1.984025997758921411e-01
1.507453958754721435e-01
2.008511451925359126e-01
1.648464749375249117e-01
2.285636322395628306e-01
2.056111805772836698e-01
1.694563729321964807e-01
1.903229097919705848e-01
1.777561007710281582e-01
2.196665075602512451e-01
1.553985619206941227e-01
1.561388504823048307e-01
1.949805273335096512e-01
1.468876169476729110e-01
1.255344818013590102e-01
1.787581591577826479e-01
2.416631614089237434e-01
2.113939705423005799e-01
2.336207084667205058e-01
2.683633377426435374e-01
2.444810737238178877e-01
2.943674054565486586e-01
3.376238521907352630e-01
4.059506805239394001e-01
4.276235679188048477e-01
5.377338232149533326e-01
5.767722953340059799e-01
6.505090634986299136e-01
7.583978273839144801e-01
8.179909988458893277e-01
9.389646009917784752e-01
9.666229512874898733e-01
1.043475628424056723e+00
1.155800686725603210e+00
1.155478153194812396e+00
1.208039526324570900e+00
1.198701311704307271e+00
1.271468173369367793e+00
1.244193440097521641e+00
1.328497819754615117e+00
1.259657125910378594e+00
1.277275975594159396e+00
1.186481009865967495e+00
1.063610374284472027e+00
1.003663825838379653e+00
9.287413940246471711e-01
9.093466092586320881e-01
8.355533107788852831e-01
7.548651597331430541e-01
5.872044617662941501e-01
5.410363597724775486e-01
5.593014342698675589e-01
4.025274461519101621e-01
3.686947195743844330e-01
3.218520556963113677e-01
2.243283314146049534e-01
2.543947676771659561e-01
2.415957158226111068e-01
2.270949868921612602e-01
1.325499016914546135e-01
1.530363759057320472e-01
1.553152903064118351e-01
1.781008455680183622e-01
1.543134337476738671e-01
1.528967283548827161e-01
1.377997726878858464e-01
1.704899007693547741e-01
1.572942987964311978e-01
1.640382965966138973e-01
1.798725535385798102e-01
1.462303311437561371e-01
2.058372326467468039e-01
2.073089581472420395e-01
1.508376232641386872e-01
1.862827928887766382e-01
2.035274669452793450e-01
2.109147945779640820e-01
2.149179361606751160e-01
2.376790733973228598e-01
2.469030536564318090e-01
2.113994816909669228e-01
2.061345870750171116e-01
2.608109501799091845e-01
1.837620852476557487e-01
1.888423212227371417e-01
2.369806167850069256e-01
2.968650649987967238e-01
2.836892891843626474e-01
3.078749617502478109e-01
2.711576651480313571e-01
2.696175313145754981e-01
2.729417977804762252e-01
2.770175391636343631e-01
2.813467165828740235e-01
2.931088826067895226e-01
3.343991281094931822e-01
2.763921581227780089e-01
2.901319332221587999e-01
3.159958323832937621e-01
3.122822209215776468e-01
2.840173822956320038e-01
3.087844362096947570e-01
2.954925753315787995e-01
2.660081825370606556e-01
2.612104197880780188e-01
2.473206278792976498e-01
2.960411089402224527e-01
3.544908075215210674e-01
2.661349828125953443e-01
2.385204858154066354e-01
1.909799619290711847e-01
3.169168095103842009e-01
2.535668190930187582e-01
2.625799818251899342e-01
2.833777911804986060e-01
2.466817206580166899e-01
2.591916332717358329e-01
2.196119804304872414e-01
2.051721319464900328e-01
2.696198366958466042e-01
2.200212131558236250e-01
2.342422296895884659e-01
1.940269877227862039e-01
2.287536127700254829e-01
2.385039132744236068e-01
1.944323938673860330e-01
2.055974861332422465e-01
2.112688855949211852e-01
1.939381225646846230e-01
1.902874754879823882e-01
1.280776604250406236e-01
1.757191780332325592e-01
1.426058284346269633e-01
1.777207486881179632e-01
1.215010797956452004e-01
1.085765060218582267e-01
1.933076377463719131e-01
1.400783387965612858e-01
6.054317191201610826e-02
1.282612450833826301e-01
1.066588880096731029e-01
1.221215415932650761e-01
1.301971514748844483e-01
1.246499210795125046e-01
1.164674055567013755e-01
9.533592005142743631e-02
1.190987452055486950e-01
7.505090327523160354e-02
8.505508402979852778e-02
5.604788118575208811e-02
5.015987754142110788e-02
8.254144456826872922e-02
5.935508452520157907e-02
8.191692296701220954e-02
7.595206845932417350e-02
4.119668578064800135e-02
2.669056886188669875e-02
1.306318062772771904e-01
1.491997578217044151e-02
2.561186725511162623e-02
5.860156423082436145e-02
3.964422366736701508e-02
6.308514425483019439e-02
5.453669153988863899e-02
3.550624456184020561e-02
6.939616132632345225e-02
-9.453047496875040256e-04
6.800205807912368394e-02
4.145803677576962581e-02
6.857344291699060679e-02
2.229189263292272877e-02
6.541627099524092992e-02
3.947994427101822468e-02
6.230072655911768342e-02
7.531893287707631945e-02
5.156998111848311306e-02
3.902877635088015246e-02
-1.652526171829362539e-02
2.837632893677145482e-02
1.989753654161940249e-03
4.739251333064696536e-02
4.447525168355312419e-02
5.039361580598724494e-02
8.670336754426746784e-02
2.948246222006724315e-02
7.018850310946510296e-02
5.200250729355247736e-02
3.028183720959789008e-02
7.435295018539470058e-04
3.745232757249525313e-02
6.099393017687575191e-02
5.274096019030597576e-02
4.886753491671343153e-02
-2.862732720342716849e-02
2.286633608132965234e-02
5.177123731471289236e-02
1.079985887323810650e-01
3.785425180647258858e-02
7.179147206087665989e-02
6.100027890939588304e-02
5.686443845783674400e-02
1.217866507197871567e-01
4.547589041179238289e-02
7.825340283840827305e-02
1.324308534640561974e-01
3.508876304366357474e-02
1.545721796000137649e-01
1.454637792361161697e-01
1.057451059782880259e-01
1.283665932125050702e-01
7.006422392156066992e-02
1.407352399223088524e-01
7.655843172625420578e-02
1.180289562102225520e-01
1.428231377534231183e-01
1.587967241530141571e-01
7.910268546753694563e-02
1.059546334839803206e-01
1.621210152952289318e-01
1.729098491341638233e-01
1.836047208802707165e-01
1.350413780812205478e-01
1.777829586396819650e-01
1.596509396890915533e-01
1.662893740079180172e-01
1.770713143603748208e-01
1.397257519197017128e-01
1.997094780487223276e-01
1.996830240547609325e-01
1.949382693934605948e-01
1.458226367111516153e-01
1.389084154973113105e-01
2.354901077544511723e-01
1.812872272083911329e-01
1.571806811221339584e-01
1.048243290034879954e-01
1.459026963488435913e-01
1.514473761188880330e-01
1.841003019308483091e-01
1.481299613429100936e-01
1.536021005618927737e-01
1.656700124282030895e-01
1.178615656083456670e-01
1.021180577954880209e-01
1.386111491291226461e-01
2.237642361979630679e-01
1.863991515611405914e-01
2.584687968102791777e-01
2.532458695830456241e-01
3.830650435218358463e-01
3.525823703472739101e-01
3.972304031168034655e-01
4.974068465281810680e-01
5.776110159758401918e-01
6.223295444950458499e-01
6.951456547557870458e-01
8.350378544961266636e-01
8.601995091966064821e-01
9.886662268184540636e-01
1.081722905842502858e+00
1.088060739924263665e+00
1.085289605556160497e+00
1.190323495174934632e+00
1.255971191300009115e+00
1.232097057374838878e+00
1.317551880666361530e+00
1.248756029836025849e+00
1.199550237631197724e+00
1.216932354309558928e+00
1.126779709773100935e+00
1.097367006985522364e+00
1.027495155558463047e+00
9.312163778101816280e-01
8.548076025707767034e-01
7.473822970937933352e-01
6.202049281892202393e-01
5.996275670430165627e-01
4.761231011346452324e-01
5.091203198558074128e-01
3.511517159251961173e-01
3.427391243289296674e-01
3.389710518388251992e-01
2.459288994124634309e-01
2.519731126638313778e-01
2.061312740453885017e-01
1.759090112675610329e-01
1.144180178378209206e-01
1.126492883979555715e-01
9.959807544846907557e-02
1.125815037075780095e-01
1.053525883497121451e-01
1.585560274093169020e-01
7.601512095819457082e-02
1.459529683104590081e-01
1.110434061371221026e-01
1.083500866692325565e-01
1.120577349672903650e-01
7.633980538401013982e-02
1.547609886087631670e-01
1.344474234874856178e-01
1.044008452705570550e-01
1.601470339544643351e-01
1.580754216893857089e-01
1.740629000034828733e-01
2.004030563897810646e-01
1.580720442260440672e-01
1.502260898652718613e-01
1.964692646137327636e-01
2.037242594435071941e-01
1.769391963744699203e-01
1.779619433526913042e-01
2.125833565607312126e-01
2.131848929639644785e-01
2.248986142810271982e-01
2.158457321721009292e-01
2.217258887251811195e-01
2.273856571807662541e-01
2.372428966112506699e-01
1.936385850136969622e-01
2.488966742003652088e-01
2.360285202744589195e-01
2.373360476241045403e-01
2.680513122485111421e-01
2.331157380665448420e-01
2.302094749284639696e-01
2.352059681942793579e-01
1.985693189204560394e-01
2.444794847078591848e-01
2.275158855109663814e-01
2.459309650305852579e-01
2.130799946552798252e-01
2.102600589671571041e-01
2.634106828863246319e-01
2.351883859895058104e-01
2.111212726057080102e-01
2.424329851307017170e-01
2.194618034114058647e-01
2.422110226534668620e-01
2.163084298945341100e-01
1.777187557604204271e-01
2.319663806116262494e-01
2.231919396559252367e-01
2.299322712214240672e-01
1.778796851220028064e-01
2.160966293593197529e-01
1.526550510505493008e-01
1.740023002754245429e-01
2.537086471499942486e-01
1.506982605511159035e-01
1.668042608609818234e-01
1.283001395600329719e-01
1.576766622471970636e-01
1.506397580795287572e-01
1.439114780146396044e-01
8.770435339897296456e-02
1.493122569578085868e-01
8.317550024229743155e-02
6.542111204543459013e-02
1.157408057082841696e-01
1.309020530821022044e-01
1.277255411651827544e-01
7.282793375773011224e-02
1.360967755943359725e-01
2.750585860548773048e-02
1.157615407025679305e-01
1.373134969826177443e-01
1.123988840769882813e-01
8.199604684115097131e-02
6.416088712630722835e-02
5.541370493348343751e-02
4.382158733141799239e-02
3.936760952637786276e-02
4.224095794526014358e-02
3.794182505459818555e-02
4.455936511418288892e-02
1.055511927505910497e-01
4.497692361023448993e-02
5.650574538199390484e-02
4.314873772706703109e-02
3.938290672631378220e-03
-1.212653081902987165e-02
1.395969045599763925e-02
6.148470862316306185e-02
1.690221161542072859e-02
2.389601239804126781e-02
-4.432651460447028374e-02
-3.905688288366296335e-02
-1.899222607854058123e-02
1.959145877007257425e-02
1.432875001517725649e-02
1.608452616827865667e-02
-2.743723368582660221e-02
-4.299110278196154045e-02
3.076813279035053861e-02
2.974963734372595633e-02
-2.136207782790373877e-02
-5.067724068210863880e-02
-5.586355759518298048e-02
-2.888118257724404947e-02
4.843051409335983465e-02
-1.120043736921887134e-02
-1.994901424331574705e-02
-2.093938894997694061e-02
8.280280937933811453e-03
-1.419966482379154786e-02
-2.278515646159764291e-02
-3.994320961545722026e-02
-2.070741452139947952e-02
-5.586296190524669969e-03
-2.952284196078203138e-02
-4.423289520008335390e-03
-8.115744705922123270e-02
-4.108138086795286997e-02
1.804112518527407200e-02
-2.129018700764894606e-02
-1.756431764330437448e-02
-3.915926212248078270e-02
-1.690837053823883440e-03
-3.330332305418291783e-02
-3.050801980122609322e-02
-9.478355938229980626e-03
-3.852262658913375992e-02
-2.356225344654835907e-03
5.282062555477357729e-02
1.811895730357594714e-02
7.155579618598879865e-02
1.975287220872488231e-02
-1.416614569410411598e-02
1.972470656583685811e-02
3.184607834913616431e-03
2.120048527120031723e-02
4.491702002828835971e-02
3.752545350607588287e-02
9.592976241654456449e-03
2.447037801307531263e-02
-2.251182141747708199e-03
9.719872890860201120e-02
8.587159265395308272e-02
1.736772415279273785e-02
9.186456868612066784e-02
6.667208210466021856e-02
1.252708903510406646e-01
2.191692466660721816e-02
1.571306193057216138e-01
1.322741683006527502e-01
1.289333774270359223e-01
1.472323807046937438e-01
5.835348972774190984e-02
1.324021253485547223e-01
8.633478687513276850e-02
1.649487129229064708e-01
7.040041866125922032e-02
1.729457272060816453e-01
1.157181550468563969e-01
6.370835187034373792e-02
1.721024535811649658e-01
1.468332404142100867e-01
1.148283270464878769e-01
1.280823858517403657e-01
1.019838752125417358e-01
7.667038351041660649e-02
7.718948091193553185e-02
8.014644654670535773e-02
4.650395668246906644e-02
8.239184142719879755e-02
7.345968069438721382e-02
4.509773431127846871e-02
9.367846506825203146e-02
5.536968035838270991e-02
6.001064271547451590e-02
1.367465815958628372e-01
1.442454507020065890e-01
1.311208069356360750e-01
1.320753474336582300e-01
2.222873462024692048e-01
2.206967639526982994e-01
2.618697652923981378e-01
3.244871535988827493e-01
3.874603431819137467e-01
3.944663464651206874e-01
5.194974394351927760e-01
6.260085534714892042e-01
7.025837021194036858e-01
8.061390247228993333e-01
8.003486064301750247e-01
8.802535491592923256e-01
9.788647228689156821e-01
1.032673453095726224e+00
1.039706222973803884e+00
1.141974378541559476e+00
1.166206356985681314e+00
1.202220662477102797e+00
1.167307741896027595e+00
1.230006635959180139e+00
1.193749886700578688e+00
1.168095201029694330e+00
1.111043923509377418e+00
1.032853078865305863e+00
9.308239064570815735e-01
8.822650876764328576e-01
7.401099010264666767e-01
7.020643014931278181e-01
6.142396229798995355e-01
4.643885949405555102e-01
4.776612271815197652e-01
4.038006440960920651e-01
3.656823491834456652e-01
2.923495970307886660e-01
2.263255378738823487e-01
1.596170853733140382e-01
1.701134983369859410e-01
1.730278210872815137e-01
1.188932826405465770e-01
1.080092610816373588e-01
3.741251583397331437e-02
4.150978756660678171e-02
7.286005913423271307e-02
9.695458239543937318e-03
3.227335299664006729e-03
5.627675211926553428e-02
6.029263738276793849e-02
8.116034572846657358e-02
1.169254525822836233e-01
1.286266063749907929e-01
7.240713536343713896e-02
9.021861623767205018e-02
1.032939129145296064e-01
1.206703995136254870e-01
1.233073897378562656e-01
1.427998531030340024e-01
6.848924686631174819e-02
1.025305896936194450e-01
1.274663891179394493e-01
1.763979823284339554e-01
1.335699197462291987e-01
1.117827886689227446e-01
1.407993328728915361e-01
1.136776227377346293e-01
1.735767128267729220e-01
1.758307395329432032e-01
1.866670498142075640e-01
1.986638356626470592e-01
1.419557898223723080e-01
1.983809369239336595e-01
2.347556689179627898e-01
1.301272719214265905e-01
1.847029793853778301e-01
2.209961609533472593e-01
2.147146241883549078e-01
1.212338703158289677e-01
2.010065632349983811e-01
1.539995378657023628e-01
1.967779676151506785e-01
2.442185372425249024e-01
1.863874492885012057e-01
1.652334201365097677e-01
1.808391676242937784e-01
1.853323462571063729e-01
2.348458128845205550e-01
1.972868179556792889e-01
2.135782065607194635e-01
1.691952594522247444e-01
2.344935310956191843e-01
1.674181291602062915e-01
1.765687398129390240e-01
2.161999276094780653e-01
2.014957113467977512e-01
1.714746762111618861e-01
1.212203578072819365e-01
1.711053139876708706e-01
1.711369355812671911e-01
1.049576210540297261e-01
1.630882027802823819e-01
1.905956435597566112e-01
9.164004419241425503e-02
9.535348218237037210e-02
1.139863630049949700e-01
1.021822275115539802e-01
1.387473129477405365e-01
8.650421600273774936e-02
1.020425472126660627e-01
8.053116564427011126e-02
1.270129590169704059e-01
5.964998531806223192e-02
9.784807436774053957e-02
7.101120352067419317e-02
7.892122204939383545e-02
8.252087825759453488e-02
6.770444109559461965e-02
1.105673577809044295e-01
4.384055964717339937e-02
2.684750137583775953e-02
5.653377874416778970e-02
6.970419873095412555e-02
2.146065592872424543e-02
7.373081049455165736e-02
4.333658008994740324e-02
1.336500609956044888e-02
4.048631539756296360e-02
1.620931479403248110e-02
-9.733069491971356457e-02
1.543051639831469896e-02
-5.125082593806081638e-02
2.213684896687444226e-02
-3.081257918487384853e-02
2.248100490095797377e-02
1.076318781241257516e-02
-6.151781163814519504e-03
-1.990550413509722602e-02
-5.484560534369073426e-02
-4.059935314642375281e-02
-3.016453178465832580e-02
-3.254420763649089332e-03
-4.393076430978919839e-02
-5.116166634584618650e-02
-4.287794206860965490e-02
-1.333199519759298290e-03
-2.060693412357334636e-02
-7.371633318256888556e-03
-5.838203953820699649e-02
-7.601030129735286689e-02
-7.241654720137893908e-02
-6.113883957461804103e-02
-6.169447943589729394e-02
-2.830623278473561044e-03
-6.999391956320998032e-02
-8.356680707830527188e-02
-4.711990474273867330e-02
-9.318552773278168666e-02
-4.815362205653522798e-02
-1.509403760916464693e-02
-7.922042153910369144e-02
-6.598835374536907161e-02
-7.003003821515244032e-02
-3.418974723097634172e-02
-6.632829937208112314e-02
-2.088576561750897509e-02
-3.076735303029908691e-02
-2.425013113717142815e-02
-3.124341756241183488e-02
-1.610301228154406572e-03
-2.763509789918786042e-02
1.827167010470032160e-03
4.393620837035469573e-03
-4.387251963564394591e-02
-8.012663328787812678e-03
-5.080203373382199961e-02
-3.364398683379263288e-02
-1.968243527339465226e-03
-4.709161462014235799e-02
5.897414070406878372e-03
-2.421785808558803849e-02
-2.593963096974308269e-02
-3.100126291613734819e-02
-3.832370056745942888e-02
1.857872910774058944e-02
3.493700891483787069e-02
5.888980300622833480e-02
2.637315081607678052e-02
4.549111075353556854e-02
7.308355642308181355e-03
2.879705800820876738e-02
4.742315938092350747e-02
9.879632352307338161e-02
3.477045857643468879e-02
-2.297336808389990881e-03
1.863588651856779022e-02
1.011853161171507032e-01
5.819293780919657100e-02
7.388787509353134109e-02
1.294763657735039097e-01
7.919074023909158933e-02
6.456507248968733348e-02
6.772136358488156649e-02
1.406166538502812979e-01
8.897552156177161720e-02
1.312087790432829582e-01
8.204391743255007308e-02
8.276395968765098976e-02
1.134433929233406579e-01
9.011543996295158510e-02
1.187535894094004785e-01
8.261153459231823648e-02
7.711948506258378688e-02
1.140239508243539313e-01
1.111096776403648206e-01
1.107748855682245820e-01
1.073143378926948999e-01
6.996066286171730153e-02
5.648584441306096771e-02
9.315869659518752344e-02
7.779097209845939331e-02
9.639326708233800223e-02
6.833287404924873187e-02
1.380812531459119086e-01
9.402353350377734564e-02
1.028167765495378860e-01
1.448812547611286194e-01
1.240454851791727292e-01
1.839663957237190339e-01
1.660544395658007377e-01
1.412057850078605181e-01
2.541262379536690097e-01
3.277985113962729735e-01
3.015333707352743642e-01
3.566655490578769516e-01
4.554923458511958567e-01
5.162487077638691080e-01
5.819659483233710073e-01
6.850186103447185593e-01
7.340955145255225744e-01
7.975374337079588205e-01
9.116547383837607654e-01
1.003748761246554988e+00
1.047500212652186402e+00
1.095345862643621215e+00
1.166782265855885292e+00
1.196119276750100990e+00
1.191639273684258704e+00
1.203366218262660103e+00
1.230370722836010344e+00
1.176193065311419206e+00
1.142958920796063316e+00
1.109441504789378197e+00
9.996408850703375482e-01
9.854863594197945664e-01
8.461477920782087825e-01
7.879538797187617405e-01
6.781567058274191595e-01
5.793351416938459231e-01
5.144068379942798863e-01
4.695172818955528071e-01
3.895602542223474685e-01
3.552032777902601746e-01
2.201660751613136457e-01
2.800807235771342607e-01
2.169763751566914922e-01
1.646024656682843756e-01
9.499774923674986216e-02
1.390172786781143643e-01
1.170127565800358066e-01
1.221211589358220384e-01
5.187565253929547066e-02
5.813841147272523491e-02
9.509960880624374058e-02
1.373279943652408464e-02
7.942303872949199595e-02
3.526923376825965434e-02
8.231272490593864732e-02
1.177950830037805680e-01
8.370576435714471852e-02
6.234073030748958633e-02
1.249405004028413951e-01
1.333532922691032241e-01
1.345095287777055559e-01
1.229912150330081111e-01
6.050728637420151740e-02
1.401533297754936069e-01
1.933319151330337993e-01
1.103818719275085347e-01
1.403802993303621682e-01
1.264665590262800121e-01
1.441561059632992248e-01
1.820671730958073609e-01
2.154426254964679488e-01
1.675797328841781286e-01
1.677815250848775919e-01
1.390641951690571032e-01
2.013021434683145705e-01
1.449226977063660382e-01
2.597019008603818624e-01
1.941402874063094253e-01
2.535817389746861106e-01
2.039152223635108396e-01
1.675279057457369769e-01
2.053883375863702343e-01
2.010998963999063027e-01
2.457077038405250102e-01
1.860596947524453815e-01
2.193863399717459195e-01
2.034428717874228465e-01
1.901447937442345137e-01
2.038535013229132997e-01
2.742748380766961702e-01
2.355710552356718168e-01
1.856051673886575659e-01
1.496912353604245571e-01
1.964582059644626177e-01
2.013335513277911271e-01
1.796639170137181163e-01
2.118745847709185282e-01
2.216855206244719989e-01
1.993007291491054045e-01
2.198596100475402326e-01
1.812755904274517549e-01
2.336707073667825263e-01
2.116249113959429162e-01
1.585225749364697345e-01
2.158742350386629871e-01
1.882902092729603349e-01
1.758565484700603254e-01
1.342665743615700791e-01
1.726931915363660586e-01
1.758822904484734218e-01
1.437164440090275275e-01
1.640070191524949095e-01
7.763066988016209535e-02
1.712863022205446673e-01
6.256514740359798987e-02
1.614163966308310716e-01
6.545988704064983899e-02
1.065007179503826007e-01
8.100430323377394437e-02
1.280531595071612849e-01
1.265876094044162958e-01
9.721014190514647157e-02
1.012136222427877930e-01
8.806416982162802720e-02
5.446458371215467942e-02
4.335267276923576024e-02
4.701249749071925027e-02
1.155804270463062500e-01
6.252673907781394758e-02
6.893654160513092155e-02
5.403227646122589489e-02
5.954385308928203391e-02
1.014782003639244298e-02
3.469891527721834235e-02
4.453907702822024195e-02
-2.884561575538008640e-02
2.102752047512793099e-02
3.066317534057384775e-02
6.491354872382194829e-02
1.928340309918784648e-02
1.090500667788724815e-03
2.057974957757490592e-02
3.662670911866858919e-02
3.906843277051573471e-02
3.381844350737819166e-03
2.677188913507435805e-02
-1.755676580458977176e-02
8.583550890056041577e-03
-7.039814477297276496e-04
-7.694732952326692466e-03
-4.051379284622938504e-02
1.938227851564628193e-02
-2.281371426312978068e-02
-1.583337294289510061e-02
7.262979129060662120e-02
6.334185333815058050e-02
-8.108469467115471396e-03
-5.021899549065686821e-03
-4.258639840703397350e-02
3.715914136478140617e-02
1.590057003670735172e-02
-3.513637674435893254e-02
-5.006024963792127941e-02
-1.812672523438078886e-02
-3.488313227077696754e-02
-5.401688885840861404e-02
9.410964578326280056e-03
-1.427750903729186130e-02
1.301279906766339596e-02
-3.190501302635320724e-02
-3.010484402224017364e-02
-1.990004256090578683e-02
-7.096235147692868568e-03
5.845223681862535270e-02
-3.399881933286930807e-02
-3.035866353869710182e-02
6.631791537765132499e-03
-8.258806363075394882e-03
1.673835824132057989e-03
5.303324079578598804e-02
-2.608854960165237630e-02
7.082065636288753518e-02
3.207970085092760187e-02
9.273014390891655412e-03
3.131545373086551398e-02
-1.064836401397715494e-02
3.388719116441660240e-02
3.387133252308629355e-02
3.013911772541361458e-02
4.470799427543697968e-02
3.589561649968543017e-02
1.188094579885218792e-02
3.807905884585670309e-02
8.596761575431058344e-02
3.852889468521439320e-02
5.390053628049275292e-02
3.144723846462228745e-02
1.029769300931516751e-01
7.602799434488394237e-02
8.473449061858387421e-02
1.219094595202815379e-01
1.024831687834459049e-01
8.553677788651822822e-02
6.491428277746574826e-02
1.091754501523685000e-01
1.285126843436889543e-01
1.040174505381150638e-01
1.115368643581939739e-01
1.062139847035445395e-01
1.794140305904111388e-01
1.582126161814780552e-01
1.830624386991414887e-01
1.320510407059726776e-01
1.398286573991163462e-01
1.870743448707200274e-01
1.274231627787436594e-01
1.467023821285972363e-01
1.573910217127882372e-01
1.133426124774466470e-01
1.557599051363628695e-01
1.508068866964679122e-01
1.569252241682095317e-01
9.337258837862269512e-02
1.276750116236068933e-01
1.639218394860183503e-01
1.120184002768362663e-01
1.197663270236240668e-01
1.875093145407414341e-01
1.154585305196111494e-01
1.330032195382275517e-01
1.635890590539377520e-01
1.936463843077113334e-01
1.651804666835168245e-01
1.780766674463560573e-01
2.319631261285679535e-01
2.603133747527744402e-01
2.890826449540353504e-01
3.658412911236386122e-01
4.347540178860540561e-01
5.051999791538924756e-01
5.921533599301412876e-01
6.507807593607177754e-01
6.864542364174566202e-01
8.043076416886244528e-01
8.725379464673613805e-01
9.412559101697132169e-01
1.018396416325471732e+00
1.100475213731089141e+00
1.130446013208420863e+00
1.208800232382543305e+00
1.236008929298807679e+00
1.241005290908869796e+00
1.261932488327812685e+00
1.291228656709923373e+00
1.197758537979250359e+00
1.168809717784434321e+00
1.149484516224922759e+00
1.030173895200757084e+00
1.013954157606054896e+00
8.666267467894868126e-01
7.980624605179952313e-01
7.366549846035396198e-01
7.321936050156065967e-01
5.676579440244348129e-01
5.625259357479367450e-01
4.423303789152319143e-01
4.167667853167900116e-01
3.222815182374653697e-01
3.080045375336160074e-01
2.544493937941235129e-01
2.023131149634997406e-01
2.516983970649944724e-01
1.859780651544785390e-01
1.652185511132315821e-01
2.345227908066470635e-01
8.634497332322604857e-02
1.069649515473682783e-01
6.852671777631222372e-02
1.191589650828928648e-01
1.194519364853429688e-01
1.354801510970792544e-01
1.394250219585559947e-01
2.001133220638817156e-01
7.004305802515413404e-02
1.833924494250018244e-01
1.139475267433523314e-01
1.233977768889527871e-01
1.873604173862314648e-01
1.664865621786587035e-01
2.255959777858471960e-01
1.625358165287518752e-01
1.553210397485401129e-01
1.813513544294149682e-01
1.729557189061896871e-01
2.090319617573929978e-01
1.756176760993046759e-01
2.392881743680216056e-01
2.452654398458202767e-01
2.721392699673642612e-01
1.781113123769813567e-01
2.400015356919976695e-01
2.632103859380991451e-01
2.475973619845648899e-01
2.111664291250816283e-01
2.396050859585022452e-01
1.907630876161255651e-01
2.575395263177642224e-01
2.419419987609339739e-01
2.259535870878855712e-01
3.067688521372736732e-01
3.421750581675597203e-01
2.983005459328593179e-01
2.064313527340844723e-01
2.290374526385911547e-01
2.665361903983962666e-01
2.817247104904167521e-01
2.737228532621838739e-01
1.997397787364409705e-01
2.888796704412833760e-01
2.538169261605611737e-01
2.574464231375639400e-01
3.047993337857342611e-01
2.183875478859995667e-01
2.838029925024040390e-01
3.448529441784639604e-01
2.813102296040578265e-01
2.573436542772684632e-01
2.593954816941281827e-01
2.879643154249255099e-01
2.354144112532751687e-01
2.359533803147752795e-01
2.509029736568618718e-01
2.339514381421895495e-01
2.256814446160611554e-01
2.438640973403679302e-01
2.266789102535072542e-01
2.348976598345721700e-01
1.548301629533691270e-01
1.857334463789953594e-01
2.045011871260058178e-01
2.328302364366990063e-01
1.736157781763784103e-01
1.865206175984935877e-01
1.327152100107368837e-01
1.407611835962533087e-01
1.533199167019114739e-01
1.233194252441658090e-01
1.324454110883224733e-01
1.544687838610352415e-01
6.807914258739090896e-02
1.096666015350619139e-01
1.536238671259780586e-01
1.522809926020295412e-01
9.912550213776048780e-02
6.921380688621656119e-02
8.462647615736398898e-02
7.214419842355133949e-02
7.002865791770566950e-02
8.378911554245965787e-02
1.073047359730519013e-01
6.989763072032478819e-02
8.122984782563534567e-02
1.617843527048344610e-01
3.713039965864777664e-02
6.831786889928444240e-02
8.342324952644807057e-02
1.028164270239099176e-01
1.049782523404872298e-01
8.906660250889991692e-02
6.119427945539551716e-02
2.388792398110166706e-02
3.471199891636521373e-02
2.201614042227423990e-02
1.101968732197551870e-01
8.445443505229126291e-02
4.218620477078937475e-02
7.691083182608043911e-02
1.271427024451860996e-02
7.564217982384249805e-02
6.255664147823997157e-02
1.083955481739420079e-01
2.639476777704837657e-02
3.729065747231890410e-02
4.898507280427908533e-02
2.634173828733860773e-02
5.447564671670867414e-02
8.223196796037027245e-02
7.666702494116689470e-03
4.719780722296983838e-02
4.981433862514336036e-02
1.018859259114858473e-03
9.888537675051132375e-03
6.526795243196778507e-02
3.080958524402983845e-02
5.272434698707369888e-02
3.040224317307369667e-02
8.789989973122265543e-02
2.608631831949606572e-02
7.490969823512577674e-02
6.873038446704142490e-02
6.422391309377845081e-02
1.035097590135865137e-01
3.393558917890719673e-02
2.698803424887691316e-02
7.676063064232117872e-02
5.887692564170850934e-02
4.817162376371532384e-02
2.007475250091838095e-02
6.270265799415791763e-02
6.582633403689648610e-02
9.860015982887700148e-02
4.854604973012966590e-02
7.150909961694364159e-02
2.515918923159941867e-02
1.193453724907250213e-01
1.454217452925583576e-01
5.234709208377289619e-02
1.101944673958533405e-01
1.025477693413390234e-01
1.181779546577037543e-01
1.360409215547676298e-01
7.445612216093328017e-02
1.179704132435725195e-01
1.050382444888951633e-01
1.662195500223426770e-01
1.239272051819269860e-01
1.740596171680314497e-01
2.025274732501433916e-01
1.586832210193789838e-01
2.584537021287652836e-01
1.727109195977293288e-01
1.214921791957243313e-01
1.652433546400308428e-01
1.078543379708860467e-01
2.169679308687045838e-01
1.605373810814033075e-01
1.693426264399850723e-01
2.197494615562061160e-01
1.669528751119923327e-01
2.153730668542773175e-01
1.859999309975541304e-01
1.705196749969934422e-01
2.050890490787437015e-01
1.869203660928915878e-01
2.087674363284145740e-01
1.978421451707854661e-01
1.519974950277863113e-01
1.976431973436260647e-01
1.784504082082501997e-01
1.224785368550183606e-01
1.831282825947957993e-01
2.053052985257795005e-01
1.565371953942476524e-01
1.981880629371833291e-01
2.100756093336761110e-01
1.354839945889604880e-01
2.610629754778420741e-01
1.981440231097083560e-01
1.882882339008518369e-01
1.968866480398586416e-01
2.494389500027389683e-01
2.683357121656105848e-01
3.158935706753681627e-01
3.892364016975506380e-01
4.484601824059816777e-01
4.625619725488078759e-01
4.747414861867179647e-01
5.783416009291708626e-01
6.791899506634960781e-01
7.599875325705885976e-01
8.399823261896421922e-01
9.319340945587857306e-01
1.062045323153271603e+00
1.061329775726671976e+00
1.130426135890609807e+00
1.148713016247140839e+00
1.280550198469732948e+00
1.284438536426856459e+00
1.295076552458700903e+00
1.315783792137966923e+00
1.298070906763159948e+00
1.221000453052331958e+00
1.218233007146928948e+00
1.190887091446648061e+00
1.085109566411737170e+00
1.042680808142992577e+00
9.047316526103247325e-01
8.281841257834761105e-01
7.442878026084545073e-01
7.136917913646547706e-01
6.496222329834862030e-01
5.173625150562067843e-01
4.871917227682769358e-01
4.172269672225054071e-01
3.946518287352698273e-01
3.967877859049430689e-01
2.653083918291834209e-01
2.543509874160360118e-01
2.192079508741618665e-01
1.562652106467082858e-01
1.745612828981199516e-01
2.087138513676934926e-01
2.091719158601953454e-01
2.224509524257440307e-01
8.323713560144743728e-02
1.999977109357557181e-01
1.050568549943255714e-01
1.383262108066374285e-01
1.774587843693174460e-01
1.560469489848188285e-01
1.440395815038558736e-01
2.091505791471671427e-01
1.624411820359160652e-01
2.558866421101937405e-01
2.251872430058254881e-01
2.029853224744744555e-01
2.054826483040916307e-01
1.769960455868049842e-01
2.093092851249275244e-01
1.938132144225504228e-01
2.564134562491430236e-01
2.727247930330642944e-01
2.630367916587461052e-01
2.478121400351262771e-01
2.384164372163688483e-01
2.663120535704594505e-01
2.957438668120457304e-01
2.725019376431085383e-01
2.477379273905995771e-01
2.588434259042187158e-01
3.489788604372665581e-01
2.753402367014594621e-01
2.890436809567661913e-01
2.651692835878107224e-01
2.709275694537692236e-01
2.784486918943734346e-01
3.234055491569960972e-01
2.737943630655339522e-01
2.897476101652112779e-01
2.806736796834394809e-01
2.882359005002019803e-01
2.623467945814720315e-01
3.406519009053099456e-01
2.760677781338051751e-01
3.302548689264980797e-01
2.747548825895073654e-01
3.084978090263753026e-01
3.392051918622535078e-01
3.004278660412419977e-01
3.078769166299702986e-01
2.722999772580975142e-01
2.786079485939051970e-01
2.491914017152516425e-01
2.654368524034251831e-01
2.604267786055538547e-01
2.698479348241488718e-01
2.334306531939407126e-01
2.273619890063325322e-01
2.729734555395714191e-01
2.822569995878884130e-01
2.321894208376682756e-01
1.963592812004113786e-01
2.274564239262950038e-01
2.036045641536803619e-01
2.181139141546155069e-01
2.534359785067118453e-01
2.459359033241369230e-01
1.570299713582599122e-01
2.031257504324168739e-01
1.621613447362389160e-01
1.717131914805299364e-01
2.032229277970776515e-01
1.410959413085867975e-01
1.613703917368582430e-01
1.537767316521442829e-01
1.525106154692553173e-01
1.697802584134185389e-01
1.509278644815309212e-01
1.059091212957222750e-01
1.378499926059073843e-01
1.148991217951398636e-01
1.049168779488246772e-01
1.401932769629747333e-01
1.042732787844058429e-01
5.476497808689103491e-02
1.041431317190888994e-01
7.242769589833406019e-02
8.996556324649204739e-02
8.954471134380162511e-02
7.081666359355302809e-02
1.054221047196592237e-01
9.177023410894827316e-02
9.857273491221391071e-02
1.267466446839902172e-01
8.695954960886925766e-02
9.917093666406445740e-02
6.355635760852867966e-02
1.332813147225339057e-01
5.267406221292382507e-02
1.039358884628918400e-01
8.400823395979035990e-03
8.112767897455375188e-02
9.632954331194509834e-02
4.450788353964446609e-02
1.007528575490930223e-01
6.809820614679595874e-02
6.983046984171782656e-02
9.731119200300225591e-02
8.494563973037076721e-02
2.320543676592747018e-02
1.891242470961608524e-02
6.428895820350799539e-02
4.193743251433773578e-02
3.087455121756028237e-02
1.152349154591834485e-01
6.169582376991927103e-02
6.679127097601633700e-02
3.359310218166119966e-02
3.069324911660832253e-02
5.825629974819997170e-02
7.062327398832250747e-02
9.489240456564321247e-02
8.635256876572550144e-02
5.135823448571066874e-02
7.935512458759357013e-02
5.475647157139604260e-02
5.773038987217968265e-02
3.377001295167820355e-02
7.026464031630560991e-02
-5.596286607844128125e-04
8.400293409850426163e-02
2.056215025153750736e-02
5.149894442390035715e-02
3.214139862622633625e-02
8.270861477126821570e-03
1.062335242695025966e-01
1.796425539621213097e-03
4.764244436741987831e-02
4.730909641343346295e-02
7.091938555122620502e-02
1.318946150681903628e-01
7.143091225267170219e-02
5.957683582620305895e-02
1.247913887211685446e-01
1.134867119713420108e-01
9.608512263749577342e-02
1.339745455603948143e-01
7.493267068124571939e-02
1.108370094178477011e-01
1.672675223747188411e-01
1.383431369766408847e-01
1.246473911130247386e-01
1.271167127852234069e-01
1.006953694718958903e-01
1.375524879882915885e-01
2.028192514175331251e-01
1.508120561351961875e-01
9.678037677483251888e-02
2.272989695508114139e-01
1.267274223723663384e-01
2.004565660286608819e-01
1.821405071816656063e-01
1.758180740825011357e-01
1.435795239369198895e-01
1.396176367794365603e-01
1.481372257571598183e-01
1.917754407786052273e-01
1.549486791051314372e-01
1.897937367716567292e-01
2.150861663236079691e-01
1.629615106911223577e-01
1.974839005194069519e-01
2.609566028415921113e-01
1.573266071932031829e-01
1.797976821338120867e-01
1.667682174381042992e-01
2.213409088406161629e-01
1.992229026519256041e-01
2.000206430634028643e-01
1.422797378029244664e-01
1.342586316176639927e-01
1.538317477463234939e-01
1.959575428457655533e-01
2.214995771609071795e-01
2.346546199936138666e-01
1.918296087011452655e-01
2.062719720113287969e-01
2.569062561824437263e-01
2.634154471409742015e-01
3.098147263750333780e-01
3.585019649452685919e-01
4.572543428170556257e-01
4.899296231602101592e-01
5.054615740683877645e-01
5.675758053795952884e-01
6.707526515933861511e-01
7.605302966154032784e-01
8.480316046913104477e-01
9.474179256605624877e-01
9.804088007571197805e-01
1.074944610017232849e+00
1.092287182626688002e+00
1.207394475570240822e+00
1.265081675226420010e+00
1.277304803738623651e+00
1.309848320921832787e+00
1.257775010219313039e+00
1.250220157313858937e+00
1.213477992820024776e+00
1.192851045859919079e+00
1.195778667560414288e+00
1.076679793907120208e+00
1.006711719070375377e+00
9.124915566244253817e-01
8.304308429194486862e-01
7.461709848627063879e-01
6.268202927030404048e-01
5.896938260576161106e-01
4.524116336872359145e-01
4.230518943902706885e-01
3.735274945334134955e-01
3.610836322943152821e-01
3.019748207965098907e-01
3.012083246296216044e-01
2.141570401944607738e-01
1.841138188623199501e-01
1.411673712382479073e-01
1.682552836826567144e-01
1.344795196201447329e-01
1.026514931637310668e-01
1.335068807562942994e-01
2.382343598205042545e-01
1.320174726118776287e-01
1.150658254505477485e-01
1.369807089931220634e-01
1.754283575000741835e-01
1.501111577836749811e-01
1.820131008024307162e-01
2.079394360386687401e-01
1.688611931860469761e-01
1.384176109395706400e-01
2.013811546778228323e-01
1.626778746004636234e-01
1.800104652278717021e-01
1.799722591043090292e-01
1.781299298169923828e-01
2.399930997343737715e-01
2.355106833043901782e-01
1.692152366967053789e-01
2.000064097675350316e-01
2.196596650790476890e-01
2.400201611496663445e-01
2.304475556727591801e-01
2.749223683953628261e-01
2.067340041932246297e-01
2.730492188683374954e-01
3.087662440652101381e-01
2.561278792715561137e-01
2.619273558005298375e-01
1.677777102589421976e-01
2.333558838530237212e-01
2.136450733213425823e-01
2.812298779415627892e-01
3.073923599447173083e-01
2.401275222985201907e-01
2.148243853376101686e-01
2.958795733519908322e-01
2.461982994447333983e-01
2.565087629686948478e-01
2.757241901252245331e-01
2.980722538522718734e-01
2.597299251211441229e-01
2.614684219777032581e-01
2.559359644491789321e-01
1.930608738287688808e-01
3.132827874538786084e-01
2.827011610835646338e-01
2.111024751757965001e-01
2.018017490854210061e-01
2.720652848631383569e-01
2.273397333829409728e-01
2.085631254500253662e-01
2.211292289027784741e-01
1.929220307961512226e-01
2.205016374329806794e-01
2.063661639094151456e-01
1.929646859471737808e-01
2.111010543980192944e-01
2.006237874754450146e-01
2.165146783615642390e-01
1.875855801017451141e-01
1.839658316562421403e-01
1.844026636433531985e-01
1.515275527188218729e-01
1.459994595513347260e-01
1.181934881622870442e-01
2.157913084342930887e-01
6.986643953391022399e-02
1.529309856447024774e-01
1.241751003488440475e-01
1.527486737545072915e-01
1.408180686525874192e-01
1.992308919172263715e-01
1.165117195380212245e-01
1.512937815265658070e-01
9.763480582921721385e-02
5.992952730324625776e-02
1.358790786089107416e-01
7.868855623804071886e-02
8.739174618874484546e-02
9.391922444250475066e-02
9.786302424959134050e-02
9.262238025270826125e-02
9.892200634719001962e-02
3.657357740526052253e-02
7.222456942201678498e-02
3.688705247717216987e-03
6.954059413216968910e-02
4.128598262723331275e-02
7.750397257013560970e-02
6.787157424493425739e-02
6.127481755100906875e-03
-1.477401640751659605e-02
-1.900480434903191983e-03
-2.173973842128992459e-03
8.037953737239561525e-03
5.979150613512571044e-02
2.550815398651521543e-02
2.105165606424298785e-02
4.787483143382976342e-02
5.518290858871566229e-02
-1.684378561981506733e-03
5.890277002377387189e-02
3.188579201001153635e-02
-4.702712835573734720e-03
8.520111705630126729e-04
3.296793190050605754e-02
5.291763164555891158e-02
1.165982785287342748e-02
-2.021242148835212388e-02
7.961755110608929181e-05
4.029603242737113400e-02
-3.908616997168248841e-02
2.518821629510363883e-02
-4.799764029143110955e-02
-2.948211183536098273e-03
-9.684766102499192328e-03
2.211970371507348404e-02
1.435787717140905861e-02
-1.053592978078676107e-02
3.855750442542302259e-02
-3.342525524318941399e-03
-9.102646413486729926e-03
5.826754043963440488e-03
1.046469711527046875e-02
-1.566471292229166395e-02
-4.563539772487514024e-02
2.945218236141639110e-04
5.121065728495662051e-02
1.510449376475936703e-02
1.902151082079722028e-02
6.539245103607251031e-02
1.781256343692147123e-02
1.838133730113341094e-02
-1.406760462708680354e-03
2.729450213165016820e-02
6.259365426342573813e-02
1.146169007105708876e-01
8.489214213944124010e-02
2.367979394248928213e-02
7.083433975155584150e-02
2.060139375688545271e-02
6.871419372301162953e-02
2.433335664754803299e-02
1.080761434064056031e-01
8.278666813727454665e-02
5.892241427297862516e-02
6.968391602213427904e-02
1.239554595240249385e-01
5.906863901885336943e-02
3.108439418760515841e-02
8.795115950273839356e-02
5.727864591668704874e-02
1.108163540196584057e-01
1.606438787174921945e-01
9.236753261628660727e-02
1.556028106784068388e-01
1.295331387120221833e-01
1.353241898226764384e-01
8.537051752931966442e-02
1.631642014409037944e-01
1.321044171401452305e-01
8.160591136344789998e-02
8.700624819267621657e-02
1.435279669365261968e-01
1.010152759944898532e-01
1.256811812295864361e-01
1.703286590146330659e-01
1.186005058442996807e-01
1.241306782545382181e-01
1.538552061962676909e-01
1.244183545955078463e-01
1.421524468108404937e-01
1.277108784850171652e-01
8.952655700883016543e-02
8.193498961415071613e-02
9.693762938749356239e-02
1.139739853698518296e-01
1.343201846367627350e-01
1.709260014162787000e-01
1.125331885520918229e-01
1.039693855097176267e-01
1.079192712333261334e-01
1.367549774983252142e-01
1.838824145196313598e-01
2.707580585781477200e-01
2.312086880563031799e-01
2.608188797642810308e-01
3.947845495936231353e-01
4.184907438169858662e-01
4.693484050717818823e-01
5.756466892978114869e-01
5.867938285801148623e-01
6.902523616635912740e-01
7.848330515910642013e-01
8.796599550567357761e-01
9.496694744672187216e-01
1.033697396111224132e+00
1.062904274430160445e+00
1.111408485308853278e+00
1.217622314304685149e+00
1.258397015921724593e+00
1.213720391576858182e+00
1.225522259545149151e+00
1.213392710175777767e+00
1.168208263426394611e+00
1.120416560958199303e+00
1.130272365227356079e+00
9.855851420623022996e-01
9.296560111024119166e-01
8.238709872530705081e-01
7.259433671127484278e-01
6.842737849605528000e-01
6.546649766596239761e-01
5.718751507302750614e-01
4.619932078582187351e-01
3.877132383321931774e-01
3.208777448420912504e-01
2.850892611016894729e-01
2.169430386023168400e-01
2.180194492884659496e-01
1.411418654794773242e-01
1.556870516413454975e-01
1.577037745835627169e-01
1.352167761571906046e-01
6.774625392576839877e-02
8.399610951474978382e-02
1.325039742456789460e-01
8.342242174465754057e-02
8.741005162761626701e-02
9.751184398461240632e-02
1.240717347106615881e-01
5.891099319586926009e-02
1.356324318347921776e-01
7.336901228875140901e-02
8.200212217838667716e-02
1.987019417473402383e-01
1.040812148676643623e-01
8.634398118043820625e-02
9.189416098424887935e-02
1.714839050192618897e-01
1.245766572086635798e-01
1.787644274031852942e-01
9.508270734087768961e-02
1.084254520795474852e-01
1.769248775900062465e-01
1.486702057627813933e-01
2.053746577380390070e-01
1.815237456339567346e-01
1.615616884394072972e-01
1.948759881223378065e-01
2.154998938742265779e-01
1.422891455557141471e-01
2.067659476579682409e-01
2.029021073015146170e-01
1.374637433246792828e-01
2.199301942349926875e-01
1.574936496834346278e-01
2.334672011581113149e-01
2.292143559235135797e-01
2.205611696390352150e-01
2.054129271982382821e-01
2.636818587207457321e-01
2.287790149706926124e-01
2.496468880494141507e-01
2.553136569135514011e-01
1.949621340477774856e-01
2.232457761042214994e-01
1.900740602975561078e-01
2.085732354111529407e-01
2.469199086229043605e-01
2.478614857585434983e-01
2.602744441188506452e-01
1.962776527208803801e-01
1.758213091914038462e-01
1.933518975657850247e-01
1.751638547912247601e-01
2.323544821058429188e-01
2.071441916041862896e-01
1.573292104059607344e-01
1.775370731519632372e-01
2.090475241708417975e-01
1.836898649046503629e-01
1.783146394599682272e-01
1.568763720935566763e-01
1.870314267392341467e-01
1.583486550206055221e-01
1.642792508773839311e-01
1.101611791053795919e-01
1.893438379317786968e-01
8.988644168114168220e-02
1.458837031215155788e-01
1.536930504818748988e-01
9.194859342788383461e-02
5.015474174647377437e-02
1.468496898283301877e-01
1.174609582524312190e-01
9.517184091877001206e-02
6.049369080152478678e-02
9.716149802079640518e-02
5.660255678279469543e-02
7.299472338612364442e-02
5.283750296758281395e-02
5.424950992841139769e-02
1.547115441411937853e-02
5.519723058436859509e-02
3.514822032747336178e-02
2.578562968857309179e-02
-1.064249595081498412e-02
1.981985372826968600e-02
-8.926225587261721328e-03
1.622906275497992129e-02
3.778745423156510547e-02
4.829598183607432954e-02
-1.747984949840135707e-02
4.041708337374336213e-02
6.675469740576610300e-03
-5.011366353163237974e-03
-4.645668590734758352e-02
-1.361462358511881382e-02
-5.408144925512656243e-03
-5.852353217909361804e-03
-6.726727263337832496e-03
1.188776219637894399e-02
-3.319742804183324625e-03
-4.628888531791418293e-02
-6.402708644346388756e-03
-5.496365847957385142e-02
-4.973228335893745827e-02
-5.010656456940353054e-02
-3.544067518610360956e-03
-5.249472532742492648e-02
-3.753408418662306650e-02
-3.997602745086797915e-02
-1.959155141804128780e-02
7.841159172277192835e-04
-8.064696520946253167e-02
-2.575717932755496042e-02
-3.586235411321850308e-02
-4.000558313709694225e-02
-5.193402714923197466e-02
8.495217635330780392e-03
-5.626710711146568067e-02
8.480675225066180989e-03
-7.890228282481426270e-02
-3.270203506824005679e-02
-2.414108473307058356e-02
-1.017029395591109719e-02
-7.795740583814664282e-02
-3.600927190353992585e-02
-4.655825621839916606e-02
-1.912955088301995094e-02
-1.095746039824350981e-02
-2.090950168445870894e-02
-4.617248302714575814e-02
-2.587031981342196446e-02
-7.521167248730857569e-03
-3.931576435416799659e-02
-3.171272512443058800e-02
-1.300711259239852036e-02
-2.935410956244104141e-02
-1.276846340101327193e-03
4.555593445131574104e-03
-3.932806421291512589e-04
-2.753427094143511000e-02
4.225047997641771802e-02
6.017932558053401548e-02
8.103195686629018069e-03
4.999981780725989977e-02
1.856500277588334080e-02
-3.929770322648983710e-02
-1.407778142308385716e-02
8.153751262129589616e-03
4.065834859682779245e-02
6.632141597051213755e-02
3.796213344566774089e-02
5.248519086193485783e-02
4.811604199918309566e-02
1.000251094389528889e-01
6.748936643247033240e-02
7.108141365357555086e-02
6.377173687663839630e-02
8.557452361744630198e-02
8.545224572111453920e-02
6.332500919719943888e-02
8.504344254725013097e-02
1.171030481022928282e-01
1.407906570973425642e-01
4.768290461272406411e-02
8.644153686407357595e-02
9.035184707476076604e-02
1.515584770183779351e-01
1.788748698124189573e-01
9.052852035613084825e-02
1.259413653158065749e-01
8.158936564028840266e-02
1.162256298596330562e-01
1.003995617700681464e-01
2.669211351651692293e-02
9.777922268132893668e-02
9.843922575598787472e-02
1.520140696876800812e-01
9.770330949974639911e-02
4.867662831602009854e-02
1.190098410508882154e-01
8.746139807760783258e-02
7.665418116502895063e-02
7.743518132696124157e-02
8.372378736579111358e-02
1.291654787770197543e-01
1.794074984553828966e-01
1.854130633137317241e-01
2.355972726562975406e-01
2.396205798515977370e-01
2.915354018393819802e-01
3.279687715554400196e-01
4.431341878881953633e-01
4.430304255691687731e-01
5.114834896289162103e-01
6.503303430156378573e-01
7.176462248592082593e-01
7.244201964838418162e-01
8.564584494666056536e-01
9.671996020133978300e-01
9.787978710030388330e-01
1.052163473806764671e+00
1.136359375549304662e+00
1.171877631209491399e+00
1.206902397101264901e+00
1.159320369274783324e+00
1.245387793155111167e+00
1.225183667811933219e+00
1.205787077720084532e+00
1.041277097199215351e+00
1.033683588542666287e+00
9.787438564750049474e-01
8.976648375493253562e-01
8.235784183723657836e-01
8.013414788103451203e-01
6.249769704960053129e-01
5.402640757745513778e-01
5.346949127375005828e-01
4.574528199088395697e-01
3.453124240489676700e-01
3.417993760190446428e-01
2.766771536330382419e-01
1.796498421701382131e-01
1.573806799822195235e-01
8.843340312838321449e-02
1.339716880158859091e-01
8.513790200037299472e-02
9.439933031588346179e-02
1.052848829104112427e-02
8.757811472806377451e-02
1.631624059552507638e-02
3.728349803039366500e-02
8.311505834156021622e-02
6.766928973701040462e-02
5.626718113456037618e-02
7.076209470647826238e-02
3.562647716821544519e-02
1.136200195406517066e-01
3.375141254313155509e-02
8.410239486198162195e-02
1.176079192853867750e-01
1.479149898986742151e-01
1.223144070344609480e-01
1.428646432744621331e-01
7.355919335859967267e-02
5.413124501886507761e-02
9.034440671231408482e-02
9.614611067272763045e-02
1.490251366029151925e-01
1.383549679624779538e-01
1.421494138455222656e-01
1.475491879960739439e-01
1.141344179672809794e-01
1.127404734424625465e-01
2.174455778503097403e-01
8.585897265717815086e-02
2.060189651358232676e-01
2.049542520907385035e-01
2.156357753521161436e-01
1.970562634803706969e-01
1.877109122253639573e-01
1.707865403474488064e-01
2.094252377070806859e-01
1.664897558754127593e-01
1.868514998371409441e-01
2.351122127905388437e-01
2.085516081113095166e-01
1.766783504683800965e-01
1.318120753110668952e-01
1.557006008687526477e-01
2.330115783482989977e-01
2.154737062883460008e-01
1.885322976107718373e-01
2.207385755325667054e-01
1.834183601678874287e-01
1.838135781008028991e-01
1.499502476040135979e-01
2.278163354444229238e-01
2.290915463703949995e-01
1.817273424083580280e-01
1.998132118688498438e-01
1.752105134953707566e-01
1.431618002152076352e-01
1.983093329759485213e-01
1.422032518780084465e-01
1.239926619011887249e-01
1.341050543949313667e-01
2.055910835652991486e-01
1.848568064761688112e-01
1.330424800361043047e-01
1.353041726769392272e-01
1.610796472190616502e-01
7.247960919114165845e-02
8.052147174184989820e-02
1.361955302484905428e-01
1.243095579678075019e-01
7.881950148294114555e-02
1.045441961196494768e-01
7.213805015671112542e-02
1.422590763142643766e-01
9.264960737359462239e-02
9.301961912479467243e-02
6.835955069361029923e-02
4.776035490390947991e-02
7.735350016074094004e-02
6.467328495187442405e-02
7.196796284317606707e-02
-1.511166793765499755e-02
1.744459525062402871e-02
-1.561336267017385954e-02
1.194962151836827940e-02
2.420435579826371586e-02
1.023512821304643494e-01
1.145772953177037756e-02
6.077837601319734107e-02
-1.698884383634573225e-03
-9.839681837237775064e-03
-1.323154345297616538e-02
-4.454538708354544019e-02
9.823293666480034658e-03
4.599917475118760202e-02
-2.923615549432485861e-02
1.135038773368664961e-02
-5.574366604781048201e-02
-5.080399423119627556e-02
-2.917606978059157988e-02
-3.161555260112489107e-02
1.873971047535093193e-02
-3.680584171466554089e-02
-2.158257479380156982e-02
-3.843202811869068924e-02
-2.236422278777137895e-02
-4.850227303296356096e-02
-5.684409692851746104e-02
-4.825276506925557651e-02
-1.308925324456882908e-02
-8.034024721603243158e-03
2.318132041689485723e-02
-6.687291755037708119e-02
-1.438589744347540736e-02
5.008589760368845067e-03
-7.294641920590513862e-02
-6.197726033133676982e-03
-7.005316211566699203e-02
-1.341901467763189845e-02
-5.531663001583515815e-02
-2.659442189282842234e-02
-4.338080219947138688e-02
-7.652160299789187436e-02
-4.730410945121999583e-02
-1.008288297562139404e-02
-1.053841876310167291e-02
-5.701126430264265299e-02
-5.807821333856508922e-02
-4.667156881535274027e-02
-1.032359684845635117e-02
-2.438709494185384991e-02
1.695786862460511163e-02
-1.074062614645627037e-02
-4.081255130141822618e-02
-1.099226372396224505e-01
3.209358340110951557e-02
3.793094860849641897e-02
-2.644617162494635604e-02
-2.247572464076639728e-02
-7.355166353242757749e-02
3.013225512969592429e-02
1.150268581016416353e-02
4.768880606735387273e-03
-1.258360924684408591e-02
-2.492629213198632732e-02
3.642529854792397187e-02
2.304994053664563558e-03
4.065564064189078342e-02
7.675292883919668241e-02
4.525134311571622769e-02
3.743930029064390652e-02
7.766129597288658204e-02
4.479462192727034359e-02
5.900695063052705663e-02
4.812574725081306126e-02
5.976526376468418306e-02
6.724338274781287150e-02
7.937918500825547063e-02
1.222694581962139315e-01
8.694285002190850487e-02
5.990693291287767924e-02
5.440976609056626112e-02
7.177647245991161662e-02
1.427351075286551474e-01
9.372381856673940581e-02
1.622823799461186600e-01
1.351328407783274899e-01
1.319326883945041717e-01
1.280457810483561776e-01
8.041624083905581089e-02
8.468689653602097522e-02
1.134906264548700694e-01
1.508873962802545210e-01
1.241682241313691454e-01
1.781250970564925984e-01
1.136176570209454506e-01
1.181556356256120571e-01
1.087713463541244846e-01
5.818939291731582697e-02
1.420222376873854775e-01
1.086180911541586025e-01
1.036299115700264756e-01
7.159778294868843207e-02
1.356012162531693710e-01
1.336813533770918605e-01
1.682812314640160234e-01
1.485293277253208477e-01
1.977408603715010704e-01
2.109491941597763376e-01
2.073139029034635206e-01
2.523048008086797300e-01
2.618328479879723503e-01
3.376089700240322844e-01
4.576460118529964149e-01
4.691788198950877509e-01
5.395128153509388680e-01
6.718513333174986890e-01
7.132951766871888921e-01
7.908155528330541584e-01
8.728558611192687167e-01
9.509365339070079415e-01
1.040834048494782671e+00
1.032696638277059487e+00
1.112107854996349454e+00
1.172907920080361377e+00
1.194190524704515699e+00
1.179962273618459845e+00
1.206034491742060455e+00
1.193756780489989344e+00
1.144646309848714960e+00
1.119270457725477064e+00
1.107417345440806944e+00
1.045556437468038391e+00
9.157821936283822017e-01
8.498359183981705200e-01
7.799826550202569875e-01
6.749535066452498899e-01
6.409654990034245881e-01
5.184774082541491191e-01
4.430220612801279989e-01
3.811514612031160487e-01
3.392625123907687668e-01
2.734163044722110469e-01
2.530612514965307480e-01
2.206087502058471650e-01
1.183658115568508029e-01
2.071174144190303101e-01
1.612787652612203415e-01
1.207612552076843399e-01
1.154439613095372824e-01
9.852510590603957841e-02
7.496003257303876510e-02
9.599464125193032937e-02
1.233267879821482865e-01
9.806434080705139777e-02
1.157056062306999478e-01
1.405038690984523053e-01
1.477912474400406850e-01
6.776584421754844323e-02
6.786110642139604743e-02
1.694279168161622606e-01
1.096894374553930018e-01
2.085018315920049436e-01
1.001615314559473197e-01
1.361640920212580930e-01
1.589386198267729589e-01
1.511482918889117955e-01
1.105026133363831709e-01
1.593122721038532918e-01
1.720877778137864245e-01
2.151190857148433944e-01
1.905370423474749275e-01
2.282332887760625539e-01
2.010467807668221696e-01
1.802034740035745597e-01
2.214226614625712797e-01
1.590777495593969360e-01
2.269741260715398834e-01
2.155948054592695395e-01
2.034524233932809567e-01
2.327802760959128969e-01
2.095196006640052400e-01
2.114438218198330388e-01
2.508744781059548679e-01
2.776504136024098846e-01
2.758580937415548440e-01
1.833651504587507364e-01
2.537219935076533428e-01
2.260558563918036168e-01
2.302269244083642863e-01
2.865063517323982456e-01
2.380168337830900205e-01
2.679479830844195831e-01
2.105486058406225713e-01
2.384755533519518356e-01
2.545147090149798563e-01
2.290339407074938882e-01
2.530151619236913896e-01
2.068246860472017223e-01
1.987637242746984612e-01
2.527807272195029542e-01
2.204107233306276947e-01
1.864839814586701228e-01
2.056847274840106488e-01
2.594368936027539596e-01
2.212865878247392837e-01
2.137393183731138568e-01
2.187676524565596026e-01
1.934735392416662425e-01
1.854184203461048674e-01
2.017418781633354974e-01
1.232477118196427662e-01
2.080403137789855472e-01
1.422358723267591607e-01
2.199563894910629147e-01
1.614172336583690193e-01
1.592120194196617045e-01
1.709784105500929685e-01
9.380173958529833267e-02
1.399996999539044329e-01
9.566275032267171352e-02
1.377460409010683451e-01
1.124133316073842592e-01
1.203983853374987478e-01
5.383290499529618661e-02
7.600164269571343945e-02
8.669724693580430075e-02
1.275570409598364152e-01
1.407809120519140922e-01
4.345756566843379104e-02
5.746828956253396958e-02
8.224704603075574938e-02
7.665306815679362451e-02
6.571826184993484476e-02
1.064336428600352533e-02
7.698354152358360958e-02
3.341931356976025891e-02
4.411595596436028444e-02
6.493218111836168704e-02
7.530515560949818492e-03
7.599104954027736947e-02
2.022160242947785430e-02
5.287120174620471569e-02
5.714470698065808596e-02
4.173435840350888520e-02
4.002556628452573484e-02
3.873885713063798114e-02
2.467037517728912221e-02
1.990153688250279052e-02
2.554347392113173396e-02
4.511315792165151300e-02
-7.347785728972572317e-02
6.062212023245901887e-02
4.523281258882521499e-02
-2.055197308900253567e-02
-1.604052215840038459e-03
3.293783893981732519e-02
7.695967768720179958e-02
4.466247177185109912e-02
4.472530875343730394e-03
-3.485337329652682392e-02
1.273978707236222627e-02
-3.153952728555387691e-02
-3.116994012986873397e-02
2.492557614540628214e-02
2.266399611048299650e-02
9.312708030083149957e-02
3.388283135975362487e-02
9.680605067788367046e-03
3.228698841941258363e-02
-1.816191778148734670e-03
7.111811325421209251e-02
-1.127409699907186424e-02
2.063874754255395558e-02
4.271420305249085114e-02
5.609422245882537961e-02
2.293846670555538952e-02
5.881741251046173485e-02
-2.626779005034969236e-02
5.769834842106472128e-02
5.552358927322349758e-02
4.156298434253395679e-02
1.025681799708245273e-02
2.018585327710161262e-02
3.348731150141256996e-02
6.392252775244239293e-02
1.147539912837435699e-01
8.396119105804202010e-02
8.976771257800014725e-02
1.129480850171511175e-01
3.932490565113705427e-02
5.833268167577861096e-02
9.951510790738683776e-02
1.442187618856663467e-01
9.714957176901123370e-02
1.121749441102691397e-01
1.077479668598681495e-01
6.683626931182938546e-02
7.612476142421090164e-02
1.352859568350091302e-01
1.464692107964417622e-01
2.008869272712920928e-01
1.419836309627305337e-01
1.591228087310540829e-01
1.770351292322875358e-01
1.256146150072948720e-01
1.676344698568149605e-01
1.135686420316141254e-01
1.428410211667986152e-01
1.886408420106894246e-01
2.256709532275911201e-01
1.349191387446755375e-01
1.801500117468357309e-01
1.648170982872736445e-01
1.979851970720455101e-01
1.848081452888090392e-01
1.169982439189671264e-01
2.305213854344086433e-01
1.651277721142354049e-01
1.632673282837720785e-01
1.767108555852300866e-01
1.338330220634415257e-01
1.708299529347917511e-01
1.661662461283926751e-01
2.144683170812607953e-01
1.978785346342284979e-01
1.871084900381679850e-01
1.988593874088160907e-01
1.790020181854958259e-01
2.060627500656810329e-01
1.605861511487897131e-01
1.630353115131127351e-01
2.504113937687460489e-01
2.186731022979850891e-01
2.338309383261514274e-01
3.271837765937897213e-01
2.717413310120279091e-01
3.442236014515368536e-01
3.984366586972490909e-01
3.941446466492479761e-01
4.509258880427841065e-01
5.263633372277705114e-01
5.894474000739901021e-01
7.137584696347214486e-01
7.914380226960461284e-01
8.888028518938163591e-01
9.401152365940071975e-01
9.479651209198450834e-01
1.111143751366543642e+00
1.170665895272899437e+00
1.159204702555732158e+00
1.283484847353633551e+00
1.293190369020098096e+00
1.260602476101649216e+00
1.290564200700476949e+00
1.270794064230010401e+00
1.280843336102437613e+00
