1.205359608324895415e+00
1.130331360180889755e+00
1.143586968600201370e+00
1.128905228098564750e+00
1.085854407413474609e+00
9.547596053288767148e-01
9.290308009664595135e-01
8.158383370380156707e-01
8.121321378019317194e-01
7.178918727446644832e-01
6.367511159593410852e-01
5.699640667823735463e-01
5.143103024486889163e-01
4.678836599461579926e-01
3.511140993072948691e-01
3.196699175116777258e-01
3.133917784141333485e-01
2.691080491543653141e-01
2.415055937394129382e-01
2.864786772083885436e-01
2.059149379459818963e-01
1.991206622613950761e-01
1.973212218921208405e-01
1.576331834691760969e-01
1.059106074400048003e-01
1.719828569084107528e-01
7.364007721151560881e-02
4.969904469124693247e-02
7.314481870931649476e-02
1.612924530623703889e-01
1.457749735939898039e-01
1.876321251298297410e-01
1.004167362926778467e-01
1.695655218083099158e-01
2.100238338516594583e-01
1.292731789339018611e-01
1.748852077859235910e-01
1.876848398149801866e-01
1.883346156039649166e-01
2.025939946622120624e-01
2.306908337850829549e-01
2.418137843267680887e-01
2.558248772939244464e-01
2.057649721521638275e-01
2.198191532138984994e-01
2.548133187061134564e-01
2.904614700896298030e-01
1.942428595677000158e-01
2.456364719540524710e-01
2.644079354142930272e-01
2.850193959647318587e-01
2.841286116971210585e-01
2.791611881083637670e-01
2.768056942739861026e-01
2.824375589271360676e-01
3.403860867580391081e-01
2.661429851815335645e-01
2.813170180514965590e-01
3.588087103701541047e-01
3.193723438970684780e-01
2.793049817446028316e-01
3.056525056718440436e-01
3.021748784845851854e-01
2.637033937912795500e-01
2.078963752388782449e-01
3.169134069731671666e-01
2.966135697184827391e-01
2.856097198956887295e-01
2.834006856220769310e-01
3.074585982085317193e-01
2.782184524976902829e-01
3.034787886508743537e-01
2.442267630857863081e-01
3.456506874293726606e-01
2.348696213904095664e-01
3.078441216924219792e-01
2.094308856933083662e-01
2.677745821810883498e-01
2.601680331333552920e-01
2.691973309963894279e-01
2.217066317286326971e-01
2.423089260601195283e-01
2.376129821823341759e-01
2.258252657755045467e-01
2.476859133809997671e-01
1.848691712404832155e-01
2.022346299825475424e-01
1.744001293270616704e-01
1.590306070083382928e-01
1.892829674045895805e-01
2.009532631069546049e-01
1.864963253739923277e-01
1.290058298726372565e-01
2.433006259579582609e-01
1.825166886991972659e-01
9.839360365339620829e-02
1.437990361705177023e-01
1.387527379308614306e-01
1.468770824949285347e-01
9.881002985294770613e-02
1.787645847361005180e-01
1.706377725654246724e-01
9.772146565331918389e-02
1.294787226461472096e-01
1.169971865795792210e-01
1.839534857218506902e-01
1.385472033458036711e-01
1.110936338889360886e-01
1.152091481868639244e-01
9.179662432369685432e-02
7.899047182519458588e-02
4.683581229015065794e-02
1.293888292967356191e-01
1.120928431111617440e-01
8.410130347852208532e-02
7.994020173555746456e-02
7.614493519992297788e-02
7.342113596479236948e-02
1.086512284214963264e-02
8.333292786440067712e-02
1.081213579186523638e-01
9.811260672326183041e-02
5.928832191908275234e-02
4.097735259796463081e-02
6.947113461615513075e-02
1.069656242642338939e-01
8.153025208152210601e-02
6.983981013935869342e-02
3.563595266455005933e-02
5.356081938839167556e-02
8.537744029143852498e-02
6.385000817281999419e-02
4.923921372274056574e-03
5.109660577416130778e-03
2.235053651864818067e-02
1.238152716727274755e-02
4.808905008509575807e-02
7.312583914816045416e-02
5.937503245327721557e-02
6.531585739181018646e-02
6.736277176232260966e-02
7.998706012376641250e-02
5.954929947147254848e-02
5.822657615469521014e-02
5.325584240026943333e-02
6.598929692931571056e-02
7.946915082869501767e-02
7.667770219708619495e-02
8.479267682126628847e-02
8.924704638680018565e-02
7.141212556606268969e-02
1.120239394005191347e-01
3.971749449053586789e-02
6.714857663804817134e-02
9.140747107815300199e-02
8.737766028043567057e-02
1.474738987282453728e-01
1.366443739926894718e-01
1.271914106477263495e-01
1.433781757476326191e-01
1.209538438399098692e-01
1.131172285571303837e-01
9.267186436509899927e-02
1.334714972657082832e-01
1.741687152526222582e-01
1.416295483781656039e-01
1.374468633041334154e-01
2.195491833396111536e-01
1.838238812301564440e-01
1.511391426388400405e-01
1.180458083059888197e-01
1.833320989367949461e-01
2.017011327856612357e-01
1.867611580844943109e-01
2.055309361188554229e-01
2.398801589794808675e-01
2.090434584319376121e-01
2.158388257787597353e-01
2.222816509768404392e-01
2.458998468449478669e-01
1.535127937841283263e-01
2.553590150971917772e-01
1.505900378260232597e-01
2.410947323230714645e-01
2.005041829410727783e-01
2.211563958674607477e-01
2.186859194001473938e-01
1.823561415799751506e-01
1.843272291614164449e-01
2.215438434566537051e-01
1.803366841941078380e-01
1.238389246550620909e-01
1.945219910653572526e-01
2.157791026369802190e-01
1.568850185501090011e-01
1.963878015866800109e-01
2.205790065790450005e-01
1.531497807063722516e-01
2.645682748826786446e-01
2.570713583708560401e-01
2.712349273924772874e-01
2.793459573129783990e-01
3.315773237068369572e-01
3.237731179961482741e-01
4.115490892792436628e-01
4.779740946591342077e-01
4.854128678086170323e-01
5.007006436860934606e-01
6.318738598338862200e-01
6.819487588476155215e-01
7.968564145915122410e-01
8.220037756086511216e-01
9.588629950099664123e-01
9.665957004933412033e-01
1.023531101672091159e+00
1.101074905767657430e+00
1.156470275905487677e+00
1.231021208054399185e+00
1.180979045010489337e+00
1.174736600000710229e+00
1.196319282024286501e+00
1.126042124557679491e+00
1.109193345434671407e+00
1.043247017379782760e+00
9.524143272936399507e-01
9.092300151793972773e-01
8.671388981677317087e-01
7.643345488176159774e-01
7.040796627554986031e-01
6.275507656772708609e-01
5.306865315871571731e-01
4.965047430007755724e-01
4.121339505043217777e-01
3.699271325132116317e-01
3.321938596470215832e-01
2.484801852718195592e-01
2.449510321468292007e-01
2.105381334741940891e-01
2.049667761585726722e-01
2.248698002462082013e-01
1.363126024289487426e-01
1.699372282458561645e-01
1.611161232373473640e-01
1.276448115390144411e-01
1.311606479363187638e-01
1.747603678042211617e-01
1.498020873695845578e-01
1.673995088219630278e-01
1.913463846562359905e-01
2.022091953562085431e-01
1.828208520004616089e-01
1.607012520191888338e-01
1.545470645393241527e-01
2.132299717238304304e-01
2.292531360754174741e-01
1.966978118086634697e-01
2.138939802156085701e-01
1.688585093063660336e-01
1.676705472568880972e-01
2.355011050003540662e-01
2.339388287023980439e-01
2.230083105330755155e-01
2.170459301404106534e-01
2.604074309468877302e-01
2.409825280588061558e-01
2.302934588875572008e-01
2.205053108536142448e-01
2.781611959001318857e-01
2.300772502994642976e-01
2.763709261974306441e-01
2.396034895450463442e-01
3.006264576269820354e-01
3.121125352513865470e-01
2.978278353534962175e-01
2.718674429802206971e-01
2.794371282045621241e-01
2.428422017811894262e-01
2.988224485736911129e-01
2.599760127848831370e-01
2.925292676534814174e-01
2.482536352597442819e-01
2.967667021907142710e-01
2.814162636596961864e-01
2.700247249659452065e-01
2.835130242611520468e-01
2.863344376609406328e-01
2.869165357774831615e-01
2.462088178559032892e-01
3.346644675552570281e-01
2.591749679542138529e-01
3.429490056402380027e-01
2.188460020116915761e-01
2.245294314856251527e-01
2.537458032627440963e-01
2.460098898618108265e-01
2.049470923623822327e-01
2.824042767395990028e-01
2.385551943798789876e-01
2.334151572775752526e-01
2.315277382751200763e-01
2.619894066165970314e-01
2.355858901551808327e-01
2.241433921610342384e-01
2.450551335090578597e-01
2.305536925181516095e-01
1.505784271031227473e-01
2.367077107248042322e-01
1.973472215534730900e-01
1.944175848923863081e-01
1.757613337621442284e-01
1.966054238201955795e-01
1.197957359338157196e-01
1.903644070467322980e-01
1.714065525491527686e-01
1.593086046397606537e-01
1.641987638324036158e-01
1.853107384222142384e-01
1.201787235544720667e-01
1.786519601219661302e-01
1.107113394958064989e-01
1.250933494103345645e-01
1.038265516958444823e-01
6.661029075561972213e-02
9.627648945986423679e-02
1.109497626321724051e-01
3.350867863259807816e-02
4.140055168629358517e-02
5.767874023011307361e-02
1.254695637648105544e-01
8.332221035179204760e-02
7.536507981051140947e-02
7.414774389939188248e-02
3.080556934195394225e-02
8.418230202260235107e-02
6.832908205465498819e-02
2.212488510652956680e-02
6.497702664036925091e-02
3.979132327898129984e-02
6.575958070224990903e-02
6.124657473019169684e-02
7.938383799487933046e-02
4.511861006849191696e-02
1.250510793881838209e-02
6.188133120950514016e-02
1.086082708520562101e-01
6.155577132696712916e-02
5.125008981089383686e-02
-3.210140982040958491e-02
2.501636528860899655e-02
5.006177837878889730e-02
7.444027710121850494e-02
3.873299776917767112e-02
6.251796535659751020e-02
1.575271663037462050e-02
-1.538523338102601445e-03
4.584702072120427907e-02
-4.119227976858371582e-03
3.297599059848594499e-02
1.169770586785275762e-02
3.817494197333085038e-02
6.551744616304627095e-03
5.609718358601645249e-02
2.202181985320810637e-02
1.160052297129899809e-02
3.282161736676035557e-02
2.709645456288052590e-03
4.813106465549605445e-02
6.448643646933069351e-02
4.507756237269434918e-02
7.187886855330818947e-02
3.504713315791983114e-02
1.753447937737731901e-02
9.815947960394123817e-02
3.822763358348256479e-02
2.291185114238506945e-02
1.113739003804082583e-01
1.267418020274958534e-01
6.085187005279822647e-02
1.130848771325792534e-01
7.273041020596228423e-02
8.172342815950550676e-02
1.363634074822039077e-01
1.271516510844300785e-01
1.579173725740403711e-01
9.070054213495959416e-02
7.612823890144540528e-02
1.357034935622823679e-01
1.476517810255703889e-01
1.536041572446840420e-01
8.066785225478731447e-02
1.264466174457721803e-01
1.076626290405895969e-01
1.664441590303037122e-01
1.351439741501805902e-01
1.150394627725595809e-01
1.735065290639753455e-01
1.501888711629836282e-01
2.018855247051095092e-01
1.815648798975078582e-01
1.684795393453253076e-01
1.527979874685099770e-01
1.701627961328946448e-01
1.142812795796419589e-01
1.511639483563943231e-01
1.736318554406513226e-01
1.513474877783403949e-01
1.428199643202213431e-01
1.445524160075384035e-01
9.422977422444729634e-02
1.214267459399823029e-01
1.447947088602385690e-01
1.493395910443014729e-01
1.636223579973024866e-01
1.349875494814516408e-01
1.781507374615416694e-01
1.748612106674047040e-01
1.671337673182181904e-01
2.148932064394111496e-01
2.150805984491602207e-01
2.369691647062671103e-01
2.763884032237389765e-01
2.709957600705492076e-01
3.054642806774929276e-01
3.918147281873264887e-01
4.255219850867254516e-01
4.980613358532882118e-01
5.783913400481135447e-01
6.651303573632997290e-01
7.051051638169403279e-01
7.918346781725217332e-01
8.387426260938778411e-01
9.240321589141198277e-01
9.586839599078081919e-01
1.065599131337799710e+00
1.101959312161507443e+00
1.115237309520121345e+00
1.198857729157241758e+00
1.154500015745602015e+00
1.146336218492555625e+00
1.088793759867923150e+00
1.084635729192214404e+00
1.015626565068866727e+00
1.011851129683856376e+00
9.571153323436775162e-01
8.368495727164428910e-01
7.738832114695086695e-01
7.100979281750372518e-01
6.124157702046036933e-01
6.111100856745268484e-01
5.178920335476956405e-01
4.249037689307026966e-01
3.909142526248626792e-01
3.255666180479790395e-01
2.788473350486855296e-01
2.314248407365558646e-01
1.737323372106813202e-01
1.632919098243536260e-01
2.042359439416899236e-01
1.092189940544422561e-01
1.029967698521887659e-01
1.168487227652687394e-01
9.895338709739065486e-02
1.055047451450114443e-01
1.010130358176395682e-01
1.043899180182069203e-01
7.687644020316238003e-02
1.581305668219747662e-01
1.389107800890247157e-01
1.485824155138103786e-01
1.432358845457892826e-01
1.639117087761621239e-01
6.263229030043050705e-02
1.385222465673670855e-01
1.438474109750738084e-01
1.513968794078450197e-01
1.619984576869438198e-01
1.699787896502172324e-01
2.014438632660966733e-01
1.828308566176543026e-01
1.456526555146241964e-01
2.334647707467181477e-01
1.958589812978826783e-01
1.464375080448689082e-01
2.149620102360947083e-01
1.613426235501162764e-01
1.848847344103795864e-01
1.937407140748745871e-01
2.342504847960491521e-01
2.131353236292012066e-01
2.375414457848535610e-01
2.651966649648169749e-01
2.049290613552374185e-01
3.185499221778319012e-01
2.677899140019216473e-01
2.427880207664025458e-01
2.730424129011017054e-01
2.390895205960717196e-01
2.299468543314571733e-01
2.430105618897977215e-01
2.437718558322015394e-01
2.295726267482878780e-01
2.368458436423782343e-01
2.480059628090106327e-01
2.118798453784276892e-01
2.505528368434088438e-01
2.340586020944128154e-01
1.673887766779809660e-01
2.323536451059831087e-01
2.438169472597553900e-01
1.703632341758116453e-01
1.905271219425981877e-01
2.622799362478620000e-01
2.531076813275833226e-01
1.940640211132131920e-01
2.349701549859685712e-01
1.858353156408815154e-01
1.931938580075628353e-01
1.672569156765429388e-01
1.936572411766571689e-01
1.979212816251195162e-01
1.802204596395911573e-01
1.994198623649131308e-01
1.343529187919837442e-01
1.344511562514233427e-01
2.000839928458193195e-01
1.437930518108415656e-01
1.318295426772562451e-01
1.236576026221107988e-01
1.216311239583172804e-01
7.256995494142835790e-02
1.344366106424248475e-01
1.570318029697385376e-01
1.084925477217564410e-01
6.770840099608357865e-02
1.202567166145198096e-01
1.245314676963144712e-01
8.049100650350995978e-02
2.722983767790428111e-02
6.574054593447221928e-02
7.956236745988692904e-02
1.034218928516014435e-01
4.563844200681282243e-02
1.260588902000341072e-02
6.250763659492612756e-02
4.058531002935911181e-02
3.047790607627327147e-02
3.490345171330501428e-02
3.557882543767582062e-02
6.092580609804090080e-02
1.408455417080194116e-02
-7.173308689330190613e-02
2.252345646623793787e-02
3.518928758402188606e-02
3.006129293929523175e-02
4.772497242457188205e-02
2.223062914765742276e-02
3.797822734028220848e-02
2.157831279912825542e-02
-3.639064174701625576e-03
6.584053310919345259e-03
3.638116809916193406e-04
-3.486380463075704206e-02
-5.878918733653662465e-04
3.118566182276621968e-02
-2.207524153276618772e-02
-1.043326257349691880e-02
6.067843398459896870e-03
-3.262605957791096800e-02
2.177875074527555604e-02
2.065947553428004388e-02
4.829486148674055901e-02
-1.383588573462232740e-02
-1.034763015193640098e-02
3.906594702261072943e-02
-5.549983448229690863e-02
-2.299874838800038124e-02
1.116071720298399128e-02
-2.265600662276646277e-02
2.543791926371211792e-02
2.590336083103120246e-02
-3.192251810272383333e-02
-4.350058220178006085e-02
-5.315599648913628406e-02
-7.221739764130953587e-02
-2.288811735433034233e-02
-6.383735011373166401e-02
-2.972598070101244161e-03
-8.614613618306118242e-03
7.521966273048324991e-02
-1.183348596293377214e-02
-1.352705522936081470e-02
-8.018760415045296519e-03
-7.335334073755216122e-03
6.175038944555847481e-02
4.371990564250804318e-02
2.949392040074488505e-02
7.796088620792165913e-02
2.096961932199168516e-02
4.526469194062809898e-02
6.190342859565539646e-02
2.505659333829025892e-02
9.542168258295274930e-02
6.191768832539324557e-02
7.153204036227932272e-02
1.090771282281824683e-01
4.269733136149626851e-02
8.458632722734445164e-02
9.946200871408464317e-02
3.322194662607735188e-02
9.899413676006901808e-02
9.001415711848993750e-02
1.749296948999957135e-01
1.016028993490421528e-01
1.582386913530053896e-01
8.361845699968344092e-02
1.433951482448966863e-01
1.083761231364192001e-01
1.343578297810195665e-01
7.592121174767189895e-02
8.829729489481083493e-02
9.301520272300664582e-02
1.734587951316095000e-01
1.855348172872346990e-01
9.108218172867521556e-02
1.282337923519084322e-01
9.912735381271450819e-02
1.007454070204716057e-01
8.603760063407747682e-02
1.025570309003718261e-01
3.436960991016736050e-02
1.627933401144521786e-01
1.498390900654962277e-01
7.270476275706916347e-02
1.324890913389453195e-01
1.493437988450619647e-01
1.132089955835921535e-01
1.526052631507661406e-01
2.144591440560887907e-01
1.959058924864972573e-01
2.165968538935075238e-01
2.543730288016398111e-01
2.900281074327588637e-01
3.365158040288106500e-01
3.982898748972867331e-01
4.964448543168172301e-01
5.230447285651693701e-01
6.147541724117961959e-01
6.459311779830148037e-01
7.768732756320498867e-01
8.253742822495162557e-01
9.549983246172314422e-01
9.560117167867552279e-01
1.018210819732699779e+00
1.062296363317519976e+00
1.028100373980431970e+00
1.167772971493864942e+00
1.073032248162345104e+00
1.055652162018629880e+00
1.065639597191163412e+00
1.017620134993274084e+00
9.686399727365987422e-01
8.865297201556558981e-01
8.526339729426412051e-01
7.088672725143582154e-01
7.295515995146878430e-01
5.787072167239518672e-01
5.167360108157595944e-01
5.020696092510631425e-01
4.799984880653679897e-01
4.128179742490669657e-01
2.879139046846075911e-01
2.676918128621806336e-01
1.891729460452192813e-01
1.847397740264398180e-01
1.138023228289297417e-01
1.256667754604679499e-01
1.296913283648790105e-01
9.500424202288154651e-02
1.344866750889817941e-01
2.721076362288856604e-02
9.225840254423112174e-02
7.085008751672251803e-02
1.186522931223551180e-01
6.857846690455282612e-02
5.139304888534937388e-02
3.705844533638821825e-02
6.021734207008011541e-02
8.051760420238845972e-02
8.152595454178768186e-02
8.492965125510623658e-02
1.001626834977797365e-01
1.264335411194254244e-01
1.379472061979425679e-01
1.295698056151339261e-01
1.465407903370921916e-01
9.236939850934718088e-02
1.014627731820681722e-01
8.328516514649039748e-02
1.035936102597072722e-01
1.574753264228051786e-01
1.759456690784068356e-01
1.013123811875503988e-01
1.332367916010898656e-01
2.111630606742858907e-01
1.173404464127137115e-01
1.707508655923760110e-01
1.817915248959824093e-01
2.320194824874303174e-01
1.872876096380426403e-01
1.628883837058504591e-01
2.356084947391341444e-01
1.835952812627728303e-01
1.692366684597595705e-01
1.508978427520388244e-01
2.297503148761724234e-01
2.124309182772131377e-01
1.855211541470478953e-01
1.954041899738752919e-01
1.955133214780380158e-01
1.480076930076573705e-01
2.426041705188668185e-01
2.028393264130394225e-01
2.493423246877319865e-01
2.262457078909078934e-01
2.235991699133522970e-01
1.971885018167122694e-01
1.797767211747992033e-01
1.628013931391254776e-01
1.729319724652919055e-01
2.098017546248158449e-01
1.588081261024278379e-01
2.045200333579657304e-01
1.571477462288908833e-01
2.187092722287079516e-01
1.983132077719231834e-01
2.315274979436233727e-01
1.221481428688797333e-01
1.625283409171550675e-01
1.968973817820027228e-01
1.057082667769496387e-01
1.714992161490690448e-01
1.553058400032220066e-01
7.622312203631306793e-02
1.191067616492070824e-01
1.195924824007624371e-01
1.066525736163504157e-01
7.757231213019427640e-02
9.342921106254140073e-02
1.012360929771145834e-01
9.436158721703201413e-02
4.740458571336654547e-02
9.727854204468536214e-02
6.236932367266836974e-02
5.771027850572214846e-02
6.974733589848493287e-03
5.928205018897410306e-02
2.833465838755568067e-02
5.647220848970640333e-02
-1.200885642124052688e-02
4.598129926146547752e-02
6.512251441927319195e-02
2.953066703501974755e-02
4.689217584375161840e-03
3.365560490131052490e-02
1.182920902618431885e-02
4.559116649553275613e-02
-4.728884874377198289e-03
-6.592984862471995555e-02
3.957908354044140098e-02
-2.059753324018305520e-02
1.164697436604002212e-02
6.214339945456309744e-04
-3.505192207778089902e-02
-4.478198944300477990e-02
-1.554267908118402847e-02
-3.639283788730287433e-02
-4.048969295118069051e-02
-2.487854675040018435e-02
-2.954829193818710176e-03
-2.176618612791690263e-02
-5.122260356332301867e-02
-2.585058230739199769e-02
9.341193199668224034e-03
-5.107932770453484095e-02
-1.059948637588111475e-01
-2.435141722818487398e-03
-5.766289184499118203e-02
-2.463331953277408254e-02
-1.015777387440283952e-01
-2.992194780434315193e-02
2.339135860246655679e-02
-4.679462879932992647e-02
-3.351458582307605127e-02
-8.655859095783757784e-03
-5.137208632983782108e-02
-5.700047864224316169e-02
-1.613408184879881746e-02
-8.506286505559051969e-02
-5.604984699843675033e-02
-8.348860826703061178e-02
-4.160552348853384375e-02
-7.802715043100877379e-02
-8.692274693979033795e-03
-1.208841908299340684e-03
-1.507798474864373295e-02
-9.195321508197906724e-03
1.452395353555459984e-02
1.648904438966997815e-02
-1.879186743346868138e-02
4.618545227612372295e-02
9.793790654429118669e-03
-8.488144700773969653e-04
-4.232305660480121384e-02
-1.538694264445562843e-02
-7.236465869803199169e-03
7.027820390917627336e-02
3.377324599148193163e-02
3.292285017729157381e-04
1.185473470390368406e-02
9.135499087295474718e-03
3.760621138213032788e-02
3.985822838911410454e-02
6.839950670007892419e-02
-2.806047873469017656e-02
6.728936411996584710e-02
3.054237566711889146e-02
6.310725750523141220e-02
1.078674666234233914e-01
9.392126882889742512e-02
6.111862086883121381e-02
9.885380552769570950e-02
7.642665658363469172e-02
1.253050214864101508e-01
1.173956997854430917e-01
1.114392471333234547e-01
9.000007280745889182e-02
1.019308999479844324e-01
1.284310457356345192e-01
9.824235609364967425e-02
1.157643743064069725e-01
1.433041929948566939e-01
9.593208354155641215e-02
6.241453368032977983e-02
9.232489500953691697e-02
9.785323623180491870e-02
3.825595330663787014e-02
1.161931787923934090e-01
7.035708435421014761e-02
7.184750704597941962e-02
8.016713862879432106e-02
8.502795478687305564e-02
9.822433406191380389e-02
1.380156651740264140e-01
1.058698242175157844e-01
9.576500853157789150e-02
9.931716820815683633e-02
1.173285933558408656e-01
1.723029208827492609e-01
2.120320858357815641e-01
2.229191989559624054e-01
2.712505630313321592e-01
3.935036707440037196e-01
3.982520325855128940e-01
4.782425825964665700e-01
5.698385993155196116e-01
5.798847775792349557e-01
6.229966172046184081e-01
8.039464196368648619e-01
8.437073370200480760e-01
8.469736430687067053e-01
1.022631670979422092e+00
9.824590437288012179e-01
1.035017936772154146e+00
1.078733002131716079e+00
1.095061763719564318e+00
1.042141342299601536e+00
1.068618239040486584e+00
1.059311862718698594e+00
9.844634593459823391e-01
9.194633128844075243e-01
8.682258590276518140e-01
8.325262144551994759e-01
7.482111325816945824e-01
6.697733230908173852e-01
6.231797351982596433e-01
5.449154060926543197e-01
4.750153512060336647e-01
4.212272098088654104e-01
3.106328802053506255e-01
2.605531112847664921e-01
2.232825057414111469e-01
2.091580657788152942e-01
1.873505231523522885e-01
8.596638495041077077e-02
7.577854251826245113e-02
5.500311333466765401e-02
1.247899846120495426e-01
1.135005520136454643e-01
1.280701812726717237e-01
2.558202514073312783e-02
7.193153012394834511e-02
6.970346406525204652e-02
5.492649070507684556e-02
3.681523391300103865e-02
6.661328479917572043e-02
8.258316536176740774e-02
9.001309825472686432e-02
1.329161622405655163e-01
1.085889740077545795e-01
1.117051889961518107e-01
8.799972903915292965e-02
1.511162363110036544e-01
1.218915430975612418e-01
1.036955465269949472e-01
1.386793256941995789e-01
8.095271044246543646e-02
1.635589675386163733e-01
1.714612780703426709e-01
1.358381071110353888e-01
1.407678010366207322e-01
1.563644695373184457e-01
1.789027381226224733e-01
2.045327933553608146e-01
1.815223608677652145e-01
1.811483347478540784e-01
2.676970238527915380e-01
2.223441783179052611e-01
2.426171244083550338e-01
1.944076180327920511e-01
2.298081678898303282e-01
2.045082464445592829e-01
1.952286971115027858e-01
1.954437919204250473e-01
2.191867466557605726e-01
2.048784662785119171e-01
1.996150876378620653e-01
2.454262598859347222e-01
1.854870046826480878e-01
2.251561030751645376e-01
2.535297645226787244e-01
2.346106880061974986e-01
1.689882179527107953e-01
1.872768185138372621e-01
2.387260431391682314e-01
1.971583307038017041e-01
2.286233233675181997e-01
1.972673539665640852e-01
2.623230052243645805e-01
2.662740925577959383e-01
1.909356120617020092e-01
2.034071023614065499e-01
2.054725017222837069e-01
1.919392756607032346e-01
2.192494538977154683e-01
1.520969844800310611e-01
1.398921825551676656e-01
1.412213193410259970e-01
1.836699934520820976e-01
1.337028216357543375e-01
1.189487404382623958e-01
1.378077096339992424e-01
1.328429073494105939e-01
1.060691700225763479e-01
1.010741610622729325e-01
1.104144021802097586e-01
6.663306418993475422e-02
1.159104539529311473e-01
5.361155029615545520e-02
7.305423691379084317e-02
8.893079304061940471e-02
8.418067390941535999e-02
4.534414613315983222e-02
9.486408220801179070e-02
4.150688348707564507e-02
5.679995564508248662e-02
6.254216478820777414e-02
9.279005495241181289e-02
5.769620114490074669e-02
4.403107123383134813e-02
5.379651244371300850e-02
3.820609101770373883e-02
7.593258069957906087e-03
1.253514296684272999e-02
1.404496840723906681e-02
5.981978129300437319e-02
3.954793965407092660e-02
8.360968801500945347e-03
-2.788992544957225039e-02
4.051571534583409129e-02
-2.133712560449293680e-02
-1.430284396266809366e-02
-2.102321601010985128e-02
-2.076460166434710916e-02
4.913055909579136515e-02
-1.656843791880022870e-02
2.188904053649609258e-02
-1.151372362597662125e-02
6.263965831217733343e-03
-1.447633527652528521e-02
3.795530542456601597e-02
8.880920614997171725e-03
-3.684864874760514220e-02
6.145522615887730189e-03
-1.225790339718509786e-02
-2.022083888412012920e-02
9.073213453217481017e-03
7.651885433210381393e-03
3.514306244055248607e-02
5.238543248284759091e-03
-5.234606881720036548e-02
-2.940784422627878980e-02
-5.104742330984984172e-02
5.010488468271130647e-03
-2.706427023284922392e-02
-6.008751301245958409e-03
-4.596310288710778180e-02
-5.145507843969981954e-02
3.863543496531109123e-02
-1.961420601085864940e-02
-1.301260314190918338e-02
3.819913773524302725e-02
-5.625389400825494060e-03
1.245561152380249628e-02
6.891477901810279250e-03
1.829700161068192193e-02
1.709157761540971987e-02
-3.659873844010817778e-02
-1.247741646674584148e-02
8.838459173723625661e-03
-4.395040732722739485e-03
4.008986412810755517e-02
3.389165230996900313e-02
-9.067867879150755955e-03
5.256015374682513480e-03
3.460785872038702610e-03
2.136820017474094432e-02
4.575629777483345567e-02
7.383150447584838072e-02
4.935252783071107652e-02
6.841115667710996606e-02
2.153404337301978444e-02
1.245360554263379715e-01
6.157975861729685085e-02
1.019032077820352100e-01
1.290263386075904684e-01
1.051560603213366751e-01
8.645821499836196800e-02
1.446645220809524846e-01
1.685302012751259404e-01
1.732566329695987839e-01
1.677802627008216640e-01
1.341737048675862021e-01
1.292066371647562772e-01
1.042084445353002597e-01
1.172651272700148267e-01
1.810538377525172937e-01
1.163970950658212433e-01
1.422503293484948528e-01
1.424822557466461359e-01
1.493810194267358171e-01
9.202058354102643500e-02
1.475050119502416546e-01
1.256601639427936401e-01
1.045641251191879034e-01
1.380757961699175529e-01
9.580541583288865182e-02
1.219642234075251075e-01
1.044287575219075559e-01
1.171537505703396931e-01
1.119092836775957694e-01
1.988524696626525201e-01
1.468525872412650424e-01
1.905410536997352855e-01
1.712979787500065187e-01
2.037434588922436562e-01
2.381019612296229049e-01
2.573386578965466964e-01
2.703145858891934372e-01
2.959960459371515085e-01
3.924240743867409842e-01
4.150319046935552203e-01
5.485749920953757464e-01
5.525013163949852313e-01
6.108217294885153192e-01
6.887660396360665294e-01
8.037968684664457131e-01
8.377280562792200902e-01
9.992975515746347348e-01
9.727886670672484248e-01
9.874233455075599464e-01
1.071064703977758104e+00
1.130295077782225155e+00
1.096062725568591523e+00
1.098626073129631120e+00
1.104228040678176814e+00
1.135184021502164908e+00
1.104173407020558217e+00
1.029113379955643559e+00
9.679187246742019246e-01
8.685943943704867998e-01
8.587225714411008681e-01
7.370834186832718737e-01
6.360427296939771269e-01
5.961439472463762046e-01
5.767997229951020710e-01
5.005823752799035686e-01
4.351989285697484555e-01
3.860950128384997848e-01
2.861483473799073529e-01
2.484374402207635002e-01
1.900149910251532903e-01
1.608112455346089320e-01
1.319449755537496494e-01
1.633542788609604335e-01
6.098283260428399161e-02
1.417898267013001368e-01
1.362999827973338796e-01
1.625709694551679130e-01
7.843273777137835245e-02
1.563676752872912301e-01
1.345313831639015356e-01
1.199241641759296872e-01
1.092465247372967907e-01
1.006452398224209344e-01
1.060545995493169386e-01
1.510212034737556663e-01
1.471968961536764264e-01
1.146190681110414444e-01
1.511037841632781598e-01
1.624682745788545990e-01
2.384614710960501482e-01
1.285719703061887209e-01
1.828729958359774921e-01
2.063743109533665576e-01
2.003765601045225109e-01
1.984808860608826275e-01
1.872849230119095487e-01
2.294107452172579609e-01
2.020366300617294775e-01
2.398241943309928903e-01
2.314932848222739925e-01
2.877569319738311759e-01
2.353380590788814453e-01
2.309721190478650488e-01
1.995959493362021997e-01
2.335348727900943278e-01
2.704526050093077894e-01
2.267528753650173146e-01
2.164187140084141980e-01
2.650821330104612961e-01
2.751595665271160396e-01
2.750384066017853013e-01
2.478369527281202300e-01
2.279115573221094371e-01
2.652488205169681867e-01
3.020096205007737900e-01
2.255396520851293551e-01
2.249033328581807878e-01
2.567878094902455444e-01
2.186125086783328453e-01
2.530341618049065655e-01
2.064414394026798383e-01
2.619724816877985751e-01
2.199383125837665875e-01
2.538832811026358049e-01
2.626714089861220125e-01
2.139590334955250306e-01
2.870228292183922281e-01
2.360524677703298713e-01
2.521285799528260596e-01
2.665720650508759948e-01
1.557090798591758973e-01
2.227212873407992677e-01
1.882254405850645185e-01
1.824902481184094982e-01
1.542674293081864045e-01
1.945222689189541054e-01
1.716070110655620873e-01
1.500081868012124175e-01
1.845933497658924505e-01
1.541484307700009548e-01
1.278959355465860981e-01
1.299369642172716888e-01
1.387745120022038925e-01
1.449576939130218789e-01
1.637578206736597375e-01
1.794514227703398190e-01
1.597007991849241360e-01
1.313389112498542510e-01
1.629409653518214540e-01
9.475054644304846396e-02
1.628160860465748816e-01
8.131881016764608283e-02
1.397628545881181572e-01
1.089172238372345114e-01
9.850721932876017883e-02
8.719923786637953644e-02
1.523968635393482263e-01
1.074320665029436517e-01
8.224049176323515453e-02
5.179825526880728337e-02
5.546303188232491743e-02
4.374738260898858311e-02
6.083625910404399928e-02
6.670425191653563124e-02
9.997417669439331855e-02
7.188433778003763125e-03
2.872766910964425977e-02
7.977675604830646028e-02
2.466121294551208362e-02
4.221554650205918552e-02
8.332170660703666631e-02
3.235244312852710025e-02
9.898983365566399462e-02
1.959021603383365520e-02
1.840890846927522445e-03
5.099875417985933607e-02
4.765350151817479563e-02
-3.240934583683248438e-03
2.768153861450970907e-02
1.995201301634122112e-02
6.294217237706177526e-02
9.459009888955843826e-03
6.599529859279268384e-02
8.391922720414891901e-02
3.088905237059041964e-02
6.842794487408845883e-02
5.690977349996628742e-03
5.072202428234390270e-02
3.000598777172236442e-02
6.732668603647516681e-02
6.994876469672840769e-02
5.059356271214066059e-02
6.634870674782798738e-02
6.587614271561483686e-03
3.511233318580449236e-02
4.869452623671069458e-03
6.219302558826966809e-02
4.991736065420962487e-02
5.125138293958765578e-02
4.635381806641561409e-02
4.104765151172407728e-02
4.604867752250895591e-02
8.065020578050086097e-02
9.717415739107390649e-02
1.098427219221326245e-02
9.502979724932164585e-02
7.148211365906551040e-02
8.810707178482984903e-02
1.085824701821280491e-01
7.008621498131156757e-02
8.250785252746314913e-02
8.989930139923646424e-02
7.148888637181127770e-02
1.215926923023762651e-01
9.979005748362182460e-02
1.547777730617466707e-01
1.252745219599122328e-01
1.209301931607368041e-01
1.581317636324302556e-01
9.740469999542460122e-02
1.441618685636079367e-01
1.204318091372174049e-01
2.095668571417334536e-01
1.255648842115627828e-01
1.702458638528567270e-01
1.523462323638297145e-01
2.025576499896933336e-01
1.361985549376635296e-01
1.433441652129550936e-01
2.008568588361485940e-01
1.764547774111879519e-01
1.701387212224884649e-01
1.846095620837917006e-01
2.238913448594163080e-01
2.405488480435290233e-01
1.812909153236648696e-01
2.125241920675735030e-01
1.776363554355553653e-01
1.954337383172607412e-01
1.846610993918015864e-01
1.708530868194981789e-01
1.544349542462881142e-01
1.616375694050493639e-01
1.986095294128469857e-01
1.614376457807992216e-01
1.462401780589686340e-01
1.402663669402581803e-01
1.584063381002667470e-01
1.347584964124782514e-01
1.626337967220041203e-01
1.860394992916574730e-01
2.278106979372737650e-01
2.084781247858340514e-01
2.298439517868234860e-01
3.117111264614857435e-01
3.678062201764469297e-01
4.040547506006531009e-01
5.284163249964225484e-01
4.853132917562152926e-01
5.560054829352286676e-01
5.835352716000039575e-01
6.421094548255866785e-01
7.925871375249934347e-01
8.677482227182579111e-01
9.069803097740668507e-01
9.839500716036706507e-01
1.043761004554695226e+00
1.082679477387707534e+00
1.132020232085449774e+00
1.164269734298645664e+00
1.211634165378617123e+00
1.165413892862123602e+00
1.143958565697636098e+00
1.133995423069025454e+00
1.129677181716756795e+00
9.855534879338954113e-01
9.590514387445649991e-01
9.251030402997975077e-01
8.534605113639567309e-01
8.059591589044811100e-01
7.332768912763859559e-01
6.160848221565643490e-01
5.332218982016833086e-01
4.542649466088495291e-01
4.185295094781203984e-01
3.751619948602561427e-01
2.709542503490228182e-01
3.138619238484692264e-01
2.677004772061165605e-01
2.239787827223000960e-01
2.228865167967764016e-01
2.003138296405524987e-01
2.217836773001470585e-01
1.745292473352630380e-01
1.053723373739234859e-01
2.112387103761620422e-01
1.889838744631434642e-01
1.270673129892096187e-01
1.456511397269501518e-01
1.901908383710289585e-01
2.090425842041249427e-01
1.710263019313341681e-01
1.265626136301781779e-01
1.711284431732519318e-01
2.187702862167996976e-01
2.109390889244042167e-01
1.918371231455269776e-01
1.706523590768015408e-01
1.518550308981778119e-01
2.283209467702062845e-01
2.256930556772774044e-01
2.293018618280282250e-01
2.271383770190580909e-01
1.945939466383562744e-01
2.933935778103225478e-01
2.759650142291277808e-01
2.624286354562674894e-01
2.728852800596491823e-01
2.178070915290790943e-01
2.582065022262207687e-01
3.137089817489346899e-01
2.474759960126370339e-01
2.545037133053484890e-01
2.814342689113987772e-01
2.696455090923767783e-01
2.690724023580958746e-01
2.390968795877341235e-01
3.001758329444886297e-01
3.100049577729946937e-01
2.524217759166253461e-01
3.220085074833298755e-01
2.766365037505187363e-01
3.067560696711280066e-01
3.238471274012251211e-01
3.051069750728027108e-01
3.134630398146315278e-01
2.568977759991230014e-01
3.091213728342411260e-01
2.965104401390337707e-01
3.342367343193830553e-01
2.644786354031090081e-01
3.694514391115352736e-01
2.539707785357104286e-01
2.524743841864566241e-01
2.373519613903835868e-01
3.086225648331762383e-01
3.161556748313794629e-01
3.156244680953871340e-01
2.565782040202722047e-01
3.035836139009696066e-01
2.514104279507207718e-01
2.393112636366611645e-01
2.201737047186883567e-01
2.492330622083909208e-01
2.144054292914416848e-01
2.420974557626306423e-01
2.070773239126979526e-01
1.870213120497760118e-01
1.766951826275715010e-01
1.798539670642466948e-01
2.306656516900599807e-01
1.985726173363215885e-01
2.064548008554162595e-01
2.213495865142399710e-01
1.841033011248437989e-01
1.007598917456467291e-01
1.797834791206429084e-01
1.448089026334986873e-01
1.721210244602761896e-01
1.601658014095959648e-01
1.681841329906344495e-01
1.363827585002714560e-01
1.856340539302971659e-01
1.696201588013581396e-01
1.235559807930554088e-01
9.381755372888686551e-02
1.314096062472384085e-01
1.288044619088128395e-01
6.162906746482349485e-02
7.673951858754451960e-02
9.928021246501314567e-02
8.939192514670349365e-02
9.523646659646789470e-02
1.046519471741984564e-01
8.402053246647556151e-02
6.254707186936428465e-02
1.138209341193053281e-01
1.512820613961676497e-01
6.077019827745318292e-02
5.095346596679561912e-02
5.327213719814036935e-02
2.804560274396340064e-02
6.505409464080572080e-02
-1.539398129151339778e-03
7.482633323933007841e-02
9.476673884133421377e-02
3.496442304745034368e-02
6.865033498072915796e-02
6.153345054291079613e-02
2.340253908915932574e-02
-1.367724535953594722e-03
8.126322736364009758e-02
3.675268754426359863e-02
4.097264096684358203e-02
1.099087539770119276e-01
9.035294104103003265e-02
2.490900925393455326e-02
7.644647308248334050e-02
7.058724131401451773e-02
3.631691831673236615e-02
4.510804122299745533e-02
-2.221662559096872214e-03
3.709673040005529582e-02
6.384150075188857465e-02
7.411650918915774211e-02
-8.538056140482877532e-03
2.077987556291748319e-02
9.136418938947285517e-02
8.561692093611301957e-02
1.058139937748528853e-01
7.022132981787787553e-02
9.750122275679268258e-02
6.076887844267288286e-02
1.441897037750061172e-01
7.859915806624262480e-02
1.086222427733616602e-01
9.196609541446353064e-02
1.008139771798246820e-01
9.521075647829596589e-02
1.342429305183014121e-01
7.726033774186523428e-02
1.263417738371663546e-01
1.353428071830491963e-01
1.090256864962703409e-01
1.180892957104047042e-01
1.918631271492169943e-01
1.870631037677153163e-01
1.664789202701760229e-01
1.383609761694846452e-01
1.916736869686750111e-01
1.775088033804455290e-01
1.372225761525202037e-01
1.956272032320837684e-01
1.860317657902917643e-01
2.245486371896818767e-01
2.019459927390653275e-01
1.823351593155935757e-01
2.063436697802334407e-01
1.777349325903864186e-01
1.548276218732914100e-01
1.838771973325814546e-01
1.739749915187552842e-01
1.880819683792666341e-01
2.084554408907147161e-01
1.884807773420779653e-01
2.071440431569355201e-01
2.130702846680227469e-01
1.706800104670323781e-01
1.780028839427286735e-01
1.442108914848690415e-01
1.709699025540367123e-01
2.413182200634999552e-01
2.211270750358198534e-01
2.396214295549610740e-01
2.249903054236953859e-01
1.546104444659983645e-01
2.280061489917718509e-01
2.300720545851727417e-01
2.380090094582245630e-01
2.280659750343735637e-01
2.863079476599599271e-01
3.162494010085120100e-01
2.963017741747123734e-01
3.235226411071724373e-01
3.450125902302226266e-01
4.034493734507019758e-01
5.169323128266859468e-01
4.935051678959960775e-01
6.631873723903961571e-01
7.487263086975530779e-01
7.145351125203535103e-01
8.397614291744812665e-01
8.948793382030838517e-01
9.788056516016935271e-01
1.004859853178557749e+00
1.032167151492353385e+00
1.110386174262876224e+00
1.185411198904874119e+00
1.121549272761010574e+00
1.192828921314516677e+00
1.133790711997381573e+00
1.178083126188088414e+00
1.163560210198401057e+00
1.047405073138773179e+00
1.023656384316946388e+00
9.696870364136891407e-01
9.362016262222812024e-01
8.178078668439621168e-01
7.668710695265615884e-01
6.587989010802726142e-01
5.274820004282390062e-01
4.846230020315130949e-01
4.996443758733622453e-01
4.167663131355955342e-01
4.101479894475844046e-01
2.689255455056349664e-01
2.928770700977745278e-01
2.390800598947417643e-01
1.451148973804903541e-01
2.596883569442582917e-01
1.702016877399929462e-01
1.213999339689671164e-01
1.604805402089249378e-01
1.642898020060672426e-01
1.503207775711572491e-01
1.905113086808158662e-01
1.312904096849258906e-01
1.600469824741940217e-01
1.055295863958504998e-01
1.641480325579937061e-01
1.418661205652361201e-01
1.330114553043191261e-01
1.582297832992684006e-01
1.337521257777299910e-01
1.463536800173181607e-01
1.335697752821798090e-01
2.002742220829848430e-01
2.274337423441879780e-01
1.931037257260698470e-01
1.338351415945894796e-01
2.408808952547127902e-01
2.849208203711462439e-01
2.500711348139462720e-01
2.069732347412595319e-01
1.981884998255208918e-01
2.515891532369173844e-01
2.238336630827025275e-01
2.625955901415665261e-01
2.414764204737208653e-01
2.298008274300220588e-01
2.592352531903615587e-01
2.330748346864323362e-01
2.895080802111727469e-01
2.941896512040448330e-01
2.742129796997168634e-01
2.668173224804960553e-01
2.859558711194292724e-01
2.533705115863130741e-01
2.379030871164045935e-01
3.508683090172187158e-01
2.680343437391107808e-01
2.752922863675488219e-01
2.661038190111453261e-01
2.680391246088433821e-01
2.597824150682503941e-01
2.970135715140774790e-01
2.581264098216295433e-01
3.073005333839668451e-01
2.854650429286174074e-01
2.442645118094168566e-01
2.505073385707342060e-01
3.083856679274955548e-01
2.708774376447669052e-01
2.692188220054392844e-01
3.197363830404899576e-01
2.384082349323340400e-01
2.722382251296578404e-01
2.402046934644020415e-01
1.753571599561609407e-01
2.225241801652157458e-01
2.223608624951754764e-01
1.994959389713867604e-01
1.431661087505924079e-01
2.224112203970548263e-01
1.752316578409640613e-01
1.617851518028689262e-01
2.535018213031946521e-01
2.062216306345839023e-01
1.791838118780089695e-01
2.275665083805760991e-01
1.638830215937094048e-01
1.960663877928688070e-01
1.902045629509042934e-01
1.222378278888271719e-01
1.347730780059113453e-01
1.332911296751567720e-01
1.567719860554492861e-01
1.519255621428877712e-01
1.169238972636324897e-01
5.907437984656850605e-02
9.896447208770803305e-02
1.055782641208801720e-01
7.705803240196379411e-02
1.065742167524198064e-01
9.778613984661987946e-02
6.949343481126389610e-02
1.003024499373033895e-01
4.407413274705615502e-02
8.099138158328011983e-02
3.604124945100322525e-02
7.364824061067697103e-02
9.241468191559394640e-02
9.562058421341880499e-02
5.677645145744171506e-02
1.172187873143560599e-01
4.838290621186740192e-02
5.225669011868570857e-02
6.443305854232983521e-02
3.022002403490677697e-02
6.877709474089274688e-02
2.983411426678220235e-02
3.267172266412314563e-02
3.516244469737235534e-02
1.576581171222816297e-02
4.571703497393188320e-02
1.712757478684969609e-02
7.677957047436129168e-02
1.533710496912314529e-02
7.121450695882682036e-02
3.190243984013041781e-03
1.331644743437674326e-02
4.930505097872509013e-02
-9.764657484053584913e-03
1.373184569842715412e-02
8.192685522316589530e-02
-7.465748299006286226e-03
1.985851870993845733e-02
-2.103346617328888044e-02
5.829957285316900162e-02
4.275908006423834173e-02
-1.827135764179722843e-02
2.894612204648773501e-02
2.141233620712422112e-02
-2.372452025498171524e-02
3.277564762162997469e-02
1.664086141427488508e-02
6.241189954001428314e-02
6.466582666826876935e-02
8.929265380241040509e-03
5.236333541109763901e-02
7.426577632619606184e-02
6.328912412361507867e-02
7.033326523214833426e-02
6.096018293711207708e-02
5.988574272510751445e-02
5.060658663583438716e-02
5.895231060129253048e-02
6.226772652484395543e-02
1.231801979112610579e-01
9.994224462500717054e-02
6.307378558621062892e-02
1.445123193924420513e-01
9.428072398836395696e-02
1.470405946113079176e-01
9.570267270598270537e-02
8.978399992773038185e-02
1.294199868521190011e-01
1.217268937969441661e-01
1.051462866630368392e-01
1.060963117220408286e-01
1.861175682633640083e-01
1.433163457350727921e-01
9.370866412113787458e-02
1.451926779776489262e-01
1.437314638577313619e-01
1.807725505403975363e-01
2.022284068118821165e-01
2.412636503473298555e-01
1.360574023935413601e-01
1.235976217565327995e-01
1.905282126077833538e-01
1.950882899015520255e-01
7.768576965441796600e-02
9.467996187427864252e-02
1.460932120299521797e-01
1.737419842448975071e-01
2.072073367360629387e-02
1.474884967347682985e-01
1.421617511986061622e-01
1.332867060523275637e-01
1.606873894511714196e-01
1.974026392357294823e-01
1.038391649060119715e-01
1.497620010936416834e-01
1.150711370146741686e-01
1.299201350643631181e-01
7.546086346562168312e-02
1.418719338460267543e-01
1.476899264505303067e-01
2.197386800686856878e-01
1.914787300683729321e-01
2.964973419878697558e-01
3.101446676769811228e-01
3.171958388877220703e-01
3.874316627996752804e-01
4.190423044138963937e-01
4.716011487140064906e-01
6.233956481464177912e-01
6.276901696256759200e-01
7.533577669671219779e-01
7.187540132837353379e-01
8.125650690157510958e-01
9.622826005996326648e-01
9.556321363780805322e-01
1.082441551671361468e+00
1.166033313246166436e+00
1.131204434003472370e+00
1.123976968941799770e+00
1.075042156006512650e+00
1.113486333355522273e+00
1.110418457450914165e+00
1.045266105252123712e+00
1.067958169081512754e+00
9.680439755780601008e-01
8.398501345124835815e-01
7.995851287640111105e-01
7.366756629875322870e-01
6.487299872242997534e-01
6.027939756815537953e-01
5.544953983523076557e-01
4.164164627387683670e-01
4.044084575734692155e-01
2.811034432679024864e-01
2.596637345716812928e-01
2.901817575979349084e-01
2.003826132227040646e-01
1.847730735085885700e-01
1.287301574708258622e-01
1.969063669938274641e-01
1.194745981051988371e-01
1.318469437537138078e-01
1.203093968596491981e-01
1.430710988585329468e-01
1.240965259426659584e-01
6.938114591083334448e-02
6.198116090194917549e-02
1.211315499610311208e-01
1.079424821086552716e-01
1.120648923346542203e-01
1.096087955222222049e-01
1.267281187734979608e-01
1.177221446873231991e-01
9.408697696611881267e-02
1.170825820890349644e-01
1.320496696506651690e-01
1.294864909320952440e-01
1.188787339129778464e-01
2.011144306023063821e-01
1.716327506671055381e-01
1.567899000797355058e-01
1.974304921428944593e-01
1.704973418243584116e-01
1.489288545799117014e-01
2.681482696798537790e-01
1.700114171190155732e-01
2.295837086740576405e-01
1.795016665773981335e-01
2.004063668060881986e-01
1.978045189756285627e-01
2.253571430677175913e-01
2.360873568396621713e-01
2.587994284586196958e-01
2.376994624739515727e-01
2.578316120235820685e-01
2.268397047908836672e-01
1.987774953795898303e-01
2.103991981825140412e-01
2.100015355272362438e-01
2.681186053815018400e-01
2.173978288873509301e-01
2.638415651847982879e-01
2.466103779556167164e-01
2.389345918184649642e-01
2.501878648430739815e-01
1.750973277916022530e-01
2.812313805367886443e-01
1.980236702085430012e-01
2.432817276465575884e-01
2.511607181765126429e-01
1.923681181215243507e-01
2.066425100767301792e-01
2.169386411659419700e-01
2.082349569861306204e-01
2.341322772090108639e-01
1.953150772196972917e-01
2.106048135660699150e-01
2.231128799718004319e-01
1.661189158649976072e-01
1.482110687869229726e-01
2.242107218823600201e-01
9.667587317429704452e-02
1.253723681683822644e-01
1.440214898823525269e-01
1.777810859817512135e-01
1.404044597447950959e-01
1.577844301382176906e-01
1.691406677099671629e-01
1.586090032157931873e-01
1.178064479016366906e-01
1.235413908757302393e-01
1.264014919059396891e-01
7.935013058877535275e-02
9.110353072460823654e-02
9.107318290005973760e-02
6.759113132269041480e-02
9.492840300132798781e-02
8.854498907820458620e-02
6.182852583122815798e-02
9.510860117722928775e-02
4.321675617347660314e-02
5.784582190090879067e-02
4.937516091545392227e-02
6.361842077106893978e-02
-2.840607655238244073e-03
5.786984381773749991e-02
3.216951359844213987e-02
5.145219655430052774e-02
-1.575802481009771702e-02
3.384950956799244459e-02
2.096438833123655254e-02
1.153891364481752710e-02
3.047640334903311057e-02
5.691436182853924081e-03
3.374640894669748981e-02
-4.449785298646105614e-02
-2.869848287021012356e-02
-1.156428277091330406e-02
4.548829287997348259e-02
-8.195166448159766498e-03
-4.294284721322079446e-02
6.244670419825258667e-03
-3.768776374043208283e-02
-2.130989175106491607e-02
3.092718074212957857e-02
-4.885754102293895368e-02
-3.318222587062030771e-02
1.245187029780037147e-02
-1.814743965748574772e-02
3.841754072047987717e-02
-3.986760591485970229e-02
2.732251352889826512e-03
-5.676031746348002283e-03
2.407659237222900539e-04
-5.975615891656248929e-02
-6.771645618539048894e-02
-3.114725237962939416e-02
-3.449668031620746478e-02
-8.774011472955686730e-03
-7.368114287318072719e-02
-9.405664372421074226e-03
-3.717986853976690959e-02
-5.652517165207521233e-02
2.027539986243069581e-02
-5.300351418103118467e-02
-2.928777330419227165e-02
3.659445951492139998e-02
9.873700858387270130e-03
-2.305482302862126021e-02
-2.556164347356716660e-02
-4.453782177220433347e-02
4.665764672280384856e-02
1.731091272586156998e-02
3.776100047679466915e-02
-1.954711329379468093e-02
5.074863267314618648e-02
-1.512858543465927380e-02
3.848960944665374972e-02
4.965193133766254707e-03
8.752072677574379567e-02
1.133479435044918437e-01
3.673196443580657028e-02
7.468496143513958518e-02
4.303128656117425482e-02
1.023455799106706143e-01
6.742167730214962407e-02
8.568134258101695044e-02
8.429775013675711026e-02
9.101748371730947196e-02
1.194817432996483769e-01
8.227146922821865216e-02
9.668847285419873705e-02
9.960101197774060000e-02
7.009640384467347163e-02
1.459061913225571661e-01
9.464866672035462947e-02
1.366069006894402027e-01
1.042629695399743123e-01
7.708810511342302496e-02
1.579441164543488874e-01
1.168221577172537939e-01
1.006231117195030417e-01
9.139224385659211469e-02
1.068439106384584947e-01
1.239201532366626113e-01
1.208656593009642677e-01
9.449365080014041074e-02
3.431126721298779353e-02
6.222220462862469714e-02
1.125948451043462389e-01
9.634232848339295552e-02
9.653980385446739310e-02
9.156891318081537834e-02
6.337705897783793563e-02
3.133673015474778417e-02
8.661287869389489025e-02
9.297922535266134325e-02
1.715103398603036733e-01
1.730434515708572651e-01
1.662434979578880090e-01
2.482302212656545826e-01
2.276379139492697434e-01
2.739108128564626821e-01
3.359942472464063634e-01
3.486048233310748978e-01
4.708012424875222535e-01
4.732176003454125479e-01
5.764024117264853198e-01
6.303038208050711910e-01
6.871259282780018962e-01
7.587519372221971370e-01
8.402759580779137760e-01
9.360718699607593063e-01
1.003137779879373692e+00
1.039333171607349060e+00
1.065619820473837631e+00
1.080694429516756649e+00
1.062141905041487311e+00
1.101396262328578901e+00
1.073858665470300622e+00
1.063712669172739433e+00
1.007300935313162116e+00
9.141256663403831695e-01
8.844330195573149034e-01
8.224814062524569147e-01
7.405602783574398718e-01
6.269259934231009579e-01
5.578674309057674030e-01
4.868139649210436737e-01
3.904330513053270724e-01
3.991864206841249652e-01
2.940480681641692851e-01
3.071797938542288886e-01
2.553233568263810760e-01
1.994843585518910611e-01
1.774162700427016626e-01
9.560058515915523247e-02
9.074137372999399598e-02
6.404355248855023164e-02
5.221202553526786694e-02
6.891437522749477296e-02
1.017302855800229083e-02
2.970544900175856734e-02
4.775447644606403697e-02
7.724759113223049478e-02
1.430521121901501824e-01
2.202510302835941625e-02
7.013359874698173180e-02
1.133585493752650719e-01
3.269046546935649306e-02
1.011694952574318102e-01
1.320710731668720550e-01
1.229876975157846164e-01
8.860291183573903995e-02
1.054559083505129669e-01
9.499501215091488149e-02
1.398034274368016860e-01
1.591042457600700955e-01
1.390200815812482338e-01
1.613227755440413413e-01
1.273439807722399897e-01
9.627435591137492588e-02
1.614936732647175022e-01
1.219403259064791578e-01
1.407584412373790173e-01
1.938329828463712656e-01
1.528049521063694627e-01
2.223719113966900751e-01
1.924424177092373123e-01
1.636032188052800596e-01
1.751334562031849340e-01
1.912519446791945410e-01
2.470458251726094234e-01
1.790587092716673379e-01
2.219535034261166662e-01
1.453437120613610689e-01
1.449642442892702943e-01
2.194223507914946636e-01
2.079225208768595845e-01
2.083726802782539522e-01
1.541365225385771254e-01
2.435895394596382935e-01
2.368204769626535144e-01
2.215096726572913788e-01
2.140510847983460307e-01
1.837611869115080010e-01
1.508268707656340302e-01
1.690788864051842311e-01
1.451659375729063284e-01
1.761154511030936509e-01
1.817810551740492164e-01
1.703641393125581716e-01
2.146790496472785192e-01
2.024553076854982703e-01
1.621785170124423470e-01
1.874153461696418110e-01
1.261058078872137611e-01
1.763166768956096753e-01
9.850789968875398039e-02
1.826388983277508760e-01
1.376703382424456501e-01
1.435751873199143103e-01
1.352923425932496815e-01
1.270835858472172397e-01
1.293759237665250417e-01
8.155102506234102044e-02
6.092506330377572832e-02
1.299333965631740140e-01
8.556490932719532094e-02
1.024504660977508808e-01
5.623071074796774649e-02
7.058979043843420509e-02
3.827879066654255036e-02
1.070556837937983730e-01
3.243217809418619951e-02
5.248870085946218123e-02
2.470822046702622621e-02
5.146902436722149837e-02
6.124100413135582371e-02
3.050404124060200617e-02
4.180441592566475073e-02
4.926579301592297344e-02
1.750071513197828249e-02
-1.998328039604591738e-02
-2.074108611175883715e-02
-7.917259013706316739e-03
-2.502675754542840747e-03
-3.231743860184278089e-02
-2.225294338142366768e-02
2.533698035325698816e-02
2.905790878894405627e-02
-7.248691422503318604e-03
1.948643189365472511e-02
4.422195502753396151e-02
2.450986872253611837e-03
-2.099225553231789942e-02
-3.755322744596854140e-02
4.030092427820999856e-02
-1.684562819417441404e-02
5.564939342372933473e-03
-7.717961288837429934e-02
-1.911800063072344874e-02
-1.726545681091786605e-02
2.411767454934958532e-02
-8.891087313891203603e-03
-2.823610398812661376e-02
-6.612825693579935105e-02
-5.405331599471172033e-02
-2.347169716613198634e-02
2.023860939145340210e-03
-1.143332844794009429e-03
-7.521311462485888444e-02
-3.571178670595148708e-02
3.614419849110178662e-03
-4.842604670530387123e-02
-8.630494395659576989e-03
4.084618893128633826e-02
-5.200780128585980738e-02
-3.073921373352339267e-02
-5.881103440481157130e-02
-4.312276529888223880e-02
2.890749950233746646e-02
-5.264996449872091921e-02
-2.242858479820925705e-02
1.504091308045254344e-02
-4.065200954821446278e-02
-2.758886346647341364e-02
-9.878227301704740893e-03
-4.600653194977399885e-02
2.778296472655292920e-02
-1.047398906717122991e-03
-2.632741411366527548e-02
1.196665882776139916e-02
5.840007163615243413e-02
1.714189008599056874e-02
5.184640769403995458e-02
3.650116049984770267e-02
1.790850392621075315e-02
1.498651269520490104e-02
4.758711091364137974e-02
4.668286727556279075e-02
5.941256209667371280e-02
2.781742347897504797e-02
4.892963220381481987e-02
4.650322509940692239e-02
7.974793827501458487e-02
1.069023507631137460e-01
8.114646154657839672e-02
1.034638316193269847e-01
1.325551437787082787e-01
9.521267144638358160e-02
6.042452193139675326e-02
8.784460883388826857e-02
1.165778836223574366e-01
7.727886492272952046e-02
1.198424824984175574e-01
5.813571541308474450e-02
1.084664593826980550e-01
1.489652506959567024e-01
9.214269816434364491e-02
9.600452058811556610e-02
1.044627061056441347e-01
8.601861053451809180e-02
1.456339308283767231e-01
1.285635401255134647e-01
1.505118992371304310e-01
9.482083191375169362e-02
1.036826315341441013e-01
7.768491683549907934e-02
4.215961877284189058e-02
7.022931345118982316e-02
8.364191896908559909e-02
1.030036172260469785e-01
1.134604960864858125e-01
7.158187862494944098e-02
1.073018004706471906e-01
1.399738213127654229e-01
1.298249930663280538e-01
1.850160456271720821e-01
2.074023522201743908e-01
2.297176415218735168e-01
3.195186888131741898e-01
3.435577360104545841e-01
3.860413384063708375e-01
4.417359221562259242e-01
5.129354163773270914e-01
5.627976276031064762e-01
6.757976855205232170e-01
7.515085593167827316e-01
8.732781150865135400e-01
8.829138385624789587e-01
9.331938718202030802e-01
9.900948190105364199e-01
1.016394045542486912e+00
1.102383770698874166e+00
1.096875713054746404e+00
1.041192779138213620e+00
1.112936847925654948e+00
9.792613634832511016e-01
1.042140320747018123e+00
9.415572809941549215e-01
8.650169049915061859e-01
8.829456773269317438e-01
7.440088736686256699e-01
7.450754214837453926e-01
6.536507781437694842e-01
5.597040131135699870e-01
4.753000368898754324e-01
4.460391283659757566e-01
3.822117770829070449e-01
2.856900978853485484e-01
2.522127438324893167e-01
2.410253152709472824e-01
2.278710281163459639e-01
1.505403955395622217e-01
1.102258969477785677e-01
1.012966998454071510e-01
7.557174157509263801e-02
1.141556027968881060e-01
9.762420204141097901e-02
6.930328531353724397e-02
1.040328896249629320e-01
1.206075296619544546e-01
8.789476158105581638e-02
3.622236881984107482e-02
1.265155400175057288e-01
4.311683430891744689e-02
1.031634624979199805e-01
7.976866675353647129e-02
8.446483164126374066e-02
9.014158180482956251e-02
9.541028992279620979e-02
1.165386180670373584e-01
1.483566119893101887e-01
1.566319800449015032e-01
1.047171299896280938e-01
1.463245077241949743e-01
1.052192811971806308e-01
1.359944494352755828e-01
9.178902981320045951e-02
1.890895724225041818e-01
2.181813028115851538e-01
1.590849795575057790e-01
1.941698727829405113e-01
1.626774867230091071e-01
1.780289676883224925e-01
1.628072477626348324e-01
2.094446037296530949e-01
2.059107537459665405e-01
2.201030386027856556e-01
2.178364688555796125e-01
2.132010955542206210e-01
1.937763781197033297e-01
2.167167142993726703e-01
2.133487734626267618e-01
2.508128960031242305e-01
2.408616459167664814e-01
1.744022345447109323e-01
2.531657137668377189e-01
1.784879242012305245e-01
1.707457126064517439e-01
2.170450170303812598e-01
2.201135297198724972e-01
1.879577502349963347e-01
2.605014117245665894e-01
1.751386644671399928e-01
2.065769102000861723e-01
2.319597324492169155e-01
2.000080530713006510e-01
2.559399745163398188e-01
1.705295253016687052e-01
1.871167327387054102e-01
2.184250163180906923e-01
2.162045336420894137e-01
2.130755066744951798e-01
1.893507762714104481e-01
1.678497118503168017e-01
1.428929807906340610e-01
2.060302740314556569e-01
1.523371576795569393e-01
1.562093695213488953e-01
1.779765360990202550e-01
1.645410812214619378e-01
1.016624231707597276e-01
1.310439146549811640e-01
6.714919347580608489e-02
5.036867221761504726e-02
1.253222453445182183e-01
1.149821646944961945e-01
1.454335351518678543e-01
1.373223884196383970e-01
8.703350901659946681e-02
5.426018813276659025e-02
5.956301591559731712e-02
4.962817113757297949e-02
1.278982862554187139e-01
2.979697342774589516e-02
1.016897229148600312e-01
3.663282981170058739e-02
2.642052800380385869e-02
3.596199345963704830e-02
2.914033023026482358e-02
1.752008332649486119e-02
5.937100477732808884e-02
9.432768279800128608e-03
2.716027339973915017e-02
3.234256267860372014e-02
3.856004340979685835e-02
3.419005588926152250e-02
1.227254663207864860e-02
-6.265434413467191321e-03
4.697269409341763707e-02
-2.273903627703583244e-02
2.015706279296564096e-02
3.938327445059037341e-02
1.507024729749742442e-03
-1.733243381669167735e-02
2.334836982943007400e-02
1.121872070551711321e-02
-1.047268941837696359e-02
-1.157908250547253805e-02
-1.981003639947966771e-02
-2.677608077508428913e-02
2.126367394881774689e-02
-2.036788431396894389e-02
5.824857089559937889e-02
8.932182727864623056e-03
1.189097532649700979e-02
9.625842491788078048e-03
-6.358985202029900780e-03
8.236996894250950968e-03
-2.679982237404013659e-02
1.002996893841561453e-02
-1.612901923594614942e-02
-1.488205129228957480e-02
3.492576025970611786e-02
4.663387151385577079e-02
3.925372213403049981e-02
5.792416903111646809e-02
2.898244783975283123e-02
-1.290051768313843147e-02
1.898158118625205282e-02
-1.846429395107196045e-02
3.791588736743143478e-02
1.434464003922976752e-02
-1.631154771395146655e-03
-7.648926824861540519e-02
7.585398234232232362e-02
1.888434930747824939e-02
6.911457074053782568e-02
8.141021434830203463e-02
5.299718828299411488e-02
2.738292111945063098e-02
5.114838560706219672e-02
4.327324306348729471e-02
7.605008396049831032e-02
1.055575066246230292e-01
1.008798639788612561e-01
5.746648253418708274e-02
9.599629358808139945e-02
8.870292721329159358e-02
1.094440077822537716e-01
1.062183046824038274e-01
9.243001288337891752e-02
1.100303104505891832e-01
1.130919269840697100e-01
8.912498543232473536e-02
1.026425753202456354e-01
1.392848622511355661e-01
1.357085889167168047e-01
1.204125026655940289e-01
1.668669687622765241e-01
1.517427341836163623e-01
2.395387368212028301e-01
1.208643413644203968e-01
1.859167341575210519e-01
1.903579263409334588e-01
1.519138055106960816e-01
1.421555261958802607e-01
2.052342192286202016e-01
1.355688131435369148e-01
1.512014666764590898e-01
1.039530079150300657e-01
1.021576228222815658e-01
1.159770883736117725e-01
9.741449958913593610e-02
1.916199007436802382e-01
2.136541884605025199e-01
1.597307565747181357e-01
9.917993239014356865e-02
1.660253350075639456e-01
1.556491331976350700e-01
1.455112477564941831e-01
1.586117836661216363e-01
1.771530134653370447e-01
1.985230911006306831e-01
2.358336096456920272e-01
1.995818112632465058e-01
2.561215177504438389e-01
2.855941291522563485e-01
3.567976988924415616e-01
3.990383301381771886e-01
4.174498379010041504e-01
5.131158580766368438e-01
5.999490353097745032e-01
6.860820703781482788e-01
7.277037483800716799e-01
8.366541653634231857e-01
8.434227230208991566e-01
9.348263489215422606e-01
1.018500104138509998e+00
1.102895851335989219e+00
1.122350362659297218e+00
1.160275895197985907e+00
1.144088623098229673e+00
1.107215323852491773e+00
1.088576445817977190e+00
1.128076983812654754e+00
1.059285234173698464e+00
9.998648353932838573e-01
9.285477214774044974e-01
8.982792432429936857e-01
8.513879905196425346e-01
7.419789936070235736e-01
6.746832325610129244e-01
6.589780615266964681e-01
5.183303357497801578e-01
4.161726885875521309e-01
4.154581433086655951e-01
2.779295386914764077e-01
2.052489104437375533e-01
2.655961566834048604e-01
2.014869217235012722e-01
2.572050184507462811e-01
1.658379011189496377e-01
2.248417973306575668e-01
1.357792220281392737e-01
1.363702689161315207e-01
1.159046434848133161e-01
1.662809555519016991e-01
1.229955408279012341e-01
1.407903520274017273e-01
1.389311427040593738e-01
9.406147430715366964e-02
1.225553915826467083e-01
1.250237524318655313e-01
1.375164384928644068e-01
1.299867983316355113e-01
1.510902954604725068e-01
1.499943845102250373e-01
1.543999731259363684e-01
1.733970039997689283e-01
1.962341154770290141e-01
1.547283248025332347e-01
2.474926881839548121e-01
1.985058362240992857e-01
1.764999684707018179e-01
1.857409908359751727e-01
2.176136430267570920e-01
1.950895919539481216e-01
2.130515429063634669e-01
2.368557189470774649e-01
2.757461245450995579e-01
2.090267450440501384e-01
1.632393879440985351e-01
2.565481697595893285e-01
2.299284565619641174e-01
2.830021464937454989e-01
2.571384952257864120e-01
3.067404056053009143e-01
3.384101686347361082e-01
2.066427977222806689e-01
2.555700945490940734e-01
2.664483735931005293e-01
2.767166463154269729e-01
3.287535192859222799e-01
3.096083508940790652e-01
2.648211984634516458e-01
2.953609781628204201e-01
2.811229378896807907e-01
2.373683265383644825e-01
2.866390119733193131e-01
2.702656402261969792e-01
2.206255535856305183e-01
2.193489771546628664e-01
2.209593103400149527e-01
2.832136562593813855e-01
2.042161488961801996e-01
2.164965780636521619e-01
2.739832647659452558e-01
2.704499600454252084e-01
2.616437897920403377e-01
2.462848909020690646e-01
2.307152089716682786e-01
2.348931882150943062e-01
2.330069954862226955e-01
2.064588468740290728e-01
2.219549622804513345e-01
2.423911564036643485e-01
2.207408604443358013e-01
2.299249836158658022e-01
1.667342512971275170e-01
2.071347235502164208e-01
2.195262066238296561e-01
1.977824379116414899e-01
1.534479533582813748e-01
1.728485698706613283e-01
1.707301888649226385e-01
1.542881687547010827e-01
1.609533512564256252e-01
