1.167583316366098689e+00
1.194358916176301078e+00
1.185171437622424717e+00
1.155105213252030971e+00
1.123472489653443374e+00
1.112214068252024957e+00
9.765802490446411355e-01
9.357742798808276197e-01
8.178456373641856958e-01
7.564471017136683573e-01
6.925457087761631714e-01
6.363966950877010254e-01
4.783683484768233574e-01
4.536284463876874007e-01
4.460360223007450720e-01
3.460229398417712932e-01
3.116678479159469273e-01
2.869587124347833251e-01
3.161936469848144471e-01
2.223861163518167650e-01
2.059448832112086847e-01
1.375240944961988176e-01
1.405357138591572796e-01
1.841117005382246208e-01
1.691400005195744793e-01
1.465660440541145526e-01
1.137639251949317948e-01
1.757707232901734862e-01
1.112523816649365060e-01
1.750496325188479196e-01
1.491182838766173246e-01
1.443040261108823885e-01
1.673397493069442299e-01
2.041404100728672066e-01
2.345595907525465373e-01
1.657941620362307356e-01
1.747684476818368027e-01
2.016861233333067938e-01
1.535296419491875008e-01
1.835467266574906386e-01
2.137242752448977323e-01
2.110151387147039537e-01
1.710206152523104650e-01
2.339119918235240125e-01
2.619770790621123169e-01
2.193580557555054600e-01
3.467709964046787330e-01
2.522702291911168015e-01
2.843445329877690719e-01
2.966069755300065336e-01
2.625794818931811436e-01
2.537533575724715273e-01
3.234161676719581879e-01
3.099195432268999628e-01
3.007789133875661824e-01
2.629512210239154379e-01
2.379152698010772171e-01
3.173134422916394914e-01
2.380495024333760812e-01
2.993980762158282571e-01
2.764114269042506344e-01
3.652864999100425836e-01
3.129095375716808292e-01
3.083195551703103998e-01
3.033071429159097110e-01
2.660212834335025645e-01
2.869561241147540187e-01
3.068798499995124551e-01
2.695042548456325626e-01
2.869781697599374515e-01
2.868550232865480498e-01
3.155458772683076285e-01
2.497066335195489706e-01
3.709416895546445714e-01
2.732125386090285546e-01
3.043248870782017668e-01
2.525672634596449750e-01
2.191701924380384525e-01
2.202052094263399207e-01
2.377934157272266757e-01
2.592721825435565508e-01
2.674958448872126748e-01
2.324926056167922750e-01
1.780814306464929830e-01
2.252649449566113682e-01
2.702979241673857946e-01
2.031466312381097761e-01
2.371568380855673674e-01
2.075938546747662650e-01
2.347977883508945707e-01
1.440424506517083425e-01
1.888798719220829703e-01
1.601762735282869499e-01
1.991199688729289596e-01
1.510011003506862848e-01
1.760816129207534164e-01
2.203768271072572837e-01
1.322471742566941333e-01
9.485527719680314496e-02
1.750116577204944845e-01
1.427257277983621786e-01
1.223790048780820650e-01
9.872877281841427322e-02
3.742771613991542623e-02
1.143885778004412046e-01
1.771674821218582607e-01
1.041562764239709060e-01
1.121490151103409494e-01
7.360070792035759701e-02
1.707878798956157240e-01
7.120324739975039674e-02
1.018777513617822317e-01
8.511182851484652701e-02
8.965878468556529035e-02
6.286719179108685163e-02
9.766877782350956438e-02
4.827518728446120871e-02
7.595475482933054800e-02
4.841372134154683926e-02
8.447349587217359290e-02
9.961627756979023196e-02
7.272148160879506051e-02
5.113239009522364126e-02
4.914770058452412604e-02
1.022316966993917775e-03
3.297417775287571351e-02
7.566740536470498157e-02
8.082471567262100587e-02
1.001927357959517262e-01
9.817322687120831615e-02
5.564359913570506716e-02
4.206057229194549996e-02
5.159239469357190799e-02
7.667468383603209814e-02
6.333507512432935693e-02
1.460380138695056146e-02
4.313590213282966074e-02
5.214538320618961054e-02
6.915184435501661731e-02
5.145236021704251150e-02
8.373363672849874761e-02
6.591460906319712709e-02
5.035799314148823452e-02
6.119578758200374530e-02
1.038899690858962749e-01
7.488070308373340200e-02
6.951996924531092525e-02
6.979928148224691375e-02
7.804354975282176698e-02
4.734818064321756614e-02
1.290369240432897024e-01
1.151522484710636313e-01
1.300893642679977757e-01
9.571197217598724494e-02
6.372320003988797554e-02
6.759625515404181495e-02
1.183803578988665978e-01
7.834453330825860706e-02
1.327273851012446271e-01
1.058582437569883239e-01
1.423546431324701489e-01
7.122283520689437486e-02
1.774785609316855695e-01
1.545008697880841109e-01
1.636439101204387736e-01
1.690854859038076197e-01
1.507754910918631674e-01
1.726669058668842682e-01
2.215270502072927694e-01
1.527327712181983932e-01
1.799462857402626403e-01
1.768915484465088950e-01
1.583476367977317556e-01
2.132215417657129242e-01
1.319610581114640246e-01
1.990259764854072910e-01
2.188674070923280479e-01
2.058970751827864654e-01
2.211848463038098289e-01
1.913107168254320478e-01
1.089004268692569943e-01
2.211913654033951515e-01
2.025172896519369659e-01
1.789868530375171018e-01
2.620663395653113903e-01
1.628263219997335698e-01
1.667535719589395560e-01
1.999299261604166877e-01
1.931867750215887081e-01
1.969817111773811136e-01
2.189328438855189518e-01
2.244347862624852807e-01
2.445629403620978304e-01
1.712480944317769094e-01
2.249523123425767046e-01
1.546589258641702935e-01
1.574804925723381488e-01
2.610268358209570927e-01
2.606461370066439631e-01
2.381950318168885028e-01
3.217805337227778173e-01
2.963068386743573090e-01
3.443157095764671216e-01
4.325625949687458838e-01
4.987844360359717233e-01
5.083277570627091624e-01
5.690889840930986043e-01
6.613116389933496597e-01
7.257771575147032861e-01
8.370205314339678182e-01
8.849763770962815190e-01
9.697566066810608953e-01
1.014178073807294300e+00
1.082094049136444580e+00
1.217437816873675027e+00
1.205930368989137191e+00
1.151507708421319220e+00
1.253099340210907409e+00
1.202865841642949185e+00
1.251359339501075807e+00
1.185959429477671856e+00
1.166704065528495926e+00
1.125414359728662328e+00
1.038570920477801085e+00
9.674037538127473468e-01
9.370085048157024143e-01
8.061957364869233311e-01
8.027906792736184682e-01
6.939250659168103574e-01
5.882657984250649896e-01
5.085129430552685070e-01
4.576071368534528339e-01
3.915841362288513539e-01
3.524286284794838076e-01
3.440880237927931296e-01
3.277652787896180309e-01
2.585778315933054405e-01
2.007342058246202043e-01
1.485265488376862342e-01
2.352825225459460601e-01
1.058772499837943859e-01
7.810361550185604407e-02
1.647772816059673850e-01
1.172090188346405215e-01
1.469421659346988318e-01
1.376036561842365891e-01
1.768299209654434767e-01
1.287805337622233703e-01
1.917645479953863918e-01
1.768006842477424789e-01
2.460400508407457609e-01
2.188753560962427569e-01
1.561722621973126168e-01
1.670830168243383762e-01
1.818318402239991194e-01
2.418285329249053872e-01
1.870525628263641771e-01
2.620602087432674643e-01
2.228187580009846902e-01
2.435583613838930017e-01
2.414509885338749773e-01
1.998860924082209167e-01
2.186291856999575123e-01
2.659360608330402220e-01
2.427993667758607255e-01
2.790765443444565008e-01
2.258172880319448406e-01
2.572653704431360211e-01
2.510291354096398919e-01
2.641511610058398518e-01
2.352937718131313249e-01
3.213709022107502644e-01
3.008442402394819193e-01
3.197598468613477296e-01
2.932556790830617155e-01
2.786490800232975240e-01
2.601021946310571598e-01
2.774776223000433029e-01
2.990561082407061089e-01
2.646313002216525434e-01
3.191657784415543597e-01
3.145975247102985595e-01
2.760973958625488889e-01
3.136977806455742424e-01
2.338607584763612302e-01
2.964096923416704721e-01
3.326537032340156075e-01
2.770549802191719091e-01
2.932186714683548412e-01
2.486446076259956339e-01
2.363153624567609634e-01
2.764102597271976824e-01
3.287091666631297149e-01
2.660476938842794015e-01
2.571498056976767588e-01
2.189028556076140219e-01
2.073223485497956153e-01
2.597321506339392849e-01
2.537845289023109574e-01
2.289887519343737909e-01
2.578344387723053854e-01
1.880310181140361636e-01
1.999177005529850781e-01
1.706380887205698749e-01
1.727093652169833515e-01
1.316924408767628230e-01
2.077681719987218290e-01
2.474117178698954644e-01
2.269765779584207721e-01
1.467276903451403547e-01
2.114137673326278721e-01
1.769805870622024324e-01
2.330840732110415203e-01
1.402297609894581354e-01
1.354241515196973611e-01
1.469589071186863938e-01
1.725705331690480515e-01
1.671278607211438005e-01
1.588825613217599853e-01
1.459571671916135571e-01
1.036583113779491749e-01
9.691995000409715788e-02
1.074719035271402279e-01
1.112130845293936576e-01
9.686095599179553317e-02
1.287367113635818489e-02
8.375408810808915305e-02
6.235152686432403335e-02
1.604767293554670848e-01
9.862468736733787100e-02
1.176634471785104330e-01
1.053550212228818450e-01
6.992554590526423031e-02
8.099661011317429993e-02
7.327749397460027458e-02
-1.527221729308130688e-02
9.261593680085049296e-03
8.107838406660594632e-02
1.699630858977613929e-02
3.277583360284939268e-02
7.153056174024149949e-02
4.057495988832011263e-02
-1.728318376545641410e-02
5.978016801015247073e-02
7.055058923075982480e-02
7.242201117588609183e-02
2.239985593211595016e-02
-8.741321475870339475e-03
8.618303169221683269e-02
6.301984153808631861e-02
7.136486579809314668e-02
5.013143967583973820e-02
1.325087046555461223e-01
-5.190749851791496422e-03
6.407938840382701451e-02
8.304883391986817021e-02
7.153621275323344963e-02
8.120900227445052022e-02
7.259409928184849814e-02
8.438143821474020090e-02
4.946130325954878337e-02
8.057009238248463712e-02
3.105373175112280393e-02
8.822924401042317455e-02
8.312791715373310519e-02
2.534421225296465754e-02
4.684883617097702901e-02
1.048547089554339729e-01
8.541562523810096452e-02
6.196619506382219228e-02
9.326195935411156490e-02
1.149968648411927030e-01
8.904413215075565602e-02
1.025321237434817512e-01
8.317681140754545899e-02
6.675565924741393153e-02
1.314697881311876482e-01
1.203372046493689784e-01
8.440505642944047537e-02
5.597067332177373816e-02
1.350492073988381336e-01
7.958996394662512519e-02
1.578357456151204263e-01
1.820557032405678566e-01
1.316458596898668343e-01
1.607003267576655459e-01
1.344514819544321560e-01
1.296766752791628230e-01
1.344610875750317236e-01
1.641208657925234404e-01
1.763419065118111695e-01
1.458363345835821945e-01
1.248758481957515099e-01
2.695636383775574796e-01
1.882052484348457622e-01
1.930960655786056468e-01
1.071848013261172405e-01
1.756163919238704629e-01
1.348771531408128888e-01
1.608309084958692570e-01
1.576548305881054213e-01
1.773016281566000274e-01
1.675270390190144454e-01
1.628578540214475900e-01
1.749869384873485034e-01
1.523874588339663438e-01
1.384498165701744943e-01
1.629617386008481161e-01
1.222511158880353332e-01
1.746517077400595030e-01
8.849928254680114459e-02
2.035306851807998918e-01
1.385775060153429383e-01
1.955961558904329156e-01
1.934886160648770781e-01
1.893457615763186608e-01
1.842335694036677796e-01
1.959403557276154506e-01
2.676340717588082119e-01
3.206771898557105316e-01
3.691237850655529340e-01
3.850320439450857779e-01
4.312232189708173902e-01
4.689415785695125183e-01
5.174732290931699508e-01
6.455991192578245386e-01
6.680363316990555189e-01
7.559858108321223513e-01
8.838752359112579393e-01
9.614786638560957055e-01
1.007219200598620912e+00
1.023652389793985762e+00
1.083763653256374804e+00
1.213412221499726940e+00
1.191172952580802802e+00
1.193299001576488161e+00
1.220051668263913314e+00
1.248002462491086373e+00
1.125324224179073518e+00
1.082146436197448214e+00
1.056207858529831789e+00
1.015592083216700470e+00
8.915430016413600223e-01
8.426552311494467373e-01
7.730124012731882654e-01
6.812763178955009158e-01
6.144816789827861614e-01
5.629581347949592640e-01
4.363660686604792227e-01
4.464014111548004760e-01
3.456141233710134930e-01
3.474392017473104111e-01
2.356985752275205237e-01
2.439766977615702714e-01
1.746216753231337182e-01
2.151556012235891491e-01
1.686164818825175438e-01
1.648389862749387313e-01
1.176583112516972340e-01
8.944100609514905875e-02
1.214451640906093199e-01
1.586679984171720237e-01
6.812075354498331459e-02
1.593687589653870751e-01
1.082449165628427690e-01
7.029004674411901132e-02
1.625245603693561969e-01
1.515888673608474790e-01
1.279776210973100070e-01
1.826430551846592309e-01
1.535586305774824245e-01
1.772540109601231650e-01
1.817776293307112601e-01
1.528564773671203525e-01
1.457505636289181949e-01
1.579885121541998450e-01
1.831970505390131398e-01
1.748258845586593835e-01
1.757551116132503866e-01
2.169669470804467537e-01
2.154547122090617606e-01
1.845780916856378517e-01
2.112758426080011687e-01
1.731112768933376067e-01
2.379535544606263819e-01
1.849470967771862928e-01
1.935222915824516554e-01
2.350513780319268553e-01
2.538436464137329152e-01
2.512033540840301615e-01
2.463310307490121087e-01
2.331210776654510930e-01
2.418959304174345681e-01
2.147973327350522488e-01
2.209163321509833855e-01
1.986768937630612741e-01
2.477609792886604489e-01
2.100024615273056727e-01
2.270516528943318790e-01
2.331019054411478664e-01
2.131924162763485231e-01
2.840589320763116099e-01
1.802475009223810098e-01
1.825600699777284175e-01
1.620870138981891917e-01
2.245394304265171392e-01
2.373967829608460978e-01
2.151857505992374464e-01
2.852825179142866596e-01
1.507638948675444068e-01
2.075029283331318308e-01
2.176035032192348839e-01
2.352998586632800704e-01
1.943751614010069961e-01
2.164077056573340263e-01
2.072708454973867798e-01
1.725026376058068633e-01
1.631492870563035491e-01
2.267560445770816224e-01
1.653411868763334513e-01
2.401901790238952228e-01
1.687324604771185399e-01
1.317764160061297429e-01
1.329783320220237763e-01
1.778830413968862378e-01
1.673227791585380209e-01
2.042576390244098816e-01
1.229364728229323939e-01
8.926482793389167725e-02
1.176125782782539292e-01
6.688647563386204697e-02
9.064941191013747845e-02
9.401850723639133822e-02
1.277092379064102556e-01
1.039769863684361639e-01
7.557186599136407612e-02
7.377431700016791327e-02
6.139067095047213984e-02
6.123090808402519014e-02
6.607056122614571314e-02
8.885318345127785067e-02
1.205477092869655792e-01
8.312928320661507053e-02
3.410534392717219643e-02
2.665245712259393940e-02
-6.471947405990330360e-03
9.936421506730287040e-03
4.369803674799804805e-02
1.187168252048611747e-02
-2.255131332061349400e-02
-5.728525285064456352e-03
6.487813122263261234e-02
2.476698856113072889e-02
5.529936792056242695e-03
6.354828170402239407e-02
3.378534075661073638e-02
5.247647084743820023e-02
1.052857412468997597e-02
4.268327820935223504e-02
2.982792200967015334e-02
4.467151839561214755e-02
-1.163823381522009759e-02
-4.815706787253264121e-02
-3.971326561813080802e-02
2.500819271496418014e-02
-1.408705176248708016e-02
1.573709967816131969e-02
-1.101741811629271088e-02
-4.417978374572101297e-02
-4.615667828993390287e-02
-1.679358017403525041e-02
-3.148504546978881519e-02
-3.839151792416815867e-02
-2.629672277555124976e-02
8.439368288058177181e-03
-2.596089573527095296e-02
-2.372961845017963756e-02
1.355274603749283963e-02
4.185478630320913634e-02
-1.262385961421597785e-02
-3.089356321551826878e-02
-3.633567583554903058e-03
2.447670906375173927e-02
-1.874165499986737288e-02
3.666601036714489670e-02
1.861840451420696332e-02
3.222258380992373827e-02
-1.783450737152282584e-04
4.224875045815863067e-02
-1.378899850715413489e-02
5.931150802849557979e-02
6.121550261584264574e-02
4.978895573670029384e-02
2.528914749326666156e-02
2.914257839874892508e-02
5.233164891020010423e-02
8.511358803796821582e-02
1.098102542681456545e-01
3.783212644466321661e-02
6.143060832785787739e-02
6.515515992734624562e-02
7.171082479501661444e-02
1.129468352166874690e-01
7.912920705820211675e-02
1.107045798030488193e-01
1.210677869023283754e-01
1.215476019066711599e-01
6.967128741623172805e-02
1.199446781217690661e-01
9.635331292695745176e-02
1.187318585095943346e-01
1.335651194215642379e-01
7.353568215738628955e-02
1.549680173030308084e-01
7.969227197340193747e-02
1.065569057731447361e-01
1.236210948125315012e-01
8.584549989992473762e-02
8.876249295058018240e-02
1.291644778858250797e-01
1.095008169173524448e-01
1.512933986789051777e-01
1.202348378108233085e-01
1.079950085906274670e-01
9.667693407780408865e-02
1.215625749338209438e-01
1.133684126698665529e-01
8.185858739304395504e-02
1.105127378427010476e-01
1.400076659210477414e-01
1.210899263491777844e-01
7.110581253291417547e-02
1.348407156374449856e-01
1.300535917235731698e-01
6.740523395080301461e-02
2.036006168658884008e-01
2.836843820779331726e-01
2.118825691404364608e-01
2.803936523755654053e-01
3.069922351965829743e-01
4.318979172290628998e-01
4.391354896888908788e-01
4.916032057562294000e-01
5.778658578120594580e-01
6.477990227760123121e-01
7.800455680654924118e-01
8.755564832369586714e-01
8.987411712916326678e-01
9.342145064828634160e-01
1.019162398625094612e+00
1.142262710857454566e+00
1.111685306823892327e+00
1.139783967826458966e+00
1.134024670690305436e+00
1.150941794806220164e+00
1.130778248272682918e+00
1.128088529145920171e+00
1.079115822109870226e+00
9.908534949151005522e-01
1.001063046245272536e+00
8.845415141763129929e-01
8.558980874421839857e-01
7.430926268884071595e-01
6.615086494634757619e-01
5.611688488000483588e-01
5.108069222189133285e-01
4.248757321919430785e-01
2.982984072992993507e-01
2.988426136447411285e-01
2.009433052837325540e-01
2.153701658801069618e-01
1.427897899701304207e-01
1.495021045310993280e-01
1.771785020724140347e-01
1.073823278602160647e-01
1.403380426051259455e-01
5.133380536497016144e-02
4.008086988569240644e-02
8.332134791860811018e-02
8.522650166429437957e-02
5.496097123011622204e-02
8.764933687672299412e-02
4.520240331864072703e-04
9.053208887955437045e-02
6.174858693902214590e-02
7.674188626597903962e-02
1.058989563409260537e-01
9.132513119616224306e-02
1.594560781948881623e-01
9.627984621339444327e-02
1.548359368115571344e-01
9.218262934576676448e-02
7.509574925219986152e-02
1.107697952752697695e-01
8.889184620645793067e-02
2.026950559932782503e-01
1.369324577308786983e-01
1.244667660107989238e-01
1.944051452930454227e-01
1.500824095610517606e-01
2.221002603561062216e-01
1.394958037189588107e-01
2.131898643167115248e-01
1.189555102252334573e-01
2.146340766176560444e-01
1.995950200131582919e-01
2.150671710025446881e-01
1.727248551347059236e-01
1.614139359135050855e-01
1.646194100939684657e-01
2.523257591092432084e-01
1.704386028649076679e-01
2.231681883380277620e-01
2.158594928886508058e-01
1.900673599259327939e-01
1.677303939046416448e-01
2.218287110098395021e-01
2.386359708094306642e-01
2.293175471215755934e-01
2.028307416187774825e-01
1.594808642045189295e-01
1.741440397258684492e-01
1.868412599703130339e-01
1.903413721245787726e-01
2.280137100836321096e-01
2.216097854814925716e-01
2.057737376882026736e-01
1.372027067961299196e-01
1.820830103360708552e-01
1.857330515913339364e-01
1.555279112491868565e-01
1.938301879208902401e-01
1.489583902026329343e-01
1.505554675724857239e-01
1.644059299060503521e-01
8.305710663498339086e-02
1.574812179392187095e-01
1.277350520289243230e-01
1.002773830965635882e-01
1.196030701836229559e-01
1.649302814956666863e-01
3.314610111995006797e-02
1.016923940391472603e-01
1.026213856777958844e-01
1.033321403643421427e-01
1.134219414073210364e-01
9.144661323815753140e-02
5.915329522505784199e-02
9.046697844645937292e-02
7.512220138340439113e-02
8.540175419732402851e-02
1.187377049231905929e-02
4.357042866751381638e-02
1.211270762031117082e-02
7.450421547842783765e-02
2.093484195021468042e-02
2.913707787218744460e-02
-2.414541332578896277e-02
2.777243939747335577e-02
8.368511098942571502e-03
1.676971715024296733e-02
-3.051614958892024526e-02
-1.120427293116585399e-02
5.411546025245371483e-03
-6.190294200356941112e-02
3.828938326059862229e-02
2.471120030788645505e-02
-6.382204265544505484e-03
-1.324367264259058291e-02
2.022251644868522380e-03
-8.049596698976979603e-03
-5.007884980155186128e-02
-3.208813884737433952e-02
-4.126369604659195500e-02
-5.193461421973363107e-02
-5.863305287608988614e-02
-4.761580277656517202e-02
-6.343459830692615986e-02
-5.389717534966813328e-02
1.281396643788364209e-02
-8.233606652124440817e-02
5.192829710495235063e-02
-1.959636020818829316e-02
1.911323800813315155e-02
-2.537704433077254268e-02
-2.663668192819875977e-02
-1.391933660687934976e-02
-3.073412548859151550e-02
-4.760718040103774362e-02
-2.605572232582119979e-02
-1.960627301659573218e-02
-1.698993394434043791e-03
-3.152056775400121497e-02
-8.288143868304806428e-02
-2.308475519977205154e-02
-2.363378378827030515e-02
-9.128418247309554034e-03
-7.787078026960349286e-02
1.054568782892873618e-02
-3.102281648898570776e-02
-3.587308810508534757e-02
-7.161924190255955502e-02
1.518787883049795701e-02
-5.728592996559755957e-04
-7.559397283270888335e-03
-3.771070197893126169e-02
5.167466464179899105e-02
-7.114329299068991586e-02
-1.371114383421593447e-02
4.402139544178673702e-03
-1.155029644350699658e-02
-1.603799975530427468e-02
-5.260168018037808535e-02
6.745877074311590338e-02
3.636855012287752709e-02
-2.567732170220389520e-03
8.707357636904763942e-02
3.122756459300589371e-02
3.854456168073454314e-02
4.266276769382989359e-02
4.570600771199216650e-02
7.905310791025660366e-02
5.132855488047861903e-02
9.252388809883194121e-02
6.905422452782271348e-02
2.994908669572390186e-02
5.009653910110670877e-02
7.554730168425710657e-02
9.961921139714460804e-02
1.800874996360627422e-01
7.714878417861334436e-02
1.297318385306765465e-01
1.935474948190209210e-02
9.741475780824510045e-02
9.377765586539621445e-02
1.200687754638586902e-01
1.221145160689856568e-01
1.083891511458013879e-01
7.496945386516795651e-02
5.764645268159614144e-02
9.355303964556142826e-02
5.856156560624645874e-02
1.130365499372197047e-01
1.196934783036241179e-01
8.989365308730304371e-02
9.969666014966371836e-02
1.441665918611376718e-01
1.026232079885096848e-01
1.124254542692212505e-01
8.941194876272054448e-02
1.138170626234120408e-01
9.323488850335542866e-02
1.689525023558207384e-01
1.720114425194444741e-01
2.541526207756445999e-01
2.301734213163963705e-01
2.108176590751085211e-01
3.778674186227182208e-01
3.628251171548722565e-01
3.643453461189299358e-01
5.531312308327663851e-01
6.106340127411600260e-01
6.531337563570218663e-01
7.395987132790797780e-01
8.520887879337090132e-01
8.718325319339627066e-01
1.040359558597084622e+00
9.830504592850517476e-01
1.028319415888888644e+00
1.075545554424713002e+00
1.114548600724747152e+00
1.173400600607608313e+00
1.155980115444484424e+00
1.115555915117506958e+00
1.104202361448156200e+00
1.110516085808955999e+00
9.635941055643175712e-01
8.867805829879534807e-01
8.813927738659029787e-01
7.510054852751909538e-01
6.384935490519173529e-01
5.927700540587532707e-01
5.270806563059157179e-01
4.267284367244349452e-01
3.680385045097148144e-01
3.653145465029168926e-01
2.549492687453303041e-01
2.757275808902287517e-01
2.059578998022375540e-01
1.389356042481073028e-01
1.128130934854763567e-01
7.465020758107285270e-02
8.808825393811231530e-02
7.792425636962284352e-02
1.080147314561217264e-01
3.238544692319362400e-02
6.341449863191277181e-02
5.615457414365310207e-02
4.415550443786224466e-02
1.383105079937128196e-02
1.254820951861474188e-01
5.370716354764846351e-02
1.351249842136479362e-01
4.948859397438357122e-02
9.976287708062508974e-02
1.592753589576442752e-01
5.174720245469747321e-02
1.200694948679997542e-01
7.839556778816561544e-02
1.888055093065190704e-01
1.365139375695482715e-01
9.968446302197911391e-02
1.195413608345814310e-01
1.168743916212991174e-01
1.471949404910490866e-01
1.441341768721588479e-01
1.485983052023281126e-01
1.264432624826004326e-01
1.771233717124632012e-01
1.643523713704067579e-01
1.505616082166612024e-01
1.734859719471044115e-01
1.374925923371835557e-01
1.296905940085897879e-01
1.639592804639126988e-01
1.913691006178336873e-01
2.423816521702672477e-01
2.531759974770215194e-01
1.967074696259694111e-01
2.025983812392450623e-01
1.707743698399612486e-01
1.792459231233044237e-01
1.937075853436174833e-01
2.056280575385484588e-01
1.944795542742661365e-01
1.667593036582818433e-01
1.879928743173407690e-01
2.111834749558278435e-01
1.756956092802660074e-01
1.912793170845587531e-01
2.191258702521891588e-01
1.668694907765573832e-01
1.511086744868765097e-01
1.384403168504670101e-01
1.683461901255092485e-01
1.502950281216408890e-01
2.032552235407338870e-01
2.237632658558454946e-01
1.905356956786767031e-01
1.887511447672411968e-01
1.823873923946684461e-01
1.579673411105043390e-01
1.549161835725083036e-01
1.722686620067101770e-01
9.456155904889684827e-02
1.656287959388612063e-01
1.237535349457664774e-01
1.549059498035432747e-01
6.940823436472667862e-02
1.042077602167284234e-01
1.047429867494172884e-01
5.772870366615633769e-02
1.552044756404430403e-01
8.636870471907637237e-02
1.131429151684783529e-01
1.110593749218686255e-01
8.734339154639533809e-02
1.058285259585388938e-01
7.156944263036341125e-02
8.637111185697488036e-02
6.540515217381484558e-02
8.277706444086369020e-02
-8.518117270056670132e-03
6.518622439291277271e-02
6.881967790449872169e-02
4.462967940403959888e-02
8.785761605160606613e-02
-1.938532920548986793e-02
2.929022470691452357e-02
1.482706373446716214e-02
2.726878492444007041e-02
2.029956842598723554e-02
1.133194201067840717e-02
-5.943184885648693933e-03
6.094342399602213634e-02
-1.801057824116471251e-03
-2.082624050286221301e-03
-1.922836849671038378e-02
7.256411331465399683e-02
-3.655954509862308077e-02
2.147616941712260363e-02
-1.580979849039757315e-02
-1.758441600329719787e-02
1.466200086973773811e-02
1.787869571679063380e-02
3.800954162522210411e-02
-4.251196799687297079e-02
-3.062344926907959244e-02
1.426678274403547081e-02
-4.329363097721337927e-02
-1.698012400807626110e-02
-4.013491157702239742e-02
-5.459223402306283279e-02
-2.516563915159316517e-02
2.640950609214421860e-02
-3.445977274429218307e-03
-1.700302266536157098e-02
3.444513833629847532e-02
-1.713870802995083251e-02
-2.744671864124585692e-02
1.111047413514053978e-02
1.255218262194695428e-03
3.691380834595628380e-02
2.018975346665262405e-02
-2.171890075508794982e-02
-1.483900623523416035e-02
-2.352737204441380722e-02
-1.851471043082770357e-02
-3.639789620992975316e-02
5.158426933280132326e-02
-5.291590322466577234e-02
-2.280581244022909793e-03
-4.060374356810368679e-02
2.977609056233601614e-02
3.212244717696615542e-02
-8.856833097396224486e-03
2.398256779919704165e-02
8.172536067800124926e-02
7.418362875385378641e-02
8.461062687470156940e-02
3.950057050845831585e-02
7.135133782980665473e-02
1.196743817980252117e-01
8.765228265841715216e-02
1.020350405402800087e-01
7.273550839763026632e-02
1.219970109528460134e-01
7.308645520549544861e-02
1.324811778848119237e-01
8.157871331576777019e-02
1.515092891074636128e-01
5.939648746516776323e-02
1.444626123061183431e-01
1.189959202744889782e-01
1.055884343242278894e-01
1.328717492601326766e-01
1.531993768798933508e-01
1.055333299080200848e-01
1.133092635525477787e-01
1.270409081396315643e-01
1.574051214546597355e-01
1.436007243842662151e-01
9.400143114176220949e-02
1.573545719561121325e-01
8.908225067277876497e-02
1.542467648663531643e-01
1.606595736711325662e-01
8.495594417274920929e-02
1.168527012742337501e-01
1.234623874683077327e-01
1.442367789692603486e-01
1.537054272332079863e-01
1.009094143691983830e-01
9.628712567039811321e-02
1.005997490774525605e-01
1.302908676247254982e-01
1.471060800651563527e-01
1.561350626324575497e-01
1.624258257154039264e-01
1.260472659730941802e-01
2.527125780603539651e-01
2.008275883408484341e-01
2.580684038460020480e-01
2.628951570052838749e-01
3.144769730462949608e-01
3.926692546128172090e-01
4.283189877266707080e-01
5.526855471434355405e-01
5.648746357762727266e-01
6.425848851339984735e-01
6.838171915795863143e-01
8.078326114026094240e-01
9.000918687927338402e-01
9.531292833409430454e-01
1.022971695603581255e+00
1.042879877949961731e+00
1.141609624910319587e+00
1.157250709905019548e+00
1.106470845602060882e+00
1.117974572648678944e+00
1.174639362526012309e+00
1.144874891985206311e+00
1.065749348071611591e+00
1.057112517223695036e+00
1.010227618308090936e+00
9.175162495288682329e-01
9.197178912925790817e-01
8.038210396866909413e-01
7.268269130945074208e-01
5.892771594824395276e-01
5.926516226681777244e-01
5.184426884937455293e-01
3.585816076594831592e-01
3.500422766371056871e-01
3.400347769210328441e-01
2.012883148544137302e-01
2.246601958036773539e-01
1.959957074999341409e-01
1.524841805344182288e-01
1.777788053710839533e-01
8.579531483281116477e-02
1.379368669498454436e-01
1.349528268773992901e-01
8.492608352445195352e-02
1.466146015393632596e-01
1.098958499280127538e-01
7.242484550395909826e-02
1.266517397019344404e-01
8.519232012424127198e-02
1.504627665463348363e-01
1.216574130048923008e-01
1.449643219879150624e-01
1.508158626869287866e-01
1.623056924350969321e-01
1.391019583466492349e-01
1.955048013882928759e-01
1.715275260297405013e-01
2.124062979404021390e-01
1.770691712869152390e-01
1.736539145618983537e-01
2.107603785670216778e-01
1.824774267934777816e-01
1.393999219440383019e-01
1.426906246220365215e-01
2.355113616579016522e-01
2.450849999099228016e-01
2.214507791314686558e-01
2.119962685938313607e-01
1.983429870833869069e-01
1.969476522849775979e-01
2.492623128332576155e-01
2.657925084856767595e-01
2.269345126220042586e-01
2.571525984746120819e-01
2.430910853651326586e-01
2.530902503745345311e-01
2.296438710721516729e-01
1.955365695466694254e-01
1.806660634423064016e-01
2.639205212617675156e-01
2.157127798429268328e-01
2.068286645265100532e-01
2.791013336662135358e-01
2.328712049877200152e-01
3.470414140255447255e-01
2.186269579712030731e-01
2.690910782615683061e-01
2.664000298888753449e-01
2.984343553881477207e-01
3.157447148289415639e-01
2.625927330459092990e-01
2.510940983787036118e-01
2.394338133253195444e-01
2.246949766123187420e-01
2.546823383376021210e-01
2.300902397631610641e-01
1.954246951939659083e-01
1.932121423926334847e-01
2.049716689705485539e-01
2.138777459804177550e-01
2.235043785224890001e-01
1.899913270849834801e-01
2.341190055832923222e-01
1.973176372075100549e-01
1.971231321409537274e-01
2.109164881801152691e-01
1.716758285756150859e-01
2.388945486781011707e-01
1.902143448822153915e-01
1.593246752697895230e-01
1.432908681278862173e-01
1.676611580515785516e-01
1.413856123964526146e-01
1.975757157333495884e-01
1.075251061835277716e-01
1.302808554436382660e-01
1.315942406087600991e-01
1.099489147799059680e-01
1.529651427023233021e-02
1.095576287049389308e-01
1.170478404693560820e-01
8.102148685583275556e-02
7.007295787696710132e-02
1.017586936460425778e-01
8.937522600223613001e-02
1.042073688587080715e-01
5.074535831420086407e-02
6.391957082115881650e-02
7.516483170732490837e-02
1.123303829030708190e-01
9.145010063287667412e-02
7.920456566422143241e-02
5.607363444091696680e-02
3.144297131207407503e-02
9.312522556912661287e-02
2.745389705367833749e-02
1.106140795406175201e-02
-5.328720918258179895e-04
3.099938050510998508e-02
3.812799182680463861e-02
5.784734117157124683e-02
8.784691374844814937e-02
-3.910658814303438063e-03
3.806252493592228447e-02
6.405503592145556091e-02
-2.871461497148592584e-02
4.642196856309328129e-02
-9.111513316290294207e-03
4.003045985028597098e-02
5.545735122701743458e-02
3.737124447133437916e-02
2.294501276374143542e-02
5.627461346508681739e-02
3.660740384870775355e-02
2.528728327742504889e-02
5.791372430942957894e-02
4.331409238738485185e-02
-4.901719109591563817e-04
2.500204504706612235e-02
7.887302395737762206e-02
6.850917413409855772e-02
5.383919943189452439e-02
2.036915538650013041e-02
1.064502337996126036e-05
6.188701720767519898e-02
2.578236933807731557e-02
5.154775002096943781e-02
-2.792016583410272812e-04
7.223307954008841014e-02
5.627809852660224654e-02
2.996900205255562805e-02
1.149379876521660071e-01
7.629762335675116525e-02
1.022602271448974087e-01
1.631361019309735816e-01
8.776525174519261840e-02
1.280076964518264970e-01
5.957672888789469073e-02
9.814627795164795887e-02
1.024430162134952471e-01
1.169554436302442657e-01
9.641982052242628609e-02
1.311028894499944863e-01
1.287120396397226363e-01
1.349505366915280113e-01
9.553240725312173165e-02
9.846100219903280992e-02
9.931150704434757448e-02
1.532356305688075404e-01
9.046355525447494217e-02
1.920825655941525156e-01
2.133082046586582126e-01
1.741711751332597757e-01
1.214069383626309173e-01
1.864100961138553669e-01
1.647591921341098609e-01
1.422277351678271906e-01
1.948237817174180431e-01
2.023656503186685995e-01
2.075169996784757831e-01
1.427966859099407404e-01
1.788782747239767712e-01
1.785990910530154130e-01
1.479407859903754396e-01
2.416432023034918997e-01
2.030594057603402891e-01
1.836969057673734917e-01
2.183310516348611618e-01
1.494976281345388180e-01
1.800682110467536901e-01
1.901757725028056512e-01
1.596689475594435803e-01
1.686552494743671082e-01
1.671206082040756213e-01
2.276994979766746030e-01
2.025728089549343469e-01
1.720315285285048956e-01
2.332925402344796506e-01
3.048862165213163111e-01
2.416781568240724543e-01
3.224925641256939368e-01
3.438417225514520115e-01
3.521047315000833122e-01
3.764847829403917268e-01
5.016338821839730899e-01
5.346655469073527955e-01
7.139827690380181613e-01
7.291549627782014653e-01
8.330270156850141383e-01
8.497924574097017736e-01
9.890869419194321388e-01
1.010442868279788575e+00
1.064403012347060251e+00
1.120368069706801695e+00
1.188295876500151671e+00
1.233867694023756956e+00
1.217126549643473332e+00
1.250650204596588599e+00
1.240522285654256818e+00
1.217259534521458075e+00
1.159182535407819570e+00
1.161056748434770691e+00
1.095754059022238547e+00
9.855486470214394057e-01
9.265630274226213103e-01
8.559940247106838651e-01
7.603967992203181092e-01
6.690624969575573733e-01
6.117612213656050679e-01
5.202339516619702842e-01
4.862461378793189182e-01
3.879495015553706683e-01
3.729433298605691061e-01
3.198960067879644820e-01
2.748587782001328250e-01
2.412005303178569038e-01
2.050320416838384563e-01
2.080798779294899814e-01
1.698833375616797814e-01
1.741221485475944741e-01
1.414843789616773151e-01
1.430646642115644962e-01
1.478886151080655020e-01
1.998589273959056334e-01
2.004772332678796398e-01
2.138537786554566833e-01
1.350527698061619319e-01
1.778810000986917050e-01
1.277451368464139758e-01
1.122004211580317906e-01
2.605004521778936377e-01
2.033633206302345453e-01
2.121560165083776206e-01
1.658314214866271619e-01
2.470480920431199767e-01
3.019065637143510950e-01
2.127884178827833539e-01
2.037919762034173243e-01
1.926901537165519873e-01
1.951161677490804158e-01
2.276153405799547502e-01
2.191511855561721900e-01
2.633004193270603865e-01
2.552764916740817291e-01
2.340952577182840721e-01
2.525184712114072472e-01
2.155888513241019655e-01
2.589480141393682988e-01
2.859193132046798369e-01
2.541754559645905132e-01
2.849987231214345385e-01
3.238991893284610679e-01
2.736583094860952081e-01
2.800705827340423948e-01
3.008586520539073828e-01
3.310011452183833081e-01
3.086025318589539213e-01
3.232196266277083674e-01
2.563048110881984143e-01
2.769089893048881090e-01
2.957080812018544336e-01
2.525386007611247763e-01
3.338439851933070468e-01
3.115735460885478147e-01
2.846197463802574990e-01
3.233837850479517884e-01
2.614357437520912208e-01
3.635547454141215828e-01
2.699916746113974475e-01
2.866820156469571668e-01
3.105526076684189674e-01
2.616364202157509533e-01
2.805417713383869804e-01
2.750701632417649201e-01
2.950890340211842489e-01
2.429750204202561770e-01
2.880496714430590965e-01
2.582221391736735372e-01
3.305670562967085724e-01
2.201672146810162989e-01
2.311604371018785575e-01
2.671715376890299587e-01
2.324180235450820087e-01
2.133334039508196500e-01
1.928654717417150055e-01
1.593928114025937592e-01
1.722705471825877743e-01
1.969078338176486753e-01
1.969362724333031944e-01
1.814316995802116028e-01
2.009023617836104281e-01
1.474002119613737616e-01
1.307718970069725317e-01
1.418922601395959660e-01
1.728517133936789407e-01
1.827153089237467110e-01
1.431128662441970845e-01
1.672253026388972330e-01
1.016337345825698568e-01
1.302172144716090552e-01
1.572028449698606445e-01
1.162997513255129012e-01
5.984395613791234497e-02
1.389864855323271753e-01
1.473959373732145473e-01
1.076678307733898998e-01
1.323904816892728931e-01
4.677028543377278330e-02
9.255669280188685843e-02
8.394057677507271720e-02
6.076781852582153337e-02
8.127132091294589356e-02
1.035785983757633727e-01
7.519287322681020291e-02
9.733061180831037440e-02
7.214829744592807237e-02
1.147249011905436683e-01
3.265421160067246559e-02
1.027268385084678659e-01
9.570592656431070600e-02
1.035100017753628338e-01
5.857350304919223261e-02
4.296549949410177760e-02
1.041774988108853106e-01
1.072657104219398028e-01
1.180099409708404434e-01
1.116837631658846169e-01
9.805001466932630749e-02
4.565841402995396425e-02
4.158408985547328018e-02
7.576518757565103845e-02
8.256184661591167706e-02
8.977249200655872119e-02
8.462583613858337683e-02
9.449127231628817736e-02
7.989727676665026035e-02
8.731470317352840738e-02
5.458037223405393101e-02
1.178573480685730507e-01
2.863296569476324327e-02
7.356792450221726065e-02
4.182195057080174971e-02
1.186508680057393184e-01
1.054813169281879209e-01
4.027919699540527532e-02
6.198460661293060669e-02
9.547206195317819999e-02
6.030454450113413578e-02
7.756747787158031759e-02
8.343274434057901257e-02
1.247460716971168782e-01
7.067106711935766672e-02
1.198400077726212987e-01
9.964830652557629675e-02
1.363523430324351804e-01
1.175779220409904346e-01
1.317399141066448731e-01
1.240425641732691708e-01
1.397898054319645922e-01
1.072959247941585037e-01
1.471675857287380040e-01
1.679829220400413381e-01
1.848986733479158207e-01
1.622860044086074649e-01
1.517463404290949613e-01
2.071077730831089592e-01
1.844350076272310568e-01
2.012254876637221690e-01
1.872001860282304364e-01
1.690690223775788703e-01
1.894482767353182495e-01
1.023238222813649956e-01
2.189511843919326461e-01
1.586425000081368442e-01
1.707494391259637700e-01
2.397948546314656038e-01
2.349639273942189521e-01
1.600274007126749332e-01
1.713779588363615325e-01
1.400001182389242760e-01
1.542274489429644457e-01
1.974964639872339722e-01
1.936935958207232356e-01
2.223917948472336759e-01
1.388089622320958227e-01
1.780828202663575499e-01
1.586209863719723057e-01
1.468849980440189995e-01
2.082815020209773660e-01
2.462659730395062863e-01
1.132087294703469360e-01
2.079767759537867466e-01
1.739269349922794028e-01
2.229256152543769853e-01
2.427403341975197248e-01
2.121250335215007499e-01
2.107468552717616517e-01
2.470074977473933342e-01
2.765597405948519993e-01
3.609764824986804177e-01
4.601118168947277431e-01
4.973321067701639842e-01
5.304243431918681528e-01
5.624299191099955131e-01
6.204144732695295872e-01
7.295367547843780720e-01
8.147665654949612923e-01
8.811873388700036669e-01
9.805204475154510879e-01
1.010347158030163062e+00
1.050917870143300181e+00
1.105813133106607671e+00
1.175112487853881893e+00
1.209378401615440746e+00
1.259204071341741393e+00
1.218484681361333477e+00
1.193771760739256838e+00
1.204239433192457520e+00
1.166828012610432452e+00
1.036844929939458648e+00
9.979908073719659933e-01
9.912514890029862080e-01
9.269692954973942634e-01
8.437140135485989845e-01
7.775074622885225217e-01
6.272945617632328386e-01
5.476442961698835266e-01
4.992823643126869659e-01
4.460474617859456758e-01
3.631725441998295278e-01
3.474778343474813624e-01
3.151771833245323728e-01
2.642711911534957325e-01
1.831790001802120482e-01
1.863034886215633457e-01
2.050910231231759806e-01
1.893387733678563722e-01
1.324023457310965490e-01
1.840157252759305473e-01
1.229879009175056381e-01
1.542668111146136833e-01
1.423777116564861611e-01
1.530587236460526634e-01
1.248438995559746634e-01
1.943396431415432279e-01
1.851878895830516292e-01
1.698963008122768847e-01
1.788348509880979542e-01
1.885565702151894563e-01
1.722078115888951710e-01
2.181874246831699282e-01
2.411267559475385458e-01
1.911908915581338464e-01
2.144945512374868413e-01
2.069475861804085937e-01
1.889320823818178008e-01
2.299950215279817634e-01
1.741286173187784059e-01
2.154822136796453735e-01
2.608250095208533570e-01
2.543066494843903569e-01
3.072066383686863911e-01
2.815425813868141502e-01
2.264063823188481872e-01
2.912863957389844605e-01
2.857780982004942683e-01
2.529884154718480271e-01
3.354397229670392777e-01
2.865032826379039221e-01
2.609672442423175975e-01
2.422819106261048239e-01
3.066960783123882095e-01
2.989227790370904692e-01
2.554723787039961391e-01
2.937958022402000213e-01
3.033562964341165458e-01
2.886729452108250382e-01
2.782940465216661718e-01
2.697556981289819245e-01
2.922285828662055662e-01
3.089008294801700583e-01
2.839844978357225491e-01
3.170458312638018139e-01
2.505056990630009084e-01
2.523987764911207465e-01
3.193828990676413349e-01
2.325651906562525295e-01
2.597127285878912395e-01
2.791148828693045814e-01
2.823139378652345655e-01
2.489790761713839007e-01
2.440989791827797295e-01
2.332098575746880398e-01
2.450137704324418519e-01
2.359731736636294097e-01
2.492794250961022640e-01
1.425590491735111431e-01
2.743400740076792910e-01
2.254099051783391428e-01
1.872247419469014740e-01
2.112099248311831989e-01
1.580077290356754482e-01
2.070893527010576052e-01
1.662573716267679302e-01
1.312728751843363906e-01
1.409984188691860429e-01
1.237074756681830201e-01
1.990358301227540816e-01
1.769896641495963263e-01
1.058163834496755606e-01
1.114012957711134344e-01
1.201345558000382202e-01
2.022070465542225304e-01
1.653997953297712264e-01
1.579572695978381791e-01
1.646123474979889756e-01
1.111287222012807829e-01
1.364006360564310183e-01
5.171376943060439213e-02
3.806913518123615503e-02
7.304420472818257126e-02
3.411116201554695998e-02
1.402174050803896288e-01
5.347953621973490501e-02
7.741050442110772312e-02
5.556902814587153655e-02
7.328267370890616250e-02
4.588268313758103040e-02
6.052366684045929618e-02
9.777766884862346131e-02
6.493160829017635693e-02
1.644046693437648671e-02
2.396224151223462495e-02
5.950537947928828675e-02
3.004689582869170955e-02
7.985460496130787622e-02
8.307404557676047185e-02
6.714868043340886661e-02
3.388032762000819931e-02
2.256753201843950812e-02
7.933723768871832338e-02
1.614352712324927663e-02
4.116231462230210414e-02
1.663159173282603015e-02
2.538268719806816009e-02
1.753090213586129542e-02
3.270416092773206773e-02
5.942759991027520006e-02
3.097405309191604214e-02
8.088392248293175754e-03
1.338287535744852805e-02
3.226885492264644495e-02
5.405179022188236204e-02
-4.527597161773107282e-02
1.367127878021310271e-02
8.389083666398625128e-02
7.341552997134517811e-02
6.969644797414231707e-02
5.291221232494942861e-02
3.779766145224145585e-02
3.991960573518141264e-02
3.210937833901272159e-02
7.725077347223838209e-02
5.981018360644684007e-02
3.025253134656642057e-02
6.546842202906132113e-02
3.330873223285281404e-02
6.577568076270398634e-02
8.549181166896310455e-03
4.953919693511340400e-02
4.552513435616422494e-02
4.306882372309629725e-02
5.616566812079480664e-02
1.033222250771536066e-01
1.130598820989564129e-01
9.601094446671223914e-02
1.054520599284137772e-01
8.315806177359390261e-02
1.342574126315801142e-01
8.561400567843818754e-02
1.060147264309276027e-01
1.488959135883426155e-01
1.978007381747786952e-01
1.263233400621642799e-01
8.742653185240695235e-02
1.575550665989645382e-01
1.205852571227669784e-01
1.735944569738099297e-01
1.367429966222963311e-01
1.228743794205819778e-01
1.920631733365303351e-01
1.778223911868838103e-01
1.613824633754669113e-01
1.745695378171868706e-01
2.036421559891176958e-01
1.440046617897670911e-01
1.558205810385610568e-01
1.091986516115899669e-01
8.837894179737593170e-02
1.771533663736824249e-01
1.728758026295118821e-01
9.730498284071342763e-02
1.063233727103525955e-01
2.064563141016019232e-01
1.215336846487634487e-01
1.186778228307144439e-01
1.472312293751192047e-01
1.112769777487194883e-01
1.729932943634323872e-01
1.644621366453354050e-01
1.021136135568406489e-01
2.190868589274045097e-01
1.929810857179772576e-01
1.707147304880033412e-01
1.832683729291587071e-01
1.944334175941747345e-01
2.708566476149867897e-01
2.755898046495914300e-01
3.973497411591770945e-01
4.040783808426974266e-01
4.704492196825703076e-01
5.637471000661260501e-01
6.000977452508728938e-01
6.996355533719958997e-01
7.766003644885633994e-01
8.507273287892568314e-01
9.762443050673224043e-01
1.024150548004312045e+00
1.036894834153615497e+00
1.096741685424208024e+00
1.172590607848786437e+00
1.137274327898275317e+00
1.148652109701296720e+00
1.233974668501939043e+00
1.197124164660002377e+00
1.159651709637046890e+00
1.110264404356350987e+00
1.007195452504618727e+00
9.789158871936665118e-01
9.145874015744402952e-01
8.073288057642882265e-01
6.670187768559253660e-01
6.649544085012051298e-01
5.694508206304746967e-01
5.157830935513358916e-01
4.675162894137822600e-01
3.778946000294018948e-01
3.794757694599766307e-01
2.874532025156365522e-01
2.142778049890106951e-01
2.246554596498699929e-01
1.626621582883893413e-01
1.088437897689018552e-01
1.830465055815821973e-01
9.083237955281038556e-02
9.526776788063821833e-02
8.979911817381948380e-02
5.598747080657758002e-02
1.060866850472561990e-01
1.080386959708290878e-01
5.972712385163835014e-02
9.589434805208091328e-02
1.529676032391731888e-01
1.156476824527029046e-01
1.189601363134280554e-01
1.596146176947429995e-01
1.250482350769810125e-01
7.555212810542569213e-02
1.869378892025829464e-01
1.356830022175609107e-01
1.314438201706594755e-01
2.307947200892659367e-01
1.707714212437439205e-01
1.733779865092635319e-01
1.616243947349480792e-01
2.526602355353165796e-01
2.127807824997131059e-01
1.812666072734007428e-01
1.867638329901453453e-01
1.775878421929886763e-01
2.146896665738254328e-01
2.080197030145797266e-01
1.993780862688001310e-01
1.696872417742782135e-01
1.716540167332935296e-01
2.069304606774985955e-01
2.300466364421779319e-01
2.709246818446637284e-01
2.436334402422484224e-01
2.035757073383767102e-01
2.048796076533310750e-01
2.172504047616974909e-01
2.646100192881463697e-01
2.590819514678299185e-01
2.291762845401906223e-01
2.371915454167546344e-01
2.035743200227327909e-01
2.133767217402293970e-01
2.352346672714211162e-01
2.014155667942796879e-01
2.618689233045849996e-01
2.598967679689824783e-01
2.205635685279807578e-01
1.903621692254079678e-01
1.856202857370113368e-01
2.506281145608558192e-01
2.655361326130767918e-01
1.317803656007152935e-01
1.396345094098369044e-01
1.929245320404808506e-01
1.912572083425731762e-01
1.592615517104103429e-01
2.347326055949815471e-01
1.688285828353826845e-01
1.881393083592676763e-01
1.620048762603282233e-01
1.761246952850430425e-01
1.725914667801457525e-01
1.254638611662571290e-01
1.539450628632150209e-01
1.424176941786727824e-01
9.971928168833951722e-02
1.021458067090185995e-01
2.437188692763014863e-02
1.296971492632800482e-01
5.281884279692507234e-02
7.540247756983492478e-02
8.090187818590741098e-02
1.449652087239922393e-01
7.714335196332081090e-02
6.927737065101080560e-02
9.500390227218574735e-02
8.271583087000228263e-02
1.197110939453746026e-01
4.208713411096119683e-02
6.494649448343149667e-02
5.778699311510356040e-02
4.361059004892978153e-02
1.252441119793320373e-02
6.531626106504288820e-02
2.795694663190613147e-02
6.141448465531581385e-02
-9.947163967387848832e-03
6.854190276450022878e-02
3.241000548718843410e-02
2.690571710688995782e-02
3.653527767071705623e-02
4.621033074727010082e-02
-1.995086767634171587e-02
2.079186106655003807e-02
-2.895209613812764135e-02
-6.664582595106209595e-02
-4.904841704081375209e-02
-3.474883682129489837e-02
-6.609913869706079970e-02
2.424111295601762139e-02
-4.019930603290532145e-02
4.012215950116738983e-02
-8.112892089207482393e-02
-1.702661577227248396e-02
-8.095409215494786537e-02
7.967733238467000767e-04
-1.524989808234544428e-02
-3.019133704002602628e-02
-1.666267076071513073e-02
-1.874027720080006371e-02
2.311067324571168535e-03
-4.589486198073408629e-03
-3.353889327602262854e-02
-8.157933673443412692e-02
-1.797877924860682292e-02
-3.229766393883720665e-02
9.732967241558296290e-03
-3.210236127804806661e-02
3.081084687249768805e-04
2.102317864259398844e-02
1.006050057699008765e-02
-2.890368323937710787e-02
-3.683221057281969857e-02
1.508348364016389581e-02
3.063666218505653460e-02
-8.422123391215834143e-03
-4.579629537133413086e-02
7.350156028575902112e-03
1.238007821271526476e-02
-3.055419207916923452e-04
9.506465749232827223e-03
-9.921869617660266510e-03
4.494109372147852416e-02
4.174442195148203583e-03
1.459268285067136239e-02
-1.942208091896815286e-02
-1.713760206793935731e-02
2.874203460228896140e-02
5.803702350516624919e-02
6.890431870017851845e-02
5.266723588970198544e-02
9.786806830831903947e-02
4.758962721320599693e-02
7.563838400457101319e-02
9.723191292124050422e-02
1.001777684129714074e-01
8.808128942981258147e-02
3.422588965576175285e-02
1.384921484340347897e-01
1.182467623844694754e-01
9.950496996264282523e-02
1.004607344174961447e-01
1.145815942913859520e-01
1.025306569569077036e-01
1.063002410710247730e-01
1.360613106528744121e-01
6.455632691899365616e-02
9.944187040299937164e-02
1.345923371895828280e-01
1.365796447444170003e-01
1.007227377637736065e-01
-1.238365009912339998e-03
9.859593898428251069e-02
1.399300693082595193e-01
1.647704550614056129e-01
8.774064692376702668e-02
8.996469035799434244e-02
8.434719301344964504e-02
1.028389071828284262e-01
8.289654817592792546e-02
7.802483004980187431e-02
7.216533232912178408e-02
1.079281180951875974e-01
8.534428941014958470e-02
1.407375735809935358e-01
1.544005727260088501e-01
1.612364103750315580e-01
2.083029817778495607e-01
2.647483129836989968e-01
2.882392364599372092e-01
3.517823902919610113e-01
4.249963397833932399e-01
4.730108484613042008e-01
5.393480316949839093e-01
6.391260790702794070e-01
6.803412731165028315e-01
7.637383582652643721e-01
8.034551117759241023e-01
8.959248583076016015e-01
9.573054840167308788e-01
1.028659267025647805e+00
1.063955520268395238e+00
1.093124117476905965e+00
1.176639560898973480e+00
1.212279829355174421e+00
1.129714449966725320e+00
1.089088696588969674e+00
1.072812570488552053e+00
1.086488484804857269e+00
1.000590477229684083e+00
9.284110029906530448e-01
8.349933960223946405e-01
8.084050575687284912e-01
7.691893227572713654e-01
5.454044514383640241e-01
5.521880478716640894e-01
4.902789586137322186e-01
4.147233110680201285e-01
2.960514700179129877e-01
2.502864478981149943e-01
2.349706321816995291e-01
1.848322704785815562e-01
1.399236533178012387e-01
1.501313002398080299e-01
1.258938029539290460e-01
8.196746185385980765e-02
3.509272187705128609e-02
6.092275524352811639e-02
9.165527973164722120e-02
9.194207897202080759e-02
3.812449438867225593e-02
5.412751582388482252e-02
-5.433531644561860607e-03
7.363520090015276964e-02
7.159644396543175804e-02
5.280126905701108819e-02
1.330059455135679525e-01
6.223740408968830851e-02
5.404572097097720684e-02
1.034690567898797209e-01
1.164651717036646605e-01
1.074460258897996234e-01
1.313623616260951310e-01
1.563187964465849455e-01
8.176523628363756291e-02
1.351034644104578686e-01
1.448275558537692187e-01
1.334221550802426326e-01
1.219532387018912867e-01
1.957022405216563010e-01
1.752029501319123383e-01
1.538830576279358875e-01
1.975810312025039206e-01
1.580465851933718080e-01
1.977428661140910038e-01
1.670845562456645117e-01
1.379684479712576795e-01
1.476140491723427761e-01
2.098520459139773808e-01
2.118138044028313183e-01
2.068007071942842279e-01
2.073754866701904287e-01
2.041887143086477674e-01
2.586932015098385440e-01
1.543027993036035217e-01
1.779544952335164187e-01
2.368431720143364672e-01
1.625270202798837493e-01
1.781823684731231039e-01
2.177636525582959393e-01
1.866022909960899923e-01
2.213341326400416753e-01
2.176381618267210216e-01
2.167082157981592982e-01
1.991401578264292149e-01
1.291146744003378588e-01
1.368508466569615667e-01
2.160750670054036870e-01
1.819379385478539224e-01
2.190756688181787759e-01
1.291426535190250691e-01
1.691030132151776222e-01
1.854311202323017660e-01
1.916406703803634481e-01
1.591524154076346120e-01
1.819960038018667292e-01
1.583737378331614432e-01
1.562914217666775962e-01
1.628352824367151896e-01
1.583515295613206753e-01
1.159743994100353170e-01
1.027215701137721982e-01
7.726508673639057023e-02
6.987890528362913911e-02
1.155676908948374826e-01
1.351840972935320906e-01
8.860838891202957313e-02
6.855959881921816490e-02
1.044540023848052612e-01
6.221474139311441998e-02
3.519204090742131252e-02
6.749466523540402496e-02
4.017512245732671183e-02
1.981347369928654345e-02
4.030267725152560099e-03
4.367773357124475619e-02
-1.096814861304837990e-02
1.385411493032690650e-02
3.195731796922728768e-02
3.540428919787297346e-02
4.563137419237056625e-03
1.740831644203654632e-02
-3.248950278905862743e-02
5.701855866907340475e-02
-1.156495281186327440e-02
-1.038924534820075823e-02
2.320905392587652855e-02
2.077296434340834830e-02
-1.499115486244272100e-02
-5.521646624682203380e-02
1.201216884734628010e-02
-3.273490210978174941e-02
-3.429066781749295911e-02
-6.066481878485006224e-02
-2.133105684467446680e-02
-1.350954807147021486e-02
-2.732691786000159689e-02
-1.521646121745912072e-02
-3.787539769044700327e-02
-6.045165226323666319e-03
-5.164396007632438002e-02
-8.544425643135797332e-02
-4.412398757420819828e-02
-7.440250112007167071e-02
-6.900079384963313245e-02
-8.282874385259379746e-02
-1.172518597298546073e-01
-3.113125166001872585e-02
-4.646759989702699267e-02
-4.081351905874133768e-02
-7.023041418883588238e-03
-4.504645708863046216e-02
2.261215789957950195e-03
-5.957668104289358391e-02
-3.522838737087303357e-02
-2.105129660997567820e-02
-6.551104814855102099e-02
-7.496351789350305661e-02
1.013661272617518566e-02
-1.022232432279422676e-02
-2.241102697105066405e-02
-2.641856768721545859e-02
-1.177688448334811983e-02
-9.868607894976430539e-02
-2.525017658685346778e-02
-4.725059803134767922e-02
3.964734421367174799e-03
3.366286767570450533e-02
-2.246074246701215693e-03
-2.481686505638650009e-02
-2.275173459291995881e-02
4.154678009983358428e-02
4.948968303001330393e-02
5.380294810695170765e-02
6.959158929810879690e-02
3.953886133406373654e-02
5.960407843082297930e-02
4.638509330976330058e-02
5.527800976103695862e-02
5.711191546246598832e-02
2.509638027738572003e-02
5.812862541185581655e-02
3.311022185910432458e-02
4.391005581240308570e-02
8.206663678122372296e-02
9.665565439179379936e-02
8.102878924336200106e-02
8.503539711937033174e-02
1.302926829931618791e-01
1.194458964797419365e-01
9.046375715745236246e-02
1.437342744823879859e-01
1.483914414121271508e-01
9.024852086668330720e-02
1.646201543236406328e-01
6.512117210158452352e-02
1.134997665064373523e-01
1.429875215003462152e-01
9.179386472467082614e-02
1.274091874539188263e-01
8.738113620935372694e-02
2.458707583537075164e-02
8.766645059964980891e-02
9.917012494672466927e-02
1.600607203335459028e-01
3.138122231726540867e-02
2.686957163492455919e-02
1.520455970760838937e-01
5.371346353862528622e-02
1.565839956051945370e-01
1.016371784826397978e-01
6.806832722153259574e-02
1.222343579982385353e-01
1.787097391424297133e-01
1.876613677594391461e-01
2.047821811520226520e-01
2.442261501356852993e-01
3.526192522592515033e-01
3.858552816324646861e-01
3.693673897252647276e-01
4.732155014622168032e-01
5.437901547426895466e-01
6.389823372884677610e-01
6.627550254789200679e-01
7.793948936520993520e-01
8.470365817202919478e-01
9.275842677243377743e-01
1.030254677238674699e+00
1.018480398034799839e+00
1.116787993810562263e+00
1.163071946189165873e+00
1.097804191741138968e+00
1.196531753526151931e+00
1.112410782782429663e+00
1.046269474463698224e+00
1.087194658170290706e+00
1.061584136802858458e+00
9.862632836138692793e-01
9.429679765503269362e-01
7.555803458795998795e-01
8.088573863156318655e-01
6.398217087581667961e-01
6.116654774686403062e-01
5.299503740157683884e-01
4.858188503635437749e-01
3.865180659626274440e-01
2.962980059304656244e-01
2.811628389975240339e-01
1.919454413574812612e-01
1.805478713782437683e-01
1.755397598317179342e-01
1.447389728979280310e-01
1.661699838042822730e-01
8.883591473909460690e-02
1.304911796124191281e-01
7.281627021288752943e-02
1.197911310506399873e-01
9.133589488629434427e-02
8.017839293949166612e-02
6.270070781581346675e-02
-1.183702211365298546e-02
9.535759158777232236e-02
1.023231873240842971e-01
7.627001907908725897e-02
7.320844050584719709e-02
1.016851875881622236e-01
1.112776915342886530e-01
1.654014602975995563e-01
2.631746686088852483e-02
9.575768781743770885e-02
8.172306858255390383e-02
1.436842101204644506e-01
1.238330135672936760e-01
1.608797985965745303e-01
1.442919710851868487e-01
2.033292272087580121e-01
1.313966183369991436e-01
1.787100375128038987e-01
1.848990374782079338e-01
1.790180993463995618e-01
1.941099175448791070e-01
1.991414403544877199e-01
1.853497220049276084e-01
1.934286730588788417e-01
1.749736026968122249e-01
2.230073393007933058e-01
1.371006603973555782e-01
1.992735195766605627e-01
2.723523210098403591e-01
2.483694424687848679e-01
2.357990487053770456e-01
2.751590362448096405e-01
2.041504566737545878e-01
2.178450047301087322e-01
2.271259245683077133e-01
2.357328263626925491e-01
2.038956769693238136e-01
1.975035805246125042e-01
2.788814641364965041e-01
2.253895301602816259e-01
2.628768268383139262e-01
2.014890106049076757e-01
2.096494294210393683e-01
1.652644690254318482e-01
2.221105486595160161e-01
2.000005204058062647e-01
1.830823424422938495e-01
2.035652283870318935e-01
1.915540851677779988e-01
1.799832417037073307e-01
2.092843988596442550e-01
1.505899123514358173e-01
1.718573672069360347e-01
1.605875330318393690e-01
1.688257026958410734e-01
1.347916797582325854e-01
1.931780903135634497e-01
1.164066066827292995e-01
1.841844087607282243e-01
1.380703555718148512e-01
1.641199312584969150e-01
1.484302430723042354e-01
1.037077383872543890e-01
1.164232786767264854e-01
1.403439953426567910e-01
1.257704422443096937e-01
9.553175683270372087e-02
8.966309989942569669e-02
2.963237132346520364e-02
9.912832883827062125e-02
9.489200633193531353e-02
3.350415398995001265e-02
9.096752102986493949e-02
4.531305826595237451e-02
8.509608371784986580e-02
3.737115680443317545e-02
4.424449515506646835e-02
5.084603799212383812e-02
4.019294166768225263e-02
1.434423070036855430e-02
5.937999604452907920e-02
4.486992233558663445e-02
7.413901986560345048e-02
-2.921164842711933274e-02
-1.929843794932790263e-03
8.944598147128833554e-02
6.007782086187243853e-02
2.054423797832296422e-03
4.288910331630948342e-03
2.587676318544154114e-02
-1.686855961446876925e-02
2.679348943578270525e-02
1.479268121640350472e-02
4.648523584375271328e-02
2.922510963814647922e-02
-5.068521868976149508e-02
-3.926138734536278180e-03
-6.827326160071884448e-03
6.725651908149003072e-04
-1.770768242050700658e-02
-4.215506987098316394e-02
-2.146987031629519344e-02
-2.012197015284686308e-02
1.537574366092266283e-02
2.912422917384235171e-02
4.131535499844754544e-03
8.630700642900779318e-03
1.108113246426171983e-02
3.093128161201581100e-02
-6.784220206909776299e-03
-5.826926952942877019e-03
1.179842040065424459e-02
-1.838839701117349346e-02
-2.026719846713446321e-02
3.896550206477418510e-02
-3.088748086853981140e-02
-2.450359520828489929e-02
-1.711979982299566966e-02
-4.270981103894224903e-03
-2.256920006228211456e-03
-4.402043307712528997e-02
-9.065881638473565277e-04
2.241442383819319470e-02
-1.495508901520838096e-02
5.481681760576939677e-02
1.710837936904120726e-02
7.416392601619394009e-02
8.560905809017806123e-02
3.525631847619649373e-02
4.595440781248250062e-02
9.215584992944550469e-02
9.043573950090823266e-02
7.890952848226683025e-02
5.792616792841030759e-02
5.675251672060925567e-02
1.364684043457402018e-01
1.332550190953160907e-01
5.673773047397754482e-02
9.137776002863783054e-02
1.313395200664434215e-01
8.711448493614649957e-02
1.165958378516980809e-01
1.546350616720488513e-01
1.473065338031207816e-01
1.357057182084869529e-01
1.001040177421033128e-01
1.859586392074104033e-01
1.557256104022594623e-01
1.490042999542921798e-01
1.953621120203269945e-01
2.193268270907116346e-01
1.626113633494020994e-01
1.997992380109017141e-01
1.667133967060646371e-01
1.118431180128975078e-01
1.102853949577397713e-01
1.436717395537024378e-01
1.746020051494071301e-01
2.129076696633916965e-01
1.385193874322368512e-01
1.780156317735652749e-01
1.574711611173520986e-01
9.159908124623630798e-02
1.221356773728981687e-01
1.370672952691208424e-01
1.132241337327791336e-01
1.097123920975847239e-01
1.333752423398506526e-01
1.606794886919646614e-01
1.825620079906741522e-01
2.028159455042223558e-01
2.257062786602531124e-01
2.883443090246818330e-01
3.303866124899466072e-01
3.300363344234550911e-01
3.838416993755773277e-01
3.941512723100117910e-01
4.770243964927869951e-01
5.508739008229279754e-01
5.857826960239274072e-01
6.730170604328739037e-01
7.648463010225530212e-01
8.436039448640646476e-01
8.475417518150090146e-01
1.009343664894810644e+00
1.032446506674313813e+00
1.149444581659385012e+00
1.150636347974438811e+00
1.148806747360953340e+00
1.167005959658462322e+00
1.230579861194097679e+00
1.179818572932810783e+00
1.160093159563161169e+00
1.126813516505157375e+00
1.062337576006151973e+00
1.002086577232964348e+00
9.107763823581429552e-01
8.763305735834235888e-01
8.018059913424934182e-01
7.137564707039257828e-01
6.398163370545625339e-01
5.507192602897174050e-01
4.701395919455816919e-01
4.240177442123985729e-01
4.095082098855131747e-01
4.021575659823882765e-01
3.057280635767874455e-01
2.357099079010424314e-01
2.422518385057377266e-01
1.678407999982983179e-01
1.774556065923199588e-01
1.038487617535597818e-01
1.320045721023776486e-01
1.022508689300352380e-01
1.510275113980560635e-01
9.869228370451288423e-02
1.271153515190325822e-01
1.812212512112422735e-01
1.536213962412625311e-01
1.506440398953258764e-01
1.518272890809274356e-01
1.430877704055288635e-01
1.903177200911334022e-01
1.220601084220065968e-01
1.106914116995600939e-01
1.377913824419262079e-01
2.183212698510366978e-01
1.863363974063896034e-01
1.741019477609060118e-01
1.891383178791244679e-01
1.770645354516341974e-01
2.481416027666599189e-01
1.811033700121460754e-01
2.507063836076552366e-01
2.272576861049565577e-01
2.441072251080405597e-01
2.828616550347642922e-01
2.466815939781109579e-01
2.295948516389670346e-01
2.520850318271281587e-01
3.075476480580163763e-01
2.994821170548530587e-01
2.296480982792850623e-01
2.424191849837367685e-01
2.453402516223776864e-01
2.665236741932779929e-01
2.238811924905311779e-01
2.839444441067446312e-01
2.412536818194278565e-01
2.767197266159598934e-01
3.201919618690690084e-01
2.531831967045374276e-01
2.337020348029090755e-01
2.558217608072004823e-01
2.674497177166373363e-01
2.998351897428721546e-01
3.077520091320092299e-01
3.099845207988163320e-01
2.719350069351484933e-01
2.561743299102122728e-01
2.704762947422491015e-01
2.761996946052069912e-01
2.537413627481641676e-01
2.544695050945028902e-01
2.704310167927418407e-01
2.273585202162786145e-01
2.686599146575618935e-01
2.215248145602337349e-01
2.353938983334202262e-01
1.936781613149887449e-01
1.617662450270404007e-01
2.446738145630580619e-01
2.116936547150493342e-01
2.402534464405349512e-01
2.434865971609374569e-01
1.766447509527620530e-01
2.153769822575896664e-01
1.646981534533131508e-01
1.621569679365558181e-01
1.754187857035306164e-01
1.267508464982330940e-01
1.126689900334447852e-01
1.999619361432682929e-01
2.025582558745576689e-01
1.689960775851906682e-01
1.272041979364481878e-01
1.555723238017072407e-01
1.213270397505141485e-01
8.640567568104121077e-02
1.363815807191501028e-01
1.477927581055648865e-01
8.251613427195629569e-02
8.918229734101265627e-02
8.862437639388975885e-02
