1.300043158391473108e+00
1.165788185803315224e+00
1.173119843526481354e+00
1.194615299686606624e+00
1.160176663574678857e+00
1.051798005474078312e+00
9.609164330768023010e-01
9.081000272068748824e-01
8.453103101840168110e-01
7.738494110949598603e-01
7.388387261994371347e-01
6.561807871222361532e-01
5.499173733709753487e-01
4.932472440064100128e-01
3.780042091716909192e-01
4.041063345534079976e-01
3.095469440864838107e-01
3.049011115674026273e-01
1.933318149794538976e-01
2.074756625339911897e-01
2.221007427848301075e-01
2.095467481102405438e-01
1.540091087163310557e-01
1.762986842461293224e-01
1.523896759864579731e-01
1.368947630519619929e-01
9.342851522212343440e-02
1.759193867586026083e-01
1.451502895659199932e-01
1.324865506221055700e-01
2.006163503125905079e-01
1.911707229012900577e-01
2.687989720723545362e-01
2.227651360464941166e-01
1.914198082473719809e-01
2.111775805639535264e-01
2.092229360921748771e-01
1.919861470352135224e-01
1.753438678485504942e-01
1.667807900297922086e-01
1.797293523561712403e-01
2.274354069852110305e-01
2.029758038640827045e-01
2.432733893434897987e-01
2.297196416579727896e-01
2.641151499486611987e-01
2.057095674333331847e-01
2.504108661484093501e-01
1.868203877791032863e-01
2.850448822457153919e-01
3.026478677127165673e-01
2.429907546764467352e-01
2.968750374325065389e-01
2.978543261363710837e-01
2.799798780139466370e-01
2.179545065260831138e-01
2.492369013986083792e-01
2.570624848214753677e-01
3.075902097947932901e-01
3.033557968041968866e-01
2.982302091326418658e-01
3.218035146280345260e-01
3.225607094841886902e-01
3.295172894925445517e-01
2.770233924390132496e-01
2.924079697260927868e-01
3.591255308758193876e-01
2.904069930830545099e-01
2.865269008275994622e-01
2.912799834455057635e-01
2.808515775612647203e-01
2.989891689481705694e-01
3.362803988121802479e-01
2.770659681865971224e-01
2.471964146635897142e-01
2.875104469190595258e-01
2.427423327430419109e-01
2.880112972344403555e-01
2.544334897804321760e-01
2.706717140112021025e-01
2.722493892182855091e-01
1.902122181624989750e-01
2.220351118936210177e-01
2.027526705660121498e-01
2.058379121804262135e-01
2.736202990655954848e-01
2.019831823553756012e-01
2.217210865318182678e-01
1.533793810075535502e-01
1.906926448957454168e-01
1.869145279448915231e-01
2.031888841985924898e-01
1.984401696612511923e-01
1.633363632737473148e-01
1.588197466016453840e-01
1.443807977605409132e-01
1.593768158972412863e-01
1.677839513810956695e-01
1.668886595867630218e-01
7.991400609154825085e-02
1.551157996211877665e-01
1.425670760933598347e-01
8.339685663999711618e-02
1.847372794723487199e-01
4.677188114408751402e-02
1.061270282568759493e-01
8.783169860600646695e-02
8.357572239057678432e-02
1.168292418598903259e-01
1.197237984169853275e-01
1.126910965390650887e-01
1.131734929530935352e-01
1.212659473883068439e-01
1.153851056269785402e-01
7.889439808955869826e-02
1.091517825190786994e-01
1.039040337446885676e-01
1.000447562964499326e-01
6.045599752285095441e-02
6.529187674788086704e-02
3.257659820805240691e-02
3.064278812557056503e-02
5.234368909059743113e-02
6.220066180293618019e-02
7.063989041954975290e-02
4.552458009930887561e-02
5.058888046951848932e-02
1.021015931297625245e-01
1.108283434037898862e-01
1.076772472795268221e-01
5.828110015059652371e-02
1.047225079283487514e-01
8.741372490228699332e-02
8.991033157975392154e-02
8.356873804838498010e-02
4.823851431711338039e-02
6.717129081756402498e-02
6.143451551290009943e-02
6.032743387890173586e-02
3.365551230922762815e-02
5.905213158197255424e-02
4.585369785541586196e-02
7.076443213795649556e-02
8.400309105017607358e-02
6.086188303333886496e-02
6.123647300733388310e-02
1.051692723418535258e-01
9.172785620149521979e-02
5.564747952647710466e-02
1.239248646055363945e-01
9.495809027746773823e-02
7.259142818585706536e-02
1.322628737965046153e-01
1.173730610248037709e-01
8.921349272993700508e-02
1.168717709749648170e-01
9.858653149753091038e-02
1.435925190427032039e-01
1.527061971399824303e-01
1.731667045164860530e-01
1.512995386970928391e-01
1.663027963360264871e-01
1.940321410336851571e-01
2.066606488821782772e-01
1.633668493292527724e-01
1.523237499998598143e-01
1.981234357003590352e-01
1.921510383739620798e-01
2.292840470487711169e-01
2.256025199606783993e-01
2.433630183836075767e-01
1.732618695505092621e-01
2.199188416581438210e-01
1.669307433143014663e-01
1.811002547688000397e-01
2.249862639912494910e-01
1.996520015750512522e-01
1.894649850221777065e-01
1.652237245368829432e-01
1.915760476165402904e-01
2.234316295524801932e-01
1.547982729380857347e-01
1.875982471327179435e-01
2.400670965643480481e-01
1.917404602551595616e-01
2.077667742409819163e-01
1.706366593497460338e-01
1.775068961546421020e-01
1.625662268351180662e-01
2.083767285684198500e-01
1.657639354907985973e-01
2.088326632834834606e-01
2.337857331879141520e-01
2.012121476173179546e-01
1.988708177800988519e-01
2.700472847898488515e-01
3.147821989251187169e-01
3.440137114448075795e-01
3.621441734037647020e-01
4.245751302601727395e-01
5.007418483622138039e-01
5.019544347580655597e-01
6.359824464814363143e-01
7.020179808892552664e-01
7.253200183830476044e-01
8.811046046645440999e-01
9.179653495071607994e-01
9.301793227997691149e-01
1.032355134131894836e+00
1.122464070250446921e+00
1.094921314600865836e+00
1.243649301704712995e+00
1.247657959924489468e+00
1.241335634586649528e+00
1.288153468844510874e+00
1.244410843427013580e+00
1.212181076322519369e+00
1.177493465693928210e+00
1.109904389382026180e+00
9.958855575562672868e-01
9.745553796870981556e-01
8.955087007859975357e-01
8.325356206038214690e-01
7.845623701365637137e-01
6.290859833012515390e-01
5.790762061500971392e-01
5.140336424790152847e-01
4.718484529214456713e-01
3.759120733193570540e-01
3.531348952719129408e-01
2.909965914738366077e-01
2.757030169908397665e-01
1.623631447350687429e-01
2.794161944176701828e-01
1.544845136289765830e-01
1.944593894961819114e-01
1.761399597414631535e-01
2.128046716341096267e-01
2.185366592071306402e-01
1.326073730864774369e-01
1.595353555345125629e-01
1.487674275324177842e-01
1.556209429617489981e-01
1.221973975476989271e-01
1.931836360198368463e-01
1.733699535582529094e-01
1.558104857000738586e-01
2.040663870016130588e-01
2.100062774740855398e-01
1.821906380112483237e-01
1.698597821333533986e-01
1.687633280432414007e-01
2.164181102863469985e-01
2.505058734050576996e-01
2.834606434390923857e-01
2.162815953318930340e-01
2.351980516834726864e-01
2.219362626554854112e-01
2.323242410143704639e-01
2.675852509040468341e-01
3.085403767284608523e-01
2.480621279567934989e-01
2.729589906324033088e-01
2.488921941287796646e-01
2.987782694543226203e-01
2.865982817162120444e-01
3.030654523134348466e-01
2.121240223673832581e-01
3.025740277252172983e-01
2.752613851569750691e-01
2.566816401633281730e-01
3.047515868719415377e-01
3.303274264818836237e-01
3.358568979694778189e-01
2.005860087514322043e-01
3.207228197861862751e-01
3.442407007068432612e-01
2.354120738233649313e-01
3.190999431331354996e-01
3.056143015594875445e-01
2.992176199595696362e-01
2.661697192233919984e-01
3.062482906223917833e-01
2.730981237099605607e-01
2.967646554262608483e-01
2.695398969951797175e-01
3.105856621331519185e-01
2.774860321999713109e-01
2.672713529987058023e-01
2.878634259785376459e-01
2.694884470695076417e-01
2.824498267900084070e-01
2.408103905362876662e-01
2.859419464640289288e-01
2.582238847156561601e-01
2.761873232990603166e-01
2.215280828315841222e-01
2.650901620678050574e-01
2.354335029808943547e-01
1.911604992817365067e-01
2.010160317383098416e-01
1.878469546936829826e-01
1.976880294511123015e-01
2.623199788538451704e-01
2.103280934761741772e-01
1.813301541256879257e-01
2.299432695375669966e-01
1.594430640692497958e-01
1.141493439178012381e-01
1.941497108908483704e-01
1.199906402695375685e-01
1.626796205569901732e-01
1.343274625044580395e-01
1.014004564134341618e-01
8.109894436548945040e-02
6.487032430498770874e-02
8.773651403228119317e-02
1.000114427876444556e-01
9.524996907398464163e-02
5.889652232344787242e-02
8.223473371558850942e-02
8.293742599720307918e-02
5.539523663518847174e-02
7.540393481512693008e-02
1.067811174524766205e-01
7.313166215400393466e-02
9.708001388363479700e-02
9.337886682094917457e-02
7.492954191325390534e-02
8.402937625970113844e-02
7.144749783226109208e-02
5.209497271249971528e-02
9.784982725868528186e-02
7.056478160103032971e-03
7.217647461494829109e-02
5.658812379268730874e-02
4.616387660335496967e-02
6.285002413897694540e-02
6.950141487523811556e-02
2.375750387997647636e-02
4.561195018379957805e-03
9.453728676098560602e-02
9.749917787190004459e-02
1.819409213173772341e-02
-3.174136695131071773e-04
2.070321731762361436e-02
6.955074407949418669e-02
5.055773399863217055e-02
4.634171931120283083e-02
2.448058042322981409e-02
3.379316785011907825e-02
4.338108312985296255e-02
2.429726875979394338e-02
3.298872924631948700e-02
4.735663840297706095e-02
6.576497756055643684e-02
8.996923545419467649e-02
2.775713854000187719e-02
1.034858726037544557e-01
5.370795197763784945e-02
8.460794851759710633e-02
4.035293407417030881e-02
5.755142620430364619e-02
6.696965278399458210e-02
1.142970080916966835e-01
7.385726155021096750e-02
6.082043151011264775e-02
1.095525396356332726e-01
1.100556338067296969e-01
6.414255971638599396e-02
1.069326942217913301e-01
9.971577975099282787e-02
1.330367104902396846e-01
1.283464190024637963e-01
1.334375931905001644e-01
1.478224728291927526e-01
1.499863167028986366e-01
1.385119911700581630e-01
1.453130779186282417e-01
1.187180335945403759e-01
1.380264613759987768e-01
1.789578893117540204e-01
1.591714011345475299e-01
1.737303627176796095e-01
1.628578244513523843e-01
1.435906097411996651e-01
1.691386891026015749e-01
1.614443033737125166e-01
2.229151304800900679e-01
1.982850646278483953e-01
1.903898779363258076e-01
1.921623696787537749e-01
1.636379865279592172e-01
1.730249842532831095e-01
1.336946795436982638e-01
1.919769845702263833e-01
1.756787770891108380e-01
1.128834881968554249e-01
1.014021847235891671e-01
1.819737074893466866e-01
1.369627902098456418e-01
1.648173174831664145e-01
1.772118867360839012e-01
1.932552843861330416e-01
1.596573244522500601e-01
1.864044656357642937e-01
1.692629505648012012e-01
2.232439253494860609e-01
1.959133338801892221e-01
2.379335102864829632e-01
2.829536128485951596e-01
2.614927678865770488e-01
3.450021927162286728e-01
4.247527704993056541e-01
4.396094572680145918e-01
5.730322395468961938e-01
5.750848287284627824e-01
6.224084415440254148e-01
7.556315936725989113e-01
8.534835375590010820e-01
9.569319080436409219e-01
1.060938935018070017e+00
1.080151583740946331e+00
1.048679893575267252e+00
1.147849175773232755e+00
1.187738601721134657e+00
1.218573918851304505e+00
1.233262739843462796e+00
1.248540716263945027e+00
1.200686315535355098e+00
1.146458208446491822e+00
1.055687884398180287e+00
9.748256060028663850e-01
9.509373438967034797e-01
8.928399585870505639e-01
8.110486771433482733e-01
7.909798281339153192e-01
6.713545306704901128e-01
5.858716193501078973e-01
4.539571754441297236e-01
4.700005095123991339e-01
4.155876980597698056e-01
3.177180618780433008e-01
2.331120412114954243e-01
2.413371431354899843e-01
2.507996270761215230e-01
1.867776498713754896e-01
1.368818718702688175e-01
1.746359208582671796e-01
9.801848710701902001e-02
9.404736701577734448e-02
1.168386923269832262e-01
9.245492035809510512e-02
8.602953849485221738e-02
1.291098587327942082e-01
1.154216411741227355e-01
1.327351385956157537e-01
9.935610453789296692e-02
1.521319740713765190e-01
1.643188825375390683e-01
1.871615770737440620e-01
1.911831952887317609e-01
1.842127646766795745e-01
1.379260395590340138e-01
1.765751410953034506e-01
2.012131252900165035e-01
1.701981242336706446e-01
1.662820636724184897e-01
1.941864260341172876e-01
1.303319349035538532e-01
1.664163788146019729e-01
1.653977930083626591e-01
1.806483895020285502e-01
1.851192696381549763e-01
2.108082512596217706e-01
1.809442127798190081e-01
2.018564281728973120e-01
2.205154608828228113e-01
2.113522519439708647e-01
2.218893614618324406e-01
2.221619998460236667e-01
2.553905661299528118e-01
2.215195377910602614e-01
2.179082493874615056e-01
1.618804936811628625e-01
2.403676270079966037e-01
1.967014707504335103e-01
2.821291028868494477e-01
2.237713831903896666e-01
2.072176749552602226e-01
2.701899235884683836e-01
2.053962980436959129e-01
2.194998675677823641e-01
2.099625699607036156e-01
2.939005887347720392e-01
2.244071971553283640e-01
2.466428848105201854e-01
2.398575052193724078e-01
2.481373162598746185e-01
1.979992223127746420e-01
1.729784536703192765e-01
2.716167244964531879e-01
2.701897797593167394e-01
2.065725180851132881e-01
2.067421929486156773e-01
1.919264509722955481e-01
2.460351872360920789e-01
1.430342733689024537e-01
1.786619860247122549e-01
1.935291550003436500e-01
1.811560458322243883e-01
1.523330237188973424e-01
1.696101799142962219e-01
1.352663372448523471e-01
1.571288219369117445e-01
1.657987239680709379e-01
1.417815078524334860e-01
1.406894558038193355e-01
9.881664597544792539e-02
1.426368134276759791e-01
7.655618115133332180e-02
1.624960073664965532e-01
1.281475103244363589e-01
1.928024464261050008e-01
1.117442790321271084e-01
1.045068290171498465e-01
7.618497687455826062e-02
1.901110396024850366e-02
9.439595907051817614e-02
6.454384413845955237e-02
6.669872430430161259e-02
5.155499509809099296e-02
9.466393832318877044e-03
6.089956440084391687e-02
1.911410874968928059e-02
1.287324563391080076e-02
6.466567428764616321e-02
9.886274492063045274e-03
7.871583525955420935e-02
7.984493581298254816e-02
3.851795000602633440e-02
2.597903131347104738e-02
3.282739915525351160e-02
7.573181708601973983e-04
-2.711231688948418858e-03
1.458978822428092653e-02
3.565336452608319773e-02
-4.222604277896455788e-02
-6.966982095779045148e-02
-2.596222613003572668e-02
1.270926670649097368e-02
4.720013644834042399e-02
-3.182550727886700181e-02
-1.062684227470753716e-02
4.762127200073570238e-03
2.227564420892878816e-02
-1.957976750311635206e-02
1.978377832977882070e-02
-6.943814974843968979e-02
-1.594791733799722638e-02
-2.240719316548532569e-03
3.613928732721226333e-02
-1.976489366110796564e-02
-1.677829497319864235e-02
2.698861650511224022e-02
3.812307909386664084e-02
-2.097089794281304861e-02
-4.189059502235976951e-02
1.840622752992129851e-02
-1.027098249418234924e-02
-2.056442289638735210e-03
-1.360564141423247983e-02
4.304644467656890128e-02
-4.344297141145602587e-03
-6.723999077436593197e-03
6.419190897763039222e-03
2.056683014074039278e-02
2.823512499129797459e-02
7.176098776811523638e-02
6.508244694972518951e-02
5.573032633840928340e-02
8.820385553958365321e-02
3.962234993339622258e-02
4.128289047557874569e-02
6.810445209067819694e-02
2.632330854921877475e-02
1.321192930262589382e-01
1.250130880823231150e-01
1.051858689609847242e-01
1.490066493539466408e-01
1.268453101454451171e-01
1.081368362120016940e-01
9.034952037432902872e-02
9.005499991629450918e-02
1.341038535480908178e-01
1.349161728504029711e-01
1.102073448865219796e-01
8.829520953538823325e-02
1.207642365374962667e-01
1.376647656793762997e-01
9.129176867500082837e-02
1.418317498667173160e-01
1.396685793739427806e-01
1.078874980213962581e-01
1.105455186782219879e-01
1.275374298537435558e-01
1.321209162582546726e-01
9.091952202425968022e-02
8.082543924036558747e-02
1.425454567321692012e-01
1.676489355903065803e-01
9.999568071449869977e-02
9.552500933351287804e-02
1.229393465222041737e-01
1.065007887363185607e-01
6.420812184168493697e-02
1.067089104845606040e-01
1.027569309867088498e-01
7.096287672139739433e-02
1.402041390969345214e-01
1.920491262753138140e-01
1.701703794145059956e-01
1.197152983157044881e-01
2.306432041874969530e-01
2.434145829810307748e-01
2.775273800799410440e-01
3.074960587315672678e-01
3.652732986438239626e-01
4.015377057397068183e-01
5.273617192789431529e-01
5.721715612732921619e-01
6.435879801606100292e-01
7.149331673723288150e-01
8.707229176864670350e-01
9.255028078045050011e-01
9.843300224327899972e-01
1.001088965266032194e+00
1.129231866979157450e+00
1.120160624673605332e+00
1.178398015775091734e+00
1.127786047047356632e+00
1.187291313898208189e+00
1.174480776361337631e+00
1.114487796255971608e+00
1.049263020520537104e+00
1.056803631593330239e+00
9.914515176826828036e-01
8.590842024803143628e-01
8.008429343623405527e-01
7.895685723731422634e-01
6.395848317780900016e-01
5.727373385640582848e-01
5.062765529354116278e-01
3.970446237445129367e-01
4.206568625862432409e-01
3.550328455336798084e-01
2.611766193637202749e-01
1.564009777528014011e-01
1.872251948268769950e-01
1.707959927430993119e-01
1.163861117592419891e-01
1.461017592237337515e-01
1.138024724046727970e-01
6.307892591455309395e-02
1.997519792335912536e-02
1.148214429681448934e-01
3.442400036289465504e-02
6.582484600035509725e-02
7.582910564433739675e-02
9.490169177573243298e-02
1.013073825171929565e-01
7.194254266961863653e-02
6.932281963658798452e-02
7.422546852783300231e-02
8.100883996461981373e-02
1.377397961474380317e-01
7.583573917767942596e-02
7.334827530672283213e-02
1.184150468664132982e-01
1.454194766342949141e-01
8.536531647371012332e-02
1.597366479945719897e-01
1.728071127227587822e-01
1.669155517556878965e-01
1.523296307575454922e-01
1.829855270122058841e-01
1.738250864529603812e-01
1.245469659330709772e-01
1.504182482527131048e-01
1.860749898043443096e-01
2.136664188729598401e-01
1.410682135868367437e-01
2.090349921704588720e-01
1.527806932560161202e-01
2.330958992593173129e-01
2.098737613630153320e-01
1.929124103303385962e-01
1.746760814647257132e-01
1.980082895468548432e-01
2.453166131672592232e-01
2.060668973418255667e-01
2.095885998313613274e-01
2.238990747534096715e-01
1.855741993571601023e-01
1.808936712984949013e-01
1.869653468058412593e-01
2.001915117830992963e-01
1.957738311811418608e-01
1.910044010003051906e-01
2.145820634643342273e-01
2.351849792623156854e-01
2.279497331844967112e-01
1.939409744033571414e-01
1.967229713592120732e-01
1.805440056650659819e-01
2.280475714344809834e-01
1.827529735884537709e-01
2.119420671175445969e-01
1.758489428943128541e-01
1.856188154423973891e-01
1.704949356766700952e-01
1.572685333804130781e-01
1.435173012829787931e-01
1.364588345587135765e-01
1.366724584605277792e-01
1.348390184111508405e-01
1.815553480060274338e-01
5.819789692299492945e-02
1.135653337836173005e-01
1.052833906108442963e-01
5.710589411852450004e-02
1.082252648380653270e-01
6.622433306689687327e-02
8.348941174260719744e-02
7.292669021232005278e-02
6.828201219051419080e-02
5.107379039338841992e-02
6.745372882427000394e-02
3.195397134719252935e-02
2.115526374359793377e-02
4.615247539303768409e-02
6.180564992541857233e-02
6.565414432800351086e-02
3.232054768335134581e-02
5.039466651524564245e-02
2.607096132177433995e-02
8.786494517184140207e-02
4.745588354050785107e-02
-7.538412209452012569e-03
-1.351852941180285705e-02
-1.191095408364178931e-02
2.760385911655310887e-02
4.530509698725547485e-02
8.185470277699030683e-03
3.952335767701453673e-02
5.523969348268688295e-03
7.865142402792721366e-03
6.583972179761483912e-03
3.306724300598706812e-02
-8.201395633745826863e-02
-3.652242876232977831e-02
2.707935724806387334e-02
-5.360494041185846770e-03
-3.671969273102386466e-02
-1.402740724701662806e-02
1.808489885091639493e-02
-5.443844727502943071e-02
-2.952819763471570963e-02
-3.381502269482621753e-02
-2.091244793355095249e-02
-3.849628592930681020e-02
-2.355531706754333821e-02
-8.503654817274747257e-03
-6.326035320991187094e-02
8.605209032858794627e-03
-3.667145831790473431e-02
-8.112069469161277413e-02
-5.533814070508719096e-02
-2.572077563581498180e-02
-5.373305598629349311e-03
1.132320279279121211e-02
-3.921676637367657592e-03
-3.445738473387013889e-02
-1.148348324292917250e-02
-1.829881735518414099e-02
-4.140281043497860691e-03
2.595972643618327941e-02
-2.462950819308633299e-02
-1.715928315482943139e-02
3.758145068388979437e-02
-3.720654604458098480e-03
-2.103027322134041338e-02
1.976675945681992397e-02
1.150471692343704722e-01
4.419255358443431592e-03
4.686637418373928998e-02
1.220746942738848984e-01
4.381974072852378582e-02
2.642225245874438300e-02
1.061817183478458576e-01
9.850640463370322064e-03
3.363603885189377085e-02
9.894435854595279300e-02
1.051355518681865442e-01
7.772288671723638631e-02
1.168947680413006396e-01
6.818337317668365927e-02
1.755324642593168033e-02
8.718454966352040536e-02
5.722815410290807425e-02
7.166422281833215169e-02
9.308461020882180526e-02
1.075308349664370750e-01
8.785722028159689834e-02
8.814639001582705302e-02
9.797976419027465411e-02
9.081431874673906446e-02
1.543123136851031751e-01
1.016535102719773459e-01
6.174146316900216286e-02
1.868699569844660124e-01
1.216038528369036698e-01
1.219769492699066676e-01
1.287639073890433916e-01
1.144963763983541938e-01
9.439579639291681423e-02
1.155991972140640589e-01
2.951057974368830744e-02
1.095207204480545815e-01
7.118326922278704616e-02
1.291872718959440058e-01
6.656610823245955044e-02
1.290350834840677807e-01
7.390565990850114786e-02
1.225591015791409333e-01
2.020134929645872046e-01
1.618683360262836435e-01
1.761327502627745289e-01
2.281861091676120057e-01
2.695535173871522194e-01
3.740111713387039294e-01
4.376464259467882090e-01
4.900577391184960385e-01
5.529894317256962566e-01
5.835136360053632121e-01
6.966482465869660023e-01
7.688426489264026387e-01
8.101961842588816243e-01
8.770019871171956805e-01
9.597610649678199879e-01
1.034931352132298699e+00
1.135081448027664308e+00
1.171756255624334608e+00
1.192344461249440268e+00
1.189065510284629923e+00
1.185244576358093438e+00
1.079175397195756059e+00
1.044497473273907406e+00
1.037820828308488874e+00
9.790269031723570770e-01
9.183694672770946754e-01
8.432789520585067811e-01
7.296652679778813377e-01
6.679314713442670026e-01
5.954362076059650510e-01
5.581640206895620571e-01
5.010487568086579024e-01
3.835149970574610045e-01
3.316378577158473062e-01
2.892452627223575656e-01
1.933717372317641514e-01
2.126804652628065395e-01
1.942774422378821253e-01
1.146548926674456625e-01
1.112091943938832289e-01
8.981266471446207322e-02
1.046788453239982097e-01
1.100828128118655352e-01
9.827333556240498702e-03
9.804875957028735822e-02
-3.375614275733587744e-04
7.811475448835181190e-02
1.000360556427457859e-01
7.544969966736672640e-02
6.073006486609596605e-02
9.796163692448858762e-02
4.605004710087944042e-02
1.283030528921710323e-01
9.515493223563145642e-02
1.318238355398238526e-01
9.078629040593591548e-02
1.576792213716099456e-01
1.216493465805195962e-01
1.265181762644446151e-01
1.224103724528320114e-01
6.852843570080641156e-02
1.527375401565193025e-01
1.543537342574263782e-01
1.303247074155799712e-01
1.225708207594772003e-01
1.968619833482747328e-01
1.876756069715964648e-01
2.218544902790958728e-01
1.776016610798598627e-01
1.869963485112182133e-01
1.877068620303135316e-01
2.281743794020638094e-01
1.559347662834200954e-01
1.706233804312106417e-01
1.985371895704355627e-01
1.915906207866746036e-01
1.872587948316432882e-01
2.529102765140528453e-01
1.938363613365944316e-01
2.099143856838748823e-01
1.985788588828783230e-01
1.759769959494141556e-01
1.956479302243901708e-01
1.818900111090501759e-01
1.693136144061709869e-01
2.076989200288087978e-01
1.632544867992319348e-01
1.879242176702454192e-01
1.688981922607802888e-01
1.745192760750455818e-01
2.027157364510377147e-01
1.629135374380626389e-01
2.148635642267913703e-01
1.626594824897223401e-01
2.226090176798835585e-01
1.059325723764154847e-01
2.020627109635735885e-01
1.686225535649854557e-01
1.584583391670040808e-01
1.391460360551849684e-01
1.278977727974550116e-01
1.670685979294656287e-01
1.421519078074851838e-01
1.756897441818172645e-01
1.558770796033844275e-01
9.550610811903799402e-02
1.323559782457854883e-01
1.348710197220188423e-01
1.009896191805114418e-01
1.169581261126746152e-01
8.810282368753510895e-02
1.050601961422848035e-01
1.173684726997854810e-01
5.728990836421350014e-02
1.085088835012420067e-01
8.541179303006163348e-02
4.739948449613935050e-02
6.830278271142467550e-02
4.964341091636428199e-02
6.186498421583677687e-02
6.694930790445495494e-02
7.183462622007613652e-02
2.696038606016182282e-02
6.414707532464963835e-02
3.248370408834874018e-02
3.532353189906842911e-02
7.161618075924855442e-02
-4.004259467033720321e-03
4.592637254504053357e-03
6.640217086709218619e-02
1.512996690497406954e-02
4.880322383159479277e-02
4.142557321468848253e-02
3.771292565195934199e-03
-2.642682066813540481e-02
3.655869631185972718e-02
4.434203994520395653e-02
1.233695849339545153e-02
-3.074232569350279429e-02
-8.302736892139390978e-02
2.822228608152553553e-02
1.448284045340014412e-02
-4.201084248761301210e-02
1.462214845877467251e-02
-7.254667789027439972e-03
5.950009102785926152e-02
8.044648371666712761e-03
6.799707524973989947e-03
3.038296884282205151e-02
-2.550948060106495927e-02
-7.714725395593230450e-04
-7.017319273865667284e-03
-2.534730468713181778e-02
-1.570823157193892983e-02
4.175976982090757322e-03
-4.171709260146047593e-02
7.760321303861013320e-03
6.158025672427501485e-02
-4.953986789309219874e-02
-2.953857478715065515e-02
3.198198192260617856e-02
2.747948599015514332e-03
6.764352353551061209e-03
-2.761499264158202849e-03
-3.114955972685289412e-02
-3.116346429222519726e-02
-3.773930214418041995e-02
-2.937034942871249998e-02
-2.703132262379347867e-03
5.123509201949411063e-02
-5.369537689714078132e-02
-9.175950894010298509e-03
1.988323250691513902e-02
6.775482666845980551e-04
9.644222001946264888e-02
4.209034472479335209e-02
6.114629340556321235e-02
6.364975225693314531e-02
1.221926437879928273e-01
3.588042311532708972e-02
1.444006452038748556e-01
3.288943193741775128e-02
1.033233292805456893e-01
6.453677811589796087e-02
2.164574796916587246e-02
8.222956017498354864e-02
9.331725921385594646e-02
1.102603667046030689e-01
1.223369358144824615e-01
1.590836602494332119e-01
1.006613605405327072e-01
1.562305984890826616e-01
1.462008292916444629e-01
1.312252291496766587e-01
7.151118038857066928e-02
1.242528824858012970e-01
1.412598706013071248e-01
1.653123163324154710e-01
1.666615410651500206e-01
7.660657622907389441e-02
1.511371563572472543e-01
1.576904893891971360e-01
1.508980877211837934e-01
9.289611180943423141e-02
1.245384343486892198e-01
1.531904996285997356e-01
7.169904136861293686e-02
1.026048451259794353e-01
1.235778271984474402e-01
1.394681480047899880e-01
1.045228726061273178e-01
1.129690382923374814e-01
1.797477450493137063e-01
1.825897657361815196e-01
2.046484826632402887e-01
2.906368111227702888e-01
3.001522238588547609e-01
3.177793301479926447e-01
3.127062228302935898e-01
4.031366445487802319e-01
4.050307160798878869e-01
5.360544796650621446e-01
5.907282162548597171e-01
7.338863912142910007e-01
7.160467104667042060e-01
7.964497175887723657e-01
9.033879569543608046e-01
1.007504140989099906e+00
1.058901905647633646e+00
1.119339636732078480e+00
1.136910058048495653e+00
1.184909822019777570e+00
1.218455283203544015e+00
1.204170465650539201e+00
1.195214082403522227e+00
1.189880782403166748e+00
1.099503605529009054e+00
1.043930198027180234e+00
1.052705857548662305e+00
9.689314593395246256e-01
8.136605441647762893e-01
8.019083203786908642e-01
7.462817742481352434e-01
6.742650698926495600e-01
5.469506125807911401e-01
4.549604730852896961e-01
4.533264557536176853e-01
3.742582367246423680e-01
3.013989389479680980e-01
2.824032910502597971e-01
2.212063718291811532e-01
2.462636956847207015e-01
1.731728914004564412e-01
1.009967878917114176e-01
1.337845374648843344e-01
1.457771543515635482e-01
8.792732163284923408e-02
9.614666995627137169e-02
1.080713119835926966e-01
1.158902434967561540e-01
1.051022179018161334e-01
1.395993106168510745e-01
1.371371542393157728e-01
1.066133078608749729e-01
1.009926133749537158e-01
1.168033766910114846e-01
1.926403387287413393e-01
1.895443791605992412e-01
1.333638892876141957e-01
1.965319416865482782e-01
2.022779060307688115e-01
1.572766696445546675e-01
1.152962717321734804e-01
1.793496799408407782e-01
1.768525562138200669e-01
1.782395452980418682e-01
2.174132250647451137e-01
1.760358365470156283e-01
1.939676498689918427e-01
2.324963631015619370e-01
1.893308980291648069e-01
2.387798140024859350e-01
1.917450341210069076e-01
2.040583909585841071e-01
2.273693957783690378e-01
2.036023003839424750e-01
2.869201556974248501e-01
2.771755348390932405e-01
2.221520799698019077e-01
2.761388799750379985e-01
2.934209024961487167e-01
2.603348589223906107e-01
2.470022868344797229e-01
2.193303578171082735e-01
2.411962539542448491e-01
2.585273884594395666e-01
2.574425349422887477e-01
2.785430735725439311e-01
2.896571461599393715e-01
2.631063986249614350e-01
2.345464975386537254e-01
2.277491111821561276e-01
2.583087750427967011e-01
2.474694381683915922e-01
2.423306429852342403e-01
2.555047994363607300e-01
2.284242246774564888e-01
2.746873723110085375e-01
2.352464297870810739e-01
2.255306699768665490e-01
2.374127203692683874e-01
2.747135395687096970e-01
1.730688074179425051e-01
1.891882731093667003e-01
2.504074662271914553e-01
1.912372518867531956e-01
1.543123587784746287e-01
2.154191689218160066e-01
1.861941783011083207e-01
1.621263461716954402e-01
1.882750156991500334e-01
1.834967058754956581e-01
1.787796484061322799e-01
1.576990052033017953e-01
1.404601829034464733e-01
1.612229668506461877e-01
8.236941939005029689e-02
1.696143187290454768e-01
1.333792199265335654e-01
1.602289850287224593e-01
9.205199963517977924e-02
1.431720619320941967e-01
1.555508961567543258e-01
7.701924933331527612e-02
1.152842120384072189e-01
6.579357439657626538e-02
5.952883730081956482e-02
1.189288682058627644e-01
5.634508365902041183e-02
1.093150197700580029e-01
1.041620965098122575e-01
5.820854369335025369e-02
4.910898124272423948e-02
5.535933778430777302e-02
8.149583940784296821e-02
5.140603784627559292e-02
6.010757793945523120e-02
2.838922116074673804e-02
1.131881220059478554e-01
5.038272881940072945e-02
4.341894921358543935e-02
1.613476318361427297e-02
6.750548764324408590e-02
4.145867979645942447e-02
7.523486859174485786e-02
1.683198521995431587e-02
1.850896512241483743e-02
3.082424816099462936e-02
7.118839082751052261e-02
7.135308904016128551e-02
-1.385804239324978440e-02
8.405287371272032737e-02
3.205849520375226441e-02
5.053528383457073919e-02
3.395980236179679812e-02
6.792257996280837151e-02
2.785420379442489491e-02
2.274975563767720615e-02
5.008487935307066874e-02
3.443812929745702911e-02
1.142007565238381192e-02
4.886905184938217933e-02
6.699034241296182579e-02
9.197226290717892827e-02
5.360431889148219858e-02
1.367429516413420920e-02
7.257644102774159223e-02
8.811078108050716950e-02
1.073021751619570030e-01
8.230285859843400331e-02
8.049500388343422408e-02
1.215757830638018594e-01
6.121176351829502732e-02
9.662109028472062877e-02
1.078090602105935131e-01
6.419916409258431822e-02
8.173506288710301326e-02
1.169592272208618555e-01
5.223581137838198551e-02
1.318979170254356570e-01
2.143413319412732221e-01
1.078258832535304024e-01
1.380443121587430766e-01
8.094632792825232070e-02
1.063531894988663656e-01
1.880929294163469767e-01
1.678488198550432964e-01
1.683483239569182333e-01
1.532719816286800818e-01
1.791249007681164629e-01
1.898584566400663698e-01
1.642293379307237511e-01
1.613350698494192270e-01
1.518393804428664062e-01
2.476197475300009332e-01
1.750298556262896432e-01
1.731552298463718276e-01
1.890852906061103456e-01
1.820587981325879623e-01
1.652951781491299454e-01
1.305790434780712272e-01
2.214695657632183012e-01
1.634522762448352984e-01
1.924148585552468704e-01
2.047930957063921753e-01
1.697390213247568780e-01
1.770089978490846372e-01
2.231807389187219492e-01
2.274223822549632512e-01
1.439871304852067546e-01
1.691091020876008266e-01
2.004290195604057911e-01
1.383558214378955153e-01
2.256260831869241201e-01
1.753578623689014404e-01
1.879334844273015392e-01
1.933559420331406320e-01
2.281567005549175464e-01
2.472764036914438801e-01
3.147845485027163104e-01
2.749540186741553094e-01
3.849824519595401173e-01
3.702929212970262340e-01
4.607548424408841048e-01
5.381699071947780855e-01
6.022258423465315369e-01
6.646652214654914514e-01
8.007822161605526734e-01
8.580136916075176146e-01
9.208187532253701013e-01
9.410542170436263509e-01
1.092429107094835761e+00
1.125632542097389610e+00
1.148895635400047022e+00
1.226353686063617499e+00
1.226393243277996037e+00
1.282610395336864384e+00
1.229226153165996038e+00
1.204111655530975655e+00
1.166671201904370569e+00
1.122162432177473912e+00
1.120261896587536832e+00
1.034413607063783491e+00
9.605428562102118484e-01
8.932582182016041150e-01
7.844143927465088151e-01
6.708361575226415852e-01
6.446034668086706443e-01
5.803205756530911419e-01
5.218814670236482378e-01
4.321242537721313726e-01
3.340356072761767603e-01
3.564088036031539675e-01
2.790694224733015760e-01
2.236841112488138494e-01
1.746682213264543482e-01
2.042928724398670459e-01
1.963718373254267069e-01
1.767647407429188688e-01
1.851455299661604603e-01
1.900060442296203911e-01
1.313032243033140922e-01
1.553207224959348987e-01
1.865819040652280658e-01
1.368791465353103309e-01
1.545354336364480330e-01
1.574621740526893077e-01
1.913814338125121306e-01
2.081538451501284692e-01
1.513558205971030080e-01
1.655976752832947485e-01
1.980198927084758642e-01
1.331355735917474636e-01
2.055785796963992551e-01
1.810954328345288078e-01
2.025337255824165572e-01
2.094139989302104266e-01
2.448872414932922181e-01
3.049104030319108594e-01
2.281438898694287953e-01
2.728446518871482374e-01
2.203242204628339806e-01
2.460030209585181704e-01
2.449191170211223179e-01
2.820633147443658562e-01
2.575450564735501935e-01
2.664922021641993877e-01
2.828414783346392403e-01
2.364407657485276815e-01
3.063350404565906016e-01
2.253999067059761496e-01
2.479463742588591812e-01
2.382756034582464155e-01
2.859767087671700736e-01
3.484095860400968636e-01
2.822613666545530364e-01
3.437558545742105398e-01
3.371390349942757769e-01
2.965166787577243612e-01
3.180514892690821660e-01
2.952986638711863066e-01
3.024318442621226066e-01
2.859464551159195400e-01
2.658830489830251720e-01
2.454198356920114787e-01
2.942702318570318276e-01
2.956496378300878525e-01
2.929033933185255512e-01
2.379463137628523850e-01
2.752440486516998241e-01
2.456540620141746123e-01
2.323568749883747619e-01
2.414093284999235256e-01
2.706833731096887075e-01
2.356714904763986540e-01
2.739438530271119943e-01
2.500260536699325242e-01
2.215661400826072769e-01
1.958561259110667974e-01
2.318295452390253530e-01
2.582848371685098066e-01
1.820742499520907609e-01
2.435200086418521925e-01
2.346703547230979958e-01
2.493453470681887274e-01
2.401302478677039554e-01
2.335629349479490802e-01
2.106738100560469895e-01
1.319515066748440935e-01
1.874225282030058115e-01
1.667827031136232541e-01
2.307884975207394884e-01
1.605944314269819317e-01
1.760740121159234395e-01
1.429590631089023289e-01
1.830149722597548267e-01
1.707235006872101502e-01
1.286710231419896100e-01
1.357652824371425870e-01
1.016768147772833808e-01
1.515925460782013567e-01
1.677810912283797529e-01
1.340007438260318873e-01
1.355765403367163446e-01
1.076758533744968938e-01
9.468234153165661082e-02
9.656514924656950383e-02
6.879366776671903827e-02
7.483509246257416536e-02
9.745038409848003069e-02
6.796749011650257688e-02
3.597006999547977535e-02
7.168973841259954072e-02
5.783063979134691474e-02
5.842961956331069184e-02
4.466144866983716433e-02
-9.203637694611618847e-03
6.412466093202345840e-02
6.653148701699945766e-02
1.354983077617061549e-01
6.295637781602894667e-02
3.715966935047953362e-02
5.532572484135842017e-03
6.630931764966273290e-02
8.019356436346497530e-02
6.699685099756573503e-02
1.937008266897332492e-02
-5.395830361666006936e-04
4.154495576615989394e-02
1.242813896294352460e-01
1.782205428274320769e-03
6.621950562462380896e-02
5.627687486840463743e-02
5.688834032381565042e-02
4.567687624197835222e-02
5.265459346499812288e-02
4.706928571294578811e-02
1.024687213377589862e-01
5.930357263952461266e-02
5.874575006804345911e-02
7.485308587314958018e-02
7.152724837597788932e-02
3.398680582633805541e-02
4.881303823988409479e-02
6.360956377344226254e-02
8.200537666989608787e-02
1.107294414434973201e-01
5.966732518723173728e-02
1.073040157456491561e-01
8.861979769910391380e-02
7.764250643493184056e-02
1.551907936878170746e-01
1.322120694883597569e-01
6.305290136080957120e-02
1.853835064245286934e-01
1.645870142536636771e-01
1.826516107207386552e-01
1.900890595088005064e-01
1.177997883183464767e-01
1.652079175549063528e-01
1.959022559966976940e-01
1.777309410261949663e-01
1.828990703261612616e-01
1.466741672082857439e-01
1.835984070854081995e-01
1.686315091651405251e-01
1.742817678451376306e-01
1.714556522462914456e-01
1.541254717353451320e-01
2.030362776131346692e-01
2.048965054607815306e-01
1.959160526999197405e-01
2.369621227013778697e-01
1.780945149801910488e-01
2.333566548320762657e-01
1.849749430749809409e-01
1.493113346363368898e-01
1.844081264644584772e-01
1.774016160357144711e-01
1.803277669686552120e-01
2.189912631909592955e-01
2.671003882402361862e-01
1.772982723487678824e-01
2.122616125820540323e-01
1.537730728453070850e-01
1.813392936563586189e-01
1.731620486197992526e-01
1.515979647511662698e-01
2.282686375562469339e-01
2.660911222624825490e-01
2.363469990723509051e-01
2.386771276285956367e-01
2.965448059685478199e-01
3.082238241824736269e-01
3.275601716190130741e-01
3.745326622099537373e-01
4.363426223426078443e-01
5.207036008366719981e-01
5.608292589122930716e-01
6.233349189202200824e-01
7.365138585383150804e-01
8.116491738858941929e-01
9.011334020084692531e-01
9.645119346411846761e-01
1.016813651526850881e+00
1.047157848293180482e+00
1.109800553714795468e+00
1.186117305919252241e+00
1.217345382506062945e+00
1.307508879171999094e+00
1.239066553428292083e+00
1.237942432168872120e+00
1.269020824695703764e+00
1.186689513312367827e+00
1.137610237299415017e+00
1.081483285104233971e+00
9.459420180092108499e-01
9.394841080903432173e-01
8.703884924342901730e-01
8.100909440430891229e-01
6.924364232560606958e-01
6.035247291963137251e-01
4.787725651000210303e-01
4.947879100619071435e-01
4.195056519264008799e-01
3.300449039396445849e-01
3.203123890997621181e-01
2.955376268754970615e-01
2.543429566436687383e-01
2.365790520573293476e-01
2.325440947524035629e-01
1.994362358577757843e-01
1.917007285860530819e-01
1.139456506567058242e-01
1.575714704096357610e-01
1.623676018524684572e-01
1.899890688636657332e-01
1.528183637563075292e-01
1.700558359158326482e-01
1.801347045342472364e-01
1.464702841236636133e-01
2.030527005919775529e-01
1.604504911990863314e-01
1.663678583600427530e-01
1.654578903261597900e-01
2.684609726573783939e-01
2.197128278627547560e-01
2.118448780002479825e-01
1.493715686542985699e-01
2.110092940646596249e-01
2.074294019385230503e-01
2.557341889845569649e-01
2.038721122011155074e-01
1.900896653732124242e-01
2.089745312365882957e-01
2.799691464426521392e-01
2.524508329842176102e-01
2.870141686552521998e-01
2.595716880132182824e-01
2.364688816233463109e-01
2.912712488798668842e-01
2.954675683134962427e-01
2.144331542667743951e-01
2.740377688050619209e-01
2.749091590660823758e-01
2.941665795464765143e-01
2.722844733655982452e-01
3.282038139040120983e-01
2.623684162923585195e-01
2.993665058844076077e-01
3.022766796472710071e-01
3.031310312489997605e-01
2.373621650349705681e-01
3.264718665803307829e-01
3.158301331234363296e-01
3.380603005262002303e-01
2.990519504717700228e-01
2.601213255554211123e-01
2.555579930608056771e-01
3.082161765098501705e-01
3.300174341885852014e-01
2.858286544957895914e-01
2.727564028633937543e-01
2.935753870890492889e-01
2.568175267496086156e-01
2.352533995879677042e-01
2.608295753491473024e-01
2.685086609278308778e-01
2.785521295286370047e-01
2.675143145775510933e-01
2.698232516186043761e-01
2.767459898976463162e-01
2.107317422907316884e-01
2.104905535229745495e-01
1.776801854598704100e-01
2.844037689699048244e-01
2.631498415270939195e-01
1.847553192812994016e-01
1.968552494355483573e-01
2.189427170200471395e-01
1.632530044788882972e-01
1.836314619064891296e-01
1.224329751020149237e-01
9.877998315716224331e-02
1.350744289711376667e-01
1.486703536646680202e-01
1.429764742002057054e-01
1.045199960031453212e-01
6.308532866480992540e-02
1.405891066944049417e-01
1.098646338381381871e-01
1.494465619415553670e-01
5.555799802159969158e-02
9.877070122307403388e-02
1.744718080942429805e-01
6.249332225793625961e-02
6.920272800973258087e-02
3.443590469367751455e-02
7.262115266471907971e-02
5.313953457566587130e-02
7.434878242715185770e-02
8.341423624217708666e-02
6.245568813010810016e-02
1.069017891208624560e-01
9.892594765321943706e-02
8.552345400056873825e-02
1.178968884506246123e-01
3.362230174187037790e-02
1.321879547180882242e-01
3.048569121323719058e-02
3.507494656385323761e-02
5.062063619318288993e-02
6.543599867651941904e-02
5.436718982000026540e-02
1.638741461068498814e-02
7.918754157415638928e-02
4.285391048904672873e-02
2.540959897334665873e-02
5.306142224804923091e-02
6.040427105742551817e-02
6.671139102816625588e-02
4.589648328632812968e-02
1.276499315722788748e-02
1.275908290470888218e-02
6.668765023884467430e-03
7.357639946197183645e-02
2.221486608931518350e-02
6.071179844704438500e-02
6.615606176719335263e-02
3.403622019693666040e-02
-4.405422941434384426e-02
1.304603518196581213e-01
3.501441512413439039e-02
1.165697230419091360e-02
6.051822498512266640e-02
3.152614473470957690e-02
8.654767857330668973e-03
4.061094265052495045e-02
1.256482493087552055e-01
1.138514765790674954e-01
9.071220445840039170e-02
9.125353556957312151e-02
6.631487926924713172e-02
7.787125950202393454e-02
6.615087578194479845e-02
7.729811130394534380e-02
1.190296984918735312e-01
8.992588542149648756e-02
1.016816835368393873e-01
1.273549799784154668e-01
9.538605166777831823e-02
1.106760773038630297e-01
8.215421246181911497e-02
8.901957249578607012e-02
1.578723374843908622e-01
1.180685478358315804e-01
1.799445695858926941e-01
1.423489951596139946e-01
1.925436763720879130e-01
1.319544119301603868e-01
1.471112550369631511e-01
1.344741311680157925e-01
1.640095534784370424e-01
2.161681146828701994e-01
1.566248399255552592e-01
1.587102853888296694e-01
1.781210707366196466e-01
1.396575653407214346e-01
1.499261013824935984e-01
1.828162267271603025e-01
1.779638767002726663e-01
2.249381317078610609e-01
1.715453757360941300e-01
1.459440815066026242e-01
1.606088668593943780e-01
1.788756946177374740e-01
1.477729093910398750e-01
2.014574329677193132e-01
1.739797663846599785e-01
1.609015633118497379e-01
1.511868899117070064e-01
1.613921837512870272e-01
1.414207286365508076e-01
2.023828256397499359e-01
1.931403359362675043e-01
1.986156693729684286e-01
2.424290188889826059e-01
3.004083817341794416e-01
2.857655297863720412e-01
3.952855264787569212e-01
3.982444090020385019e-01
5.198709008962936196e-01
5.808658520379356149e-01
6.985577103050507608e-01
7.636044765452760785e-01
8.188399924828513310e-01
8.946281459617887455e-01
9.625986225519986839e-01
1.056589995935622417e+00
1.155513774571860885e+00
1.151704867975027025e+00
1.149272654500242963e+00
1.198543970828870320e+00
1.183833213609386537e+00
1.241350823168246409e+00
1.208130699661613683e+00
1.187914404590229012e+00
1.101532872322672052e+00
1.081206428261529240e+00
9.823839216650043227e-01
9.222581026050260533e-01
8.323910976847084253e-01
8.361507620464304624e-01
6.759447301286946042e-01
6.155249983330066677e-01
5.838259887546040083e-01
4.646523027815095963e-01
4.091335757857179067e-01
3.568473758716954602e-01
2.353911766941383654e-01
2.770124809593522142e-01
2.047590326788451820e-01
2.279059018532137160e-01
1.565305129829500652e-01
1.791983973293031496e-01
9.678258029007227869e-02
1.602170840488154335e-01
1.057939407178311170e-01
1.017640646285086908e-01
1.553679495777167407e-01
8.917646662480192832e-02
1.210091583711769836e-01
1.566260270997529014e-01
1.659092974051556146e-01
1.374056671221303150e-01
2.048451907808775396e-01
1.176932472524345602e-01
1.036315828630779839e-01
1.273524383678299732e-01
8.988458510476875218e-02
1.815497935774684213e-01
1.467363444843058917e-01
1.124905214152895905e-01
2.012802964383859639e-01
1.665955546557635614e-01
1.349677588293333175e-01
2.117268728242666653e-01
1.388593009942503398e-01
2.038826078872362779e-01
1.850199672905801229e-01
2.363075413635513100e-01
1.949502361532275407e-01
2.544141499575488519e-01
2.168195179273671169e-01
1.664879642210862210e-01
2.064432741011925088e-01
2.452167289512444948e-01
1.995169439828304025e-01
1.922818518417210298e-01
2.187954125900939406e-01
2.718460582412213777e-01
2.037286935582701131e-01
2.642173470629640142e-01
2.440655094821320703e-01
2.791453866873254697e-01
2.888089791245176396e-01
2.041995600189501214e-01
2.213448171674386178e-01
2.767682073520323915e-01
2.811913413142529961e-01
2.195687038933821500e-01
2.305738354674964352e-01
2.214629741891762926e-01
2.247602935067184449e-01
2.310183719954593817e-01
2.792387474952883752e-01
1.939288390117106520e-01
2.359792300228248096e-01
2.038374517647024153e-01
2.520161111356409855e-01
2.293503998796644905e-01
2.204342503490822613e-01
1.502838880822482404e-01
1.664671966305751039e-01
1.725733043402322142e-01
1.625175871201698929e-01
1.604056038645987059e-01
1.207713099026090919e-01
1.803315244151649233e-01
1.455729333094079037e-01
1.127608615714688206e-01
1.068811371930323134e-01
1.507705333288462124e-01
9.329518006606907221e-02
1.344110066445441953e-01
1.358886624985432279e-01
1.330193673621656303e-01
7.368907228003465648e-02
1.657760106318560966e-01
7.091686732775087654e-02
8.452968478046404832e-02
7.506406456378476866e-02
7.013133164445242707e-02
3.081607731792254321e-02
6.651138029183209510e-02
5.801532372474442478e-02
6.405044462157150065e-02
1.285713741920744557e-01
8.052711647167812292e-02
2.519127489668993719e-02
6.878916445655730572e-02
-3.170618961089215204e-03
5.041232193772199333e-03
-5.268835834987068562e-03
6.482002904018641792e-03
-2.453401588172772138e-02
8.883881258828839333e-02
1.361814162801728428e-02
-3.176520612092768869e-02
2.149180330409040246e-02
-4.045420144802108764e-03
-4.486374856557796831e-02
3.154724867500299790e-02
4.883427534960575050e-02
-2.884375272559118117e-02
5.685962097925649494e-03
-2.874613246579819578e-02
5.673352276924326781e-03
5.792989370899725987e-03
-6.818487728325207942e-02
-4.074156096545068773e-02
-1.179107513671311114e-02
-5.413815005986706563e-03
2.768018443503324905e-03
7.523364919212766067e-03
-6.011989822475851536e-02
-2.343309279542907936e-02
-1.816207191043672786e-02
-1.594763224708663218e-02
1.560906232311177685e-02
-3.711321311603373030e-02
3.441595148309169183e-03
-8.895129635706142124e-04
-7.145108129280576537e-03
-3.943323952272495547e-02
-6.455018449012039916e-02
2.285627452958434447e-02
4.121631227036409717e-02
-1.370744381084232355e-02
3.211238234305344164e-02
-1.006229036556255049e-02
1.125278905895586365e-02
8.617800377244572152e-02
1.800076059307928120e-02
-1.063500920430787006e-02
7.049960529444949942e-02
5.869758553905096710e-02
6.467912916844267834e-02
2.668458387190826217e-02
2.845328173945583725e-02
6.575494030509668186e-02
6.296936218489188053e-02
1.339389149685511204e-01
3.258981322762503907e-02
8.133594736626031940e-02
7.280946525274986647e-02
8.740325069965874938e-02
8.983336677309392004e-02
1.044640378737848874e-01
1.105143030293502526e-01
1.300358587384303211e-01
1.133269783550477083e-01
1.281467057435580204e-01
4.207376780529380883e-02
1.046242225091706668e-01
1.127071187263740115e-01
7.680216944936005263e-02
1.178326985255447601e-01
1.193894521256277097e-01
1.274536587725830505e-01
1.558048454241458547e-01
1.600735807659079690e-01
1.249712373363859041e-01
9.610480142732287512e-02
8.993152566990564312e-02
1.158881382065799076e-01
7.365981759851229771e-02
1.478741304875597073e-01
9.601549370159112584e-02
6.928492764577429130e-02
1.091413213500669888e-01
1.163009080922309535e-01
1.293360494108670156e-01
6.505677031891807238e-02
8.832979538403638864e-02
9.738770648567904309e-02
6.473927288313743866e-02
1.602182150920772319e-01
1.799739065042915698e-01
2.362195671741681713e-01
2.327030441100588209e-01
2.734903320937607796e-01
3.409591783586631841e-01
3.652169248120765155e-01
4.058273592690249121e-01
5.106344932248360058e-01
5.326894982223966402e-01
6.571347995390149910e-01
6.989465752219022887e-01
7.796409595014656135e-01
9.304529919457720233e-01
9.618716576119845652e-01
1.010786560876499429e+00
1.074267295225523000e+00
1.094669070674878286e+00
1.114561764899972829e+00
1.180406446142230115e+00
1.168275587056370135e+00
1.140022309177841420e+00
1.153911911055032657e+00
1.107253465419185900e+00
1.063556255418482754e+00
9.851082464541734973e-01
9.238420210354545414e-01
8.709506134221062235e-01
7.559185744571996768e-01
6.575796566043650149e-01
6.142404462267038179e-01
4.756864025192917289e-01
3.850448733435259951e-01
4.293522170065066090e-01
2.689983786869463156e-01
2.850826394154436505e-01
2.356109955164359393e-01
1.634181199889992997e-01
1.200588667014151761e-01
1.003955412273005166e-01
9.967593590192590225e-02
9.010092197473618114e-02
6.477618957779474052e-02
5.138438249977665684e-03
7.482707471573732394e-02
6.409978555472092832e-02
3.594622232964728853e-02
9.490176957188339868e-02
3.181921487826232242e-02
6.624806182879953986e-02
1.066992310484616291e-01
7.603156925191201232e-02
8.935715748901104649e-02
1.115173329262639929e-01
1.398415486812096264e-01
8.797173735841928854e-02
6.176147909262787172e-02
4.972907887487664630e-02
8.463362452703582228e-02
6.499131062192248232e-02
1.085788383633485288e-01
1.328256410237155516e-01
1.119489285105633447e-01
1.310270808967435308e-01
1.486416223605939724e-01
2.229510677742601588e-01
1.341910918508763817e-01
1.137941824804650226e-01
1.959589979623030942e-01
1.664623553394774247e-01
1.774634186722690576e-01
1.390308051394078537e-01
2.263086688828338522e-01
1.742233248344580432e-01
1.806995100536581134e-01
1.263372218757202181e-01
1.935371040544973387e-01
1.992860378261614440e-01
1.934635091345045521e-01
1.544966262505635957e-01
1.943133788601346112e-01
1.878681989178800082e-01
1.709817701660422129e-01
2.313891522939326706e-01
2.063726671642062693e-01
2.342963222236466025e-01
2.656944382152141015e-01
2.210304614199658513e-01
1.925895787257281278e-01
1.912698705737128635e-01
2.093919083326041541e-01
1.668800809277123376e-01
2.196168001698265981e-01
1.278526415291620644e-01
1.786643369598546194e-01
1.889220021998180565e-01
1.209229668463924490e-01
1.222560397907987984e-01
1.636903078606221640e-01
1.640971798770497758e-01
1.837308338921488371e-01
1.338711133886670845e-01
1.462420132223025970e-01
1.562821613547108190e-01
1.615103375887426140e-01
1.277365506340405465e-01
5.609407420356537360e-02
1.171161015132410332e-01
6.835226313545667010e-02
9.442454374098985248e-02
4.594148051426140411e-02
8.224784922978614632e-02
6.564386251918631621e-02
9.776471987767149097e-02
1.020665609683088226e-01
8.030431822218683791e-02
5.789969453808723604e-02
8.553375986095815287e-02
-1.071118297822418880e-02
7.223049669759204483e-02
-1.761496848914806401e-02
1.346285177056311816e-02
-3.601041272407602689e-03
2.804830229047966528e-02
1.073712592578208308e-01
5.514222429410228776e-03
1.690651304041319164e-02
-1.637961793291786705e-02
-3.866012878317973134e-02
-1.559646316410131378e-02
2.449869886754969805e-02
1.342518991448067578e-02
-2.787461425267496323e-02
3.069896901838670145e-02
-3.210661855182136287e-02
-4.418940196856759040e-02
-1.947058722194671201e-02
-9.536485295144614405e-04
-1.192603866900125015e-02
-7.615816294338287329e-04
-2.891146301026181753e-02
-2.523061147726134851e-02
-1.695788745944672160e-02
-1.357947831710697162e-02
-5.496800069684508461e-02
-4.351525066917833612e-02
-2.104589505194359028e-02
-4.362771669880068093e-02
-3.976097665188203789e-02
-9.234344236854416521e-03
-5.830370490519918431e-02
-5.471623105983426660e-02
-4.376068289718201831e-02
-6.347588753259211791e-02
-3.848862347515952242e-02
-6.092654790143904597e-03
-3.173814010839909328e-02
-1.495785756861767180e-03
-2.927098138543223621e-02
-1.720051142412775541e-02
-5.278730646725488668e-02
-5.446647146809958928e-02
-3.147637384293168472e-02
1.137748944007217766e-02
-3.961991503905561152e-02
-9.589533460862095793e-03
-2.072983625605643795e-02
-2.763056453752357755e-02
1.332144441665399082e-02
5.461114267835756597e-04
5.414239311944434724e-02
-2.189570945857463244e-02
-7.384930416587939805e-02
-2.512557499347625040e-02
3.687130023178922245e-02
-1.951082276544753580e-02
4.003715799352293436e-02
1.689566309237625075e-03
5.940974969276720252e-02
5.435208382175730352e-02
2.120733555522433950e-02
9.404855200961528827e-02
5.129379919031141349e-02
5.663388641133614704e-02
1.203933375330904776e-01
1.571925481627349519e-02
1.163602700850037142e-01
4.749516610793233506e-02
2.458214285131127969e-02
1.373110105488269950e-01
4.529923721470490577e-02
6.871162929225688165e-02
1.130925507192372947e-01
8.535642556703092187e-02
8.389525441410299045e-02
1.131677011593769794e-01
1.434154912011909588e-01
1.036749890229319015e-01
8.992360216367575876e-02
5.915411878120643840e-02
8.964310453326243544e-02
6.719779371257475487e-02
1.218710655088871275e-01
4.328681868618311501e-02
7.029042310491170897e-02
1.125921303598382273e-01
7.146033349208451291e-02
1.045931445376913904e-01
1.094006514346314435e-01
6.557434882899314255e-02
1.255784226367369361e-01
1.316051756664831651e-01
1.588877138529813937e-01
1.049264612433844224e-01
1.359750485002297338e-01
1.810217672252255605e-01
2.628347939297717151e-01
3.139349770213760715e-01
2.696627770477960651e-01
3.689656005492062962e-01
3.703888214073103868e-01
4.852878280196161187e-01
4.994866377933591672e-01
5.526377616270548021e-01
6.658205876784262234e-01
6.763679819592831599e-01
7.622018133098970027e-01
9.012174722582909636e-01
9.547963385889292054e-01
1.035483961888201243e+00
1.065968516437083125e+00
1.182355554635858175e+00
1.177343609909522471e+00
1.125529278652872556e+00
1.181723478836088637e+00
1.132536853920781628e+00
1.174155291668933510e+00
1.065451931265885221e+00
1.005659833029289629e+00
9.344522316148329288e-01
8.848282892731170746e-01
7.997673107313776342e-01
7.255462464297197656e-01
6.338999455364527913e-01
5.904721236187006062e-01
4.450049431088968221e-01
4.143257611069472990e-01
3.657300685381658645e-01
2.237913068712316100e-01
2.168573809936141794e-01
1.613148990199239907e-01
2.301629803300270227e-01
1.859606823703390255e-01
1.772803618675513615e-01
1.500413051049605540e-01
6.468853181779689321e-02
3.104799385725962729e-02
9.293956408920964196e-02
3.605669381283876929e-02
7.615735188166765368e-02
3.899841645787266442e-02
9.660962277639970064e-02
1.043909840117702437e-01
8.110306307921713587e-02
9.713489731144302197e-02
1.539789551469362971e-02
1.436933115526021765e-01
6.602687175878620141e-02
6.692227372215622805e-02
1.121205202940923906e-01
1.126751725462490361e-01
1.184769721786084751e-01
9.338695628600290899e-02
1.362164918850463091e-01
1.196256119570377058e-01
1.289040111932248933e-01
1.025650669639172757e-01
1.880921073738158478e-01
1.635067040656316972e-01
1.746645477003036240e-01
2.201889493610909299e-01
1.912694815808486104e-01
1.820998274186034771e-01
1.534869210070999856e-01
2.014884206027827140e-01
1.926234839325279280e-01
2.570944653070653119e-01
1.622524546974564164e-01
2.187428048214945797e-01
2.036014805241820602e-01
2.054888950841382567e-01
1.825644795293326350e-01
2.269429599108077622e-01
2.486336032449290578e-01
1.809363480365207832e-01
2.319597860575962067e-01
1.933702578211586309e-01
2.322813100844086653e-01
2.218979056845591380e-01
2.205540086347896056e-01
2.162236468562539482e-01
2.398093013882037772e-01
1.707009720321389368e-01
1.735046115356094487e-01
2.134711268681188101e-01
2.011643433524427649e-01
2.069146064153689069e-01
1.559040341735086488e-01
1.718930938010146126e-01
1.825483416488816457e-01
1.634192676778300490e-01
1.956602095960959242e-01
1.643872999296897564e-01
1.390749609204583737e-01
1.213825831531324118e-01
1.497016773691852709e-01
1.805148373891611313e-01
1.744776390637234886e-01
1.648871662373686819e-01
1.872134065201286890e-01
7.800464375991827959e-02
1.145501642717008939e-01
8.011016164832747422e-02
1.256498014775685179e-01
1.427729467525893359e-01
1.273426073371849154e-01
1.085962494579596760e-01
1.004855962215863430e-01
7.913921488451090835e-02
5.920415731504044543e-02
6.257011864024145109e-02
7.971186172990372965e-02
2.012509956172405315e-02
9.029190469932949631e-03
8.495363606864791972e-02
4.661565944183747312e-02
2.052309112975553990e-02
6.556269112536423915e-02
2.729225248625295752e-02
5.924132720474183100e-02
1.168881162291091763e-01
1.541951111803721575e-02
-1.314153397315758615e-02
1.266906511059696233e-02
-2.071980029089560971e-02
2.351316101696004218e-02
1.436412204114714125e-02
4.600399747102558445e-03
1.512517072832354412e-02
3.079374477254903653e-02
-1.006979122936860205e-02
-1.410205895871062196e-02
-5.039841739708735002e-03
-2.729649479785055746e-02
-4.191451802687980871e-03
3.137195811946022483e-02
7.768265813014863658e-03
-6.720276477223400408e-03
1.708405368516834055e-02
-2.037991412074495121e-02
-6.199551656675678785e-02
-6.835575052195355661e-03
1.023184710908408429e-03
2.104906304898030572e-03
-3.095125548129778331e-03
1.397851500377090758e-02
-2.081194879414958315e-02
-1.218177542791502865e-02
3.695753543694250964e-02
5.613182084503898217e-03
3.487391915254954566e-03
1.625565277569778269e-02
2.860566571839600475e-02
9.511401408225348547e-03
3.335103784134119814e-02
-1.588452506804177364e-02
6.811938453270584282e-04
1.126602143182210691e-02
-1.438637101259113496e-02
3.263854622242376435e-02
2.939831527934539529e-02
8.743515683814703093e-03
-3.700372959460659222e-02
1.245709257310323448e-02
-9.783686180732768800e-04
5.906889705857978901e-02
5.063206281035270706e-02
9.290398837051422332e-02
2.361229165011777612e-02
6.048212886869301641e-02
2.464916503564394332e-02
6.434971649973922347e-02
1.017254300830276459e-01
6.918490185383212310e-02
1.225334690305766167e-01
9.640584815297917332e-02
5.353420718702309178e-02
3.711172350877778997e-02
9.411908291386056336e-02
1.243295211113873699e-01
1.274678092790005879e-01
1.510032320176077913e-01
1.504101993146518823e-01
1.216614683294409971e-01
1.470848955436457328e-01
9.905446193030928437e-02
8.463875466063959518e-02
5.551648083591649574e-02
1.174433240034554737e-01
8.137873960311312049e-02
1.528237332596387443e-01
1.450869957832206791e-01
1.521672851521947978e-01
1.753949419508690766e-01
1.409385571086872180e-01
1.536915025778133881e-01
1.245211012335911555e-01
1.415226470266690850e-01
1.085118035267189085e-01
1.653443727246255712e-01
1.100744579577422194e-01
6.789544816467027455e-02
1.261419802468440599e-01
1.419609160912934653e-01
1.004220379449646816e-01
1.053200970681195808e-01
1.397580396529198854e-01
1.508406391924629053e-01
2.059131265360669705e-01
2.604722913323104239e-01
2.680078275607934990e-01
2.902220467141455318e-01
3.784007037581525457e-01
3.594824541036260035e-01
4.818922870452219120e-01
5.398663539397523525e-01
5.693718314589211182e-01
6.461374726882456176e-01
6.863278525085201309e-01
7.095965664435778253e-01
8.878270443064760764e-01
9.581170709032793553e-01
1.088528651517608026e+00
1.117125165314666324e+00
1.154572581859583114e+00
1.211686585787982606e+00
1.212670328415319299e+00
1.175000864776776011e+00
1.192264607436260615e+00
1.146680352983798556e+00
1.118785897305539123e+00
1.110780753164985812e+00
9.688651874190153945e-01
9.034592827899822209e-01
8.949198780038666312e-01
7.941850077208820746e-01
7.644999460539829705e-01
6.658039189983429029e-01
5.494924727620936755e-01
4.664435476540521597e-01
4.612633459394934743e-01
3.716910725586880515e-01
3.212916580125314558e-01
2.910054457916853021e-01
2.907572723644622492e-01
2.377614519202844445e-01
1.514313968045324088e-01
2.090603689919570962e-01
1.366694209654795711e-01
1.214143166757226805e-01
1.095711860741209742e-01
1.367460695685218108e-01
1.242090730208578325e-01
9.240960548036732114e-02
1.624228257926984276e-01
4.720123143460479287e-02
9.164341612396115222e-02
1.238751964261061156e-01
1.602750708424903470e-01
1.183204732645046497e-01
1.112085091122769626e-01
1.576881233804875437e-01
1.819335691911610486e-01
1.685546255056900311e-01
1.696016367152171633e-01
2.058956976364054725e-01
1.753527022338422503e-01
1.524702632539555458e-01
1.595052959836386064e-01
2.150058526782599733e-01
2.171279791866572717e-01
1.618947999949940653e-01
2.139193675022928176e-01
1.832318215599331446e-01
2.712347246228059561e-01
2.234753890754556382e-01
2.489890891820035757e-01
2.323702391799637723e-01
2.229323382207384630e-01
2.471270216320105018e-01
2.816213356291474845e-01
2.526495016000028238e-01
2.250923435120581739e-01
2.392175328623239172e-01
2.627512659075716961e-01
2.237237213576823702e-01
2.667976719086374571e-01
2.505979991166721321e-01
3.018272968253111754e-01
2.805592701248357246e-01
2.465114147519817389e-01
2.985476074492736109e-01
2.880536344694010209e-01
3.330836785902274721e-01
2.386609090956203494e-01
3.083147956636470011e-01
2.178376926251802681e-01
2.694938903411843167e-01
2.346811428286006973e-01
2.568573964055317349e-01
2.232726503151763187e-01
2.065798048712201573e-01
2.956547467099881477e-01
2.125401444849720489e-01
2.359402208641998011e-01
2.640340175098865871e-01
2.328013650156198211e-01
1.944342484124270409e-01
1.921484557344520505e-01
2.284114687110303243e-01
1.667226040290625821e-01
1.770163714225446994e-01
2.054655335141571393e-01
2.198703653966801452e-01
1.296045387083643585e-01
1.800424127992310830e-01
1.531469131441630938e-01
1.700684647116697257e-01
9.601407116429078181e-02
1.064705088878501044e-01
1.170689982953340147e-01
1.261510037454713629e-01
1.295770693962433051e-01
1.082222459391541519e-01
1.352572722356206736e-01
1.616206431699768187e-01
1.603110940254232897e-01
1.508659834600213356e-01
1.177162640555356465e-01
1.276132656491744122e-01
1.249266875243617292e-01
7.455056482641950200e-02
7.239414969365352837e-02
4.965705668828356012e-02
6.511926209653551290e-02
2.793440599988193315e-02
7.282016991189023403e-02
8.015274578186559751e-02
6.874058598371021733e-02
5.902847469101657474e-02
8.641936752526749310e-02
5.658161306618704478e-02
7.056922497809703376e-02
4.883277702799307396e-02
4.807971389703759313e-02
4.430111503242120663e-02
2.658508160529737124e-02
4.602807573345310543e-02
1.191106053244876256e-01
5.365058642849154097e-02
1.023037629520430897e-01
1.949703116011586648e-02
1.062089814052733783e-01
-1.779459199365584013e-02
6.516747405565982698e-02
8.330369343734264631e-02
5.039109884926450122e-02
3.190926048578867497e-02
2.321699071806299086e-02
6.452972206041188152e-02
-3.994088893856731493e-03
8.384581580238210236e-03
6.661143534788389886e-02
2.689681708424739720e-02
9.762450084092055835e-02
2.124309645279161621e-02
1.944730086339093930e-02
5.296968864968421009e-02
2.710780759833100045e-02
4.224210661133022404e-02
-1.457497272593128584e-02
2.806022815652954236e-02
9.181174792685847796e-02
3.909758164944939635e-02
2.172482751084932329e-02
6.537572208463716950e-02
3.599941656763844255e-02
5.289659040583059857e-03
