1.251638273754077213e+00
1.303227738419654225e+00
1.217154863576566770e+00
1.204366566408495265e+00
1.078259201447522742e+00
1.114736005496156368e+00
1.002796383676456626e+00
9.381391761210237101e-01
8.636155679880143099e-01
7.922193488705285835e-01
6.480904692629833042e-01
5.925938785905567885e-01
5.653082794857896554e-01
4.274077156580158854e-01
4.222091022696407570e-01
3.698117694513066711e-01
3.003033114261406400e-01
2.829481244799434969e-01
2.127990050339731987e-01
2.417036516756577713e-01
2.127223624311128936e-01
2.038326762046279161e-01
2.279650107623173994e-01
2.230388043558521605e-01
1.573975324632181927e-01
2.147040173028222088e-01
1.234095388645638364e-01
1.232617979584512830e-01
1.855716784058208668e-01
1.129742253000639018e-01
1.868524211843061167e-01
1.611949216420545117e-01
2.003855700761156822e-01
1.125464268828177267e-01
2.136610747774543295e-01
2.040154958585625455e-01
1.524327325166771607e-01
2.092960334791367782e-01
1.792668707235334224e-01
2.367253312008181232e-01
1.837886831098117790e-01
2.274023144580044620e-01
2.509024587813434848e-01
2.558067530988792360e-01
2.103935251402505036e-01
1.999006846472895227e-01
2.921033818630097700e-01
3.223033254680736648e-01
2.588407985781306375e-01
2.960340001953718492e-01
2.249528912804664993e-01
2.830386394653425786e-01
2.208302728217509114e-01
3.071617902917450627e-01
2.903993247110245313e-01
3.029710176481288375e-01
3.003676965411130051e-01
3.226122839200201708e-01
2.515792046476655330e-01
3.294305649080895293e-01
3.428747676447557180e-01
2.818314067418624669e-01
2.806938346339500900e-01
2.655769599917142676e-01
2.966352915623639563e-01
2.840641724465251539e-01
3.321787272719757822e-01
3.223526928120834523e-01
2.888912647117162225e-01
2.785840982490517259e-01
3.007010571336274918e-01
3.307248598219172386e-01
2.254223138010170435e-01
2.942448081483976519e-01
2.257605929782542931e-01
2.434272988698371609e-01
2.881646961106890115e-01
2.425142189415050165e-01
2.854956137857906362e-01
2.181556731708971519e-01
2.889315650769949673e-01
2.078311408091063350e-01
2.121937176447491191e-01
1.806742205416637381e-01
1.911842884534871445e-01
2.381888793711515462e-01
2.742539009980393128e-01
1.804160908367774263e-01
1.986458779259674401e-01
1.512965592784406843e-01
1.982377248014289273e-01
1.533271493194543478e-01
1.377096757124934290e-01
1.274751708863152977e-01
1.618306426412158827e-01
1.526346864627362299e-01
1.558758465891573186e-01
1.395317537343439829e-01
1.430860660122973138e-01
1.613795152407162259e-01
1.722543670807250016e-01
1.051640933156177682e-01
1.076376745884920771e-01
1.479198168727144935e-01
1.060259372316586512e-01
1.165949143905954111e-01
1.668233563748778847e-01
1.046210385189867420e-01
8.829519281012510046e-02
8.053275231840112403e-02
1.588730851109418918e-01
9.050229438036355711e-02
1.675320086159047261e-01
1.228196349824165201e-01
3.127334796879158857e-02
1.104880304104747801e-01
1.613949067149914735e-02
1.020428363080238543e-01
4.253746659703112887e-02
6.185258533356312316e-02
9.734737159152710706e-02
6.815173562725648782e-02
9.926590235263677009e-02
8.046111272842269846e-02
9.478447354992493301e-02
7.327610151666813509e-02
7.665473568260450232e-02
5.897171797763995499e-02
7.401673979772285805e-02
2.071106424405208535e-03
2.924075873347604243e-02
4.422034829507738574e-02
6.577434102760323920e-02
7.173522897521739106e-02
1.106635714256682668e-01
2.816630415320350508e-02
5.790926139773982378e-02
4.163263477081568381e-02
4.390318760273825838e-02
2.564891392170223772e-02
1.035445901829729620e-01
6.748839886264801358e-02
5.971702111043854233e-02
5.269577724808804237e-02
3.108293999132864804e-02
2.584218252919923131e-02
6.719365177508399012e-02
8.001495452739265657e-02
6.140512295537598614e-02
4.419015369008584548e-02
7.531901429708612317e-02
7.486409227906419550e-02
4.854035094325139660e-02
7.997257273818944578e-02
8.206868929511909605e-02
4.706237073329301579e-02
2.533664710758553804e-02
6.022827543729254718e-02
7.039970514097509957e-02
5.265957051421264745e-02
3.112296825644318699e-02
1.101214574785585043e-01
6.465123060037374081e-02
1.313749913858748841e-01
1.597473062946610511e-01
6.881849295171679759e-02
9.069735021995845026e-02
9.366113804856382452e-02
1.211408905558079563e-01
1.877994627864874588e-01
1.397686150203287792e-01
1.429215021409316888e-01
1.391421668370974307e-01
8.560627832071454613e-02
1.771435150128810587e-01
1.130466427277013464e-01
1.554939289285349191e-01
1.375531474087217376e-01
1.616774098706061924e-01
1.342889290268622915e-01
1.761533394547008802e-01
1.576041416270791695e-01
1.779791692534763992e-01
2.200054861819737417e-01
2.593766577008611574e-01
2.247857269344511466e-01
1.972278721852032124e-01
1.773496515942608320e-01
2.279176370648487437e-01
2.723952797469287312e-01
2.173096569228566144e-01
2.546230183994327434e-01
1.443966767437091236e-01
1.661248950118254519e-01
2.112593659538848090e-01
2.222312263935237453e-01
2.126543001712931091e-01
1.314761083978192857e-01
1.809613016114814399e-01
2.187551039903978256e-01
1.889086210331925586e-01
1.602933153418388545e-01
1.745557421204048387e-01
1.421980945861586187e-01
1.889957580543888960e-01
1.784505134881620436e-01
2.152275650572141319e-01
2.269476896717213810e-01
2.205517302816584202e-01
2.870511543252849962e-01
2.667972798693903913e-01
3.411846346499664007e-01
3.765585262723802340e-01
4.053901705797136046e-01
4.544308883368460839e-01
5.405229405576513768e-01
5.744973465505939236e-01
6.231041584154101143e-01
7.376158025043656474e-01
8.168735668251037030e-01
8.938270743989141787e-01
1.000544800019687264e+00
1.030328851261561818e+00
1.102787186473215497e+00
1.185458232233552511e+00
1.204543519844450294e+00
1.250134048220340688e+00
1.306585806511100456e+00
1.253019853438287701e+00
1.242791873077465192e+00
1.163787519695479888e+00
1.185860836747462788e+00
1.124391936795636093e+00
1.075388370101369118e+00
9.654518264334841504e-01
8.834865371113506116e-01
8.532203096362553918e-01
7.252595930929682799e-01
6.848648495094366018e-01
5.953180346713864424e-01
5.302280761811951626e-01
4.582334498647387400e-01
4.140332933040171137e-01
3.822866679181065597e-01
3.240812849083801739e-01
2.134144423639203203e-01
2.494533656417675105e-01
1.815831133996170244e-01
2.004538179082448746e-01
1.215348945340826159e-01
2.102085886802254056e-01
1.348661227555706943e-01
2.177512915512079261e-01
1.638829300227115093e-01
1.513063356061770670e-01
2.193518500049209119e-01
2.078024912280691527e-01
1.930551767666648655e-01
1.680132746397962340e-01
1.842072681804239886e-01
1.487738284443427816e-01
1.843375343154431689e-01
2.213949445097828095e-01
1.914306445421471992e-01
1.703118232224619111e-01
2.605878031537148809e-01
2.693447369875895392e-01
2.227140845790723800e-01
2.496577388604051262e-01
2.321626394230401902e-01
2.285600568807472088e-01
2.790595657982812283e-01
2.108022025067247396e-01
2.612291274819573683e-01
2.513466020420445646e-01
2.604315189199362668e-01
2.762433801769457742e-01
2.550481874628660606e-01
2.895735524757586665e-01
2.402231608863854839e-01
2.724553063845364109e-01
2.707715058389413842e-01
2.562337785817215274e-01
2.815241011092146639e-01
2.596461880734519667e-01
3.080799703057215400e-01
3.063383070126592389e-01
3.086591924989654512e-01
3.173651024230149109e-01
2.441321383902534670e-01
2.345650511324739729e-01
2.608431368510457649e-01
2.615104492082468979e-01
2.725499428949320624e-01
2.866457175992805917e-01
2.760054769667579233e-01
2.547818691538074609e-01
2.443490354811925780e-01
2.721862488785363188e-01
3.287517413907568020e-01
2.739760379627196318e-01
2.543808226104554704e-01
2.415269400279470569e-01
3.018759778051940401e-01
3.203996452617314250e-01
2.305290475999864919e-01
2.034970512716888225e-01
2.144857193479649815e-01
2.003516762365201154e-01
2.689104324201397889e-01
2.217848922708008930e-01
2.226589331540133054e-01
1.932421654433926494e-01
2.012241624514320981e-01
2.667971001989516977e-01
1.934237199581700928e-01
2.005160359684125260e-01
2.119542822996730025e-01
2.341858154113332924e-01
1.796422695874060893e-01
2.151481024334108427e-01
1.401890842698599315e-01
1.607282330082008548e-01
1.419127857079171828e-01
2.089263614556411686e-01
1.517757142735502440e-01
1.359290562958463955e-01
1.597864097354667057e-01
1.024683464783689296e-01
1.225852151728992201e-01
6.352205240518567220e-02
8.928066496211151115e-02
6.994373995457126014e-02
7.644384943960050305e-02
8.327587896097793374e-02
1.198735469940154230e-01
9.412249222171714669e-02
1.216249036067439671e-01
9.180316408693921237e-02
9.984053856607927324e-02
9.975871116930887239e-02
8.632266230013296848e-02
8.071192850009761832e-02
7.529909827116820775e-02
-7.267276871780747882e-06
4.545262337623565824e-02
4.315527267234607611e-02
8.235230532223779265e-02
3.539018465576428130e-02
1.262402324454624247e-02
7.173234735215636149e-02
3.844226281869567857e-02
5.733346185356742730e-02
4.314153914105947618e-02
5.096849741941221479e-02
3.559986131691390832e-02
3.105884571614541192e-02
2.552609766798323576e-02
1.957028462406368297e-02
4.459887387636980727e-03
2.650896782102066251e-02
1.511315323419034837e-02
6.426581177074752738e-02
-6.411399121456388267e-03
8.908681565093515275e-03
2.980349172935422425e-02
3.217787633228681721e-02
-1.226390350308697447e-02
1.217095752341092532e-02
4.570294566158564220e-02
1.825546610244555348e-02
5.894094908048254366e-02
1.103312054362004350e-02
6.809650368767475315e-03
-1.605748701412084214e-02
3.634402205701253719e-02
1.539577338738507689e-02
4.775350368436846737e-02
1.949453455913070093e-02
-2.106701123915975110e-02
1.400305654480386158e-02
4.202318198908155944e-02
3.933029247492225711e-02
7.846478429965920987e-02
4.667082245930827961e-02
2.101295251181817952e-02
6.284716176663479592e-02
1.635096403133672396e-02
8.121158592727434344e-02
6.171409431332609830e-02
5.321396141886195613e-02
7.615329509471724378e-02
8.914258934719947181e-02
9.834434856283653936e-02
9.699839162085704958e-02
9.000821258026490967e-02
1.040038983759900837e-01
1.152698634588227716e-01
1.004220919108226029e-01
1.680377234423308386e-01
9.766045373364638793e-02
1.526866779307635147e-01
1.274065658361369924e-01
1.385259743957432399e-01
7.273638195549865515e-02
1.634016283741883679e-01
7.831199979907994824e-02
1.576259582652157487e-01
1.477180416471617352e-01
1.616623604211150644e-01
1.708411660392302467e-01
1.587694450231728338e-01
1.204399690331978412e-01
1.957550367169392236e-01
9.855451229922783385e-02
1.223212546591100486e-01
1.649953657858891087e-01
1.832370256015180277e-01
1.242505461949613560e-01
1.725127030287476326e-01
1.167347056150060958e-01
2.165741580235778785e-01
1.259438088100387487e-01
1.266012421063739957e-01
1.579504819529720661e-01
1.651089305714909528e-01
1.409245900151745168e-01
1.065745050515303216e-01
1.408585301922678501e-01
1.746565040099172794e-01
1.527647726159344355e-01
1.541353089602510718e-01
1.781545405759537015e-01
2.132064647974651062e-01
1.854133511259623279e-01
2.256939416264914511e-01
2.194179286362855363e-01
1.964977087034649461e-01
2.144657670441978414e-01
3.506681342465846063e-01
3.962481544690624191e-01
4.025062882258776953e-01
4.775503089565517056e-01
4.636212008959597619e-01
5.849963217414303474e-01
6.343715805816148023e-01
7.485910133184512372e-01
8.149646615617603951e-01
9.168679449120346048e-01
9.684369157520562599e-01
9.443262872400777219e-01
1.127044437767211971e+00
1.151792583643057810e+00
1.143073644676569689e+00
1.223515223195517976e+00
1.209561375024192031e+00
1.185840587924027689e+00
1.176912530867522788e+00
1.176508295023549699e+00
1.153471049351657340e+00
1.082239737570124927e+00
9.644030629249737974e-01
9.397887515848827311e-01
8.025090035440810565e-01
7.780383799903873854e-01
6.842920959815734783e-01
5.618346076590257088e-01
5.515208530565376410e-01
4.640449769078046072e-01
3.896497829550685799e-01
3.429070192700064412e-01
2.804947308213819324e-01
2.621815836397415334e-01
2.149377620848555714e-01
1.560485080831318927e-01
1.459160712174696617e-01
1.259113600641862118e-01
8.702401277018584347e-02
9.464608747602111516e-02
1.724657721634356711e-01
1.281543578795594496e-01
1.078915710553411123e-01
7.095554025128734954e-02
9.835836124940895708e-02
1.244833474428945763e-01
1.502877849394013698e-01
1.633006854212273040e-01
6.193279810048057943e-02
1.341415168365894528e-01
1.460217754978490878e-01
1.266845633493406120e-01
1.564570546353954428e-01
1.830194676854490776e-01
1.981209868879402480e-01
1.350158653196407710e-01
1.355808161706506532e-01
1.951636652852740128e-01
1.918902984987741200e-01
1.860035589366489384e-01
2.081507439279559613e-01
1.811797976525591214e-01
2.367796066418940415e-01
2.455026853437277945e-01
1.931797658020912301e-01
2.567053190127483453e-01
1.429956332077788883e-01
2.295623358531380664e-01
1.900053771126906099e-01
2.302875318488657452e-01
2.169299684544146178e-01
2.311332608884124062e-01
2.285412913186582462e-01
2.090923428966609265e-01
2.071984945081443152e-01
2.460555524725260290e-01
2.400363959779570067e-01
2.592120972372791154e-01
2.048455268414413888e-01
2.565905386363330209e-01
2.841097442085370739e-01
2.429880192568144581e-01
2.259208839563354998e-01
2.187832696800670884e-01
1.789358880677152652e-01
1.872128606331938672e-01
2.052773786637190623e-01
2.299663812403747176e-01
2.477159323153840520e-01
2.048335655403570876e-01
2.424473545698700438e-01
1.468687266164518945e-01
2.010522408823497142e-01
1.956679693639897244e-01
2.154252133521439017e-01
1.622682224077078017e-01
1.517205902052285726e-01
1.643171608802657113e-01
1.933165683374270805e-01
1.862965530300468298e-01
1.451195277637724879e-01
1.579168109569114853e-01
2.105974038757382483e-01
1.198040884839030179e-01
1.136160618732998256e-01
1.522954735645932201e-01
1.596216186535197312e-01
1.721154671809041470e-01
1.100411658577803847e-01
1.474031169596709545e-01
1.058263043654347896e-01
1.500095556874181946e-01
1.084521668611869161e-01
8.894924690813205137e-02
1.052588936468450836e-01
1.446471139035889197e-01
1.154588472576087987e-01
9.321353148894322149e-02
4.360267762620391452e-02
9.905542236415783297e-02
9.365875413307439556e-02
2.873930993483932855e-02
-2.127849809931271416e-02
3.318860296931118448e-02
4.718854418452914090e-02
1.992245518925329570e-02
6.448706817665404711e-02
7.126596440059812521e-02
2.707187657327594921e-03
2.621677354654824987e-02
1.981744476773309241e-02
2.094985797972761382e-02
-2.683949987866673242e-02
-2.967618449755373214e-02
9.902164938627257273e-03
-3.871790476210913712e-02
9.118419253026571053e-03
-2.751329445259555889e-02
-3.875999264545867962e-02
-1.906815266274743126e-02
-8.956944208912565736e-03
-4.599456418108823635e-03
-1.576762849028138722e-02
-2.056014598426783579e-02
-8.199044720590681345e-02
-5.666089496269361564e-03
-2.192952722493941159e-03
-1.542803255860655809e-02
-4.115629946206121603e-02
8.099588089480497244e-03
-2.159292465143967596e-02
-1.543681783137341654e-02
-4.442008267005734257e-02
-1.475669859752476443e-02
-5.886992470537470018e-02
1.139532245580344300e-02
-3.601520681452548278e-02
-5.851657384761665970e-02
-2.796028178906677722e-02
-4.090852639834161031e-02
-1.090482328810795168e-02
1.705789913337747710e-02
-1.602283000925791220e-02
-4.244848031329170879e-03
-7.358665551288307016e-02
-3.161917245405654331e-02
-4.201375367946679623e-02
3.002599614196209410e-03
-3.894922370230846642e-02
-5.760724963704531854e-02
-1.337942952427561075e-02
1.847454029355315511e-02
-1.885609875804139524e-02
-6.055537298679827818e-02
-3.858374616211533020e-02
5.383291803485529964e-03
4.303608949369056025e-03
1.014812172719446390e-02
-6.047537832638036348e-02
2.308151930949113584e-02
-2.671298760981569154e-02
-2.703750148216351595e-02
2.255134854471875505e-02
-7.622903238946349136e-03
7.359433924709346542e-02
3.155625837670365114e-02
4.449267823752663109e-02
9.487099764630357868e-02
3.222715911698312286e-02
2.842291052592292588e-02
9.281845687058970507e-02
3.939437847352823124e-02
4.652123528709993516e-02
9.033219982303128393e-02
9.219739105086836861e-02
6.388002816432600262e-02
9.336870586635825919e-02
6.067112852154211283e-02
2.221109185303655753e-01
7.293305562914781381e-02
9.218249274946803407e-02
1.317836855716908451e-01
5.704665252496488731e-02
1.032913867740717362e-01
1.507099740948123490e-01
1.527608820028482084e-01
1.510852378540103180e-01
1.774162275287259616e-01
7.462540823156035841e-02
1.342406767567611292e-01
1.091505704075230454e-01
8.185634880873066122e-02
1.334021352998993049e-01
1.251228667256404636e-01
1.803932291487854167e-01
2.485103242911687604e-02
7.305159161638857812e-02
1.048586443424245063e-01
6.210768823048969794e-02
8.139702216712592364e-02
8.935739776606124729e-02
1.181348030471853772e-01
1.476368492496751839e-01
1.405781557230583734e-01
1.305557091588819829e-01
1.931432038772040449e-01
1.762156912360373917e-01
2.216756316468915800e-01
2.497615864829517418e-01
3.164918077843201782e-01
3.625259065368874323e-01
3.714010721458699815e-01
4.890002795497620514e-01
5.459172921521515676e-01
6.852147122535705570e-01
6.955599187810334039e-01
7.853410880038961261e-01
9.123286588935388686e-01
9.128198604354454959e-01
1.045113968684190819e+00
1.074032027417543889e+00
1.099692311069049300e+00
1.151694826432725360e+00
1.218063819075030585e+00
1.149613647813541251e+00
1.156326511540719970e+00
1.149938585795656110e+00
1.074622625199149306e+00
1.051458162756896186e+00
9.562024577324802488e-01
9.428756184230727699e-01
7.824657773318026699e-01
7.904828479991282686e-01
6.666974613509983882e-01
6.199742964412894297e-01
5.416110847931551175e-01
4.161432305689903299e-01
3.562072031271212857e-01
3.009071228701488687e-01
2.194824236952406804e-01
2.006067426391928143e-01
1.477757101550213614e-01
9.617302460034304890e-02
1.285775117189822125e-01
1.103185941138987713e-01
9.195099996478842130e-02
1.111005721634672205e-01
7.289782249590909258e-02
4.261701108322170362e-03
1.038974353280175400e-01
7.272270310373440960e-02
4.222878879497404814e-02
5.085106541859820556e-02
4.110094383566322701e-02
7.908994707424643611e-02
7.437562258513123747e-02
8.719569172899885312e-02
1.314807644713163887e-02
6.922163266693373562e-02
8.714242641653761889e-02
1.268169995542912099e-01
1.089423514797311643e-01
1.453116127705275651e-01
1.260300957103386299e-01
1.077558074593291393e-01
1.429949944260919259e-01
1.489003203651250162e-01
5.648207684352652552e-02
1.138284451359130034e-01
1.491164683807002234e-01
1.525652323484286976e-01
1.436292464133789304e-01
1.510320658234905744e-01
1.633312675086104893e-01
1.823032891161536218e-01
1.683378059830709095e-01
1.630584944657921531e-01
1.731190064935247130e-01
2.184748420293297633e-01
1.418717004959029471e-01
2.588544946421211801e-01
1.873547432401194146e-01
2.182112322499747958e-01
1.924469465283761005e-01
2.213705623197255168e-01
2.391951793044332919e-01
1.557302049058482962e-01
1.628253724731281993e-01
1.676137685985581993e-01
1.658865422511538179e-01
1.528081225796899534e-01
1.804449290262646888e-01
1.744672946005665637e-01
2.281037402185422114e-01
1.567260431121481612e-01
2.431081893253102810e-01
1.815142625606099569e-01
1.769780589982969388e-01
2.272470570563767389e-01
1.680681289054032079e-01
1.420886568742914802e-01
2.341073418849325682e-01
1.588338892511341194e-01
1.600734226105891556e-01
7.783082169184149524e-02
6.854988029833269936e-02
1.184678979449943353e-01
1.375847518726696639e-01
1.190854174423967571e-01
8.843028457102553030e-02
1.217685929003759215e-01
1.641167271551504103e-01
9.638210970440083680e-02
7.684578959402874054e-02
6.968534566621020776e-02
3.981614287684160508e-02
9.063218344338702659e-02
9.337234547578092403e-02
4.741051384212394831e-02
1.180690779497934051e-01
8.077699088146327033e-02
1.363858062147000894e-01
6.029423026097348315e-02
8.082789824722887151e-03
5.065995030450624881e-03
4.930640755689880833e-02
1.150745557178887296e-02
1.502954909790527732e-02
2.657752739163096733e-02
1.340712807151667185e-02
3.309346551352659871e-02
-1.671815142126451686e-02
1.469896864011977639e-02
-2.340395534720697904e-02
-2.429735310561509376e-03
-7.078407809884126878e-02
-2.449028182336636730e-02
-5.981124633201753693e-02
-3.771127323913295304e-02
-9.311957222888564423e-04
-1.103595721383516387e-02
-3.562554965573553473e-02
-2.591694638193887609e-02
-1.726862336241399842e-02
-4.062242124788856268e-02
-2.053209897866580674e-02
-4.292735495597252426e-02
-6.846050596176400660e-02
-1.945676882170850608e-03
-6.292309573219929952e-02
-1.009177493405203629e-01
-4.048994299335296337e-02
-1.347242491958865890e-02
3.502233109211097539e-02
-8.382095248273446764e-02
-5.927718392575148654e-02
-3.319250307184148929e-02
-2.866656520630709443e-02
-7.732550618130243358e-02
-1.390837632068310514e-02
-7.046452910893837018e-02
-5.881644749865222455e-02
-3.164358419382812260e-02
-1.522949162986141081e-02
2.042041403057571342e-02
-6.765191064505979290e-02
-5.049199236861900281e-02
-6.809061291066806354e-02
-3.109050501296118860e-02
-6.844816721207862276e-02
-6.757294256649892805e-02
-3.316365316636019078e-02
-6.109398591591141958e-02
-3.266878472236142000e-02
-5.016288868860077632e-02
-3.783300659412065781e-02
-1.357949368884889957e-02
-5.351987035341955468e-02
-5.444668045317672261e-02
-3.527254248770637923e-02
-1.340056440743384036e-02
-6.056765987428484876e-02
-1.808314148979459079e-02
-2.485346223629324169e-02
-5.583304742034640722e-02
2.043901482953659060e-02
2.763109404628712878e-02
1.724666262242612741e-02
5.783757459083335023e-02
1.860197599347965247e-02
2.629525374631050405e-02
-3.538766791672532525e-02
4.503644272591933451e-02
4.456864850136563194e-03
7.280572180173972008e-02
5.992930352736265676e-02
-2.165175349064921151e-02
4.276724263765308703e-02
6.537867901562649520e-02
6.432440615228787739e-02
1.093478642845521764e-01
5.586630399506047756e-02
7.729218867466629284e-02
-7.616886283336440910e-03
1.205663637486097117e-01
9.683789049194903298e-02
6.877453520728461778e-02
7.665424516049372528e-02
9.905603095516024581e-02
1.250111458527935204e-01
1.341195775012934410e-01
1.329510789462419185e-01
9.329290717508226249e-02
8.383044854467466833e-02
1.488873501764301499e-01
1.190766744520078552e-01
1.044909354083351921e-01
1.211809401982800460e-01
1.453415811232939281e-01
3.914554858524163516e-02
1.240532977749734533e-01
1.006198705974423180e-01
8.673120746600893050e-02
1.081973819030654371e-01
6.460102262298295095e-02
1.556926150474459980e-01
9.495954894354538545e-02
1.002909068080219956e-01
1.070944540826122421e-01
5.053277814370239068e-02
1.126276040516592941e-01
1.243423054917710824e-01
1.251822980337542468e-01
1.638133377265808543e-01
1.774034104338431672e-01
2.075250711846175766e-01
3.318676869058641010e-01
3.548454396503371022e-01
3.265242653772371106e-01
4.392066876225243499e-01
4.620523198107979734e-01
5.909558382020834166e-01
6.237047013852097255e-01
8.152231520905658391e-01
7.930357835066155214e-01
8.882329417644230229e-01
1.020463280740714795e+00
1.039685192294005578e+00
1.079735723874643005e+00
1.105940430433550059e+00
1.190475792273403277e+00
1.157424193371456411e+00
1.154922428253309485e+00
1.157482835739182869e+00
1.126454934426871501e+00
1.102646264015381350e+00
1.017339390021428702e+00
9.817054639471330946e-01
9.167360885407652704e-01
7.543603422082830745e-01
7.282750386359975181e-01
6.876361447127615767e-01
5.066381941035419390e-01
4.897162515941650418e-01
3.747348923062373549e-01
3.807760627662298836e-01
2.829241361397420995e-01
2.678914198903155075e-01
1.739936158489841234e-01
2.006268938179711359e-01
1.274499897438324814e-01
1.548997163039907976e-01
1.269159955776790194e-01
9.675834143309758328e-02
6.822711231931741227e-02
8.161918509308593861e-02
5.368672034441174939e-02
5.168475389879152032e-02
4.748614308993322208e-02
1.087898747964854279e-01
9.036379196626269372e-02
5.155755506885695283e-02
9.183226798423450854e-02
1.024429312164335526e-01
6.164624483525685261e-02
1.340904177157737076e-01
1.195630518729097203e-01
1.481176190458547981e-01
1.384306079871794326e-01
1.055556160466830096e-01
1.114802464244793040e-01
1.164097201564220918e-01
1.687531427778457827e-01
1.565925317995275068e-01
1.592767668660686753e-01
1.410379163797533530e-01
1.538269562533551849e-01
1.441908630430810412e-01
1.398299807092478475e-01
1.782936821832808993e-01
1.760269966657557472e-01
1.685569109156964951e-01
1.842650564361531795e-01
2.083008490209294905e-01
1.806856428885482424e-01
2.148037845482557162e-01
1.762714725264792337e-01
2.264864061922026994e-01
2.271486111594868407e-01
2.379642128213423635e-01
2.367552232579868410e-01
2.181444187082884623e-01
2.399988110550443365e-01
2.151714483935101008e-01
2.126108982301229411e-01
2.272951785324381913e-01
1.782792928356072837e-01
1.922512689525017193e-01
2.277821578221478904e-01
2.349437722790758687e-01
2.010607132320850199e-01
2.052102985011821090e-01
2.354260068240182913e-01
2.618248455274774233e-01
2.219636688242799805e-01
1.705630107300125098e-01
1.928747097984634118e-01
1.867961473099077341e-01
2.513659093052706406e-01
2.080250657717072349e-01
1.725618195623231932e-01
1.895662246464597245e-01
1.748144955336311535e-01
1.389619066355169408e-01
1.165174159264689702e-01
1.587356447378116819e-01
1.616632878689183150e-01
1.222681812635647014e-01
1.474015101351890955e-01
1.543904762588864110e-01
1.019141915472550342e-01
1.455321561219945214e-01
1.270547290172819865e-01
1.113145098430008001e-01
9.368074596693401479e-02
1.007292095194491921e-01
1.059432019455057161e-01
8.771434341404431290e-02
9.666759654664046353e-02
6.217035639623070403e-02
7.266743081794596604e-02
1.357632094785168608e-01
4.606737553843408273e-02
4.003145091774527875e-02
4.282458088313406686e-02
2.281047124967244474e-02
4.418767665754365359e-02
7.917489044424476374e-02
5.141150448235413950e-02
7.826311317930881306e-02
1.421574138311711144e-02
1.781294033507365565e-02
5.065409092667337576e-02
7.600356914058220559e-03
4.363713951165597987e-02
-7.883816539510094673e-03
-2.448289963969420280e-02
6.592525353860478887e-02
1.299778488811744598e-02
4.028603730988671028e-02
1.394322060870419044e-02
-6.716220515569401583e-03
4.830662647591693615e-02
-5.230880826882831902e-02
-1.171095382426580803e-02
-2.214626589214078664e-02
1.818238228200444798e-02
4.352062057206254608e-02
5.645412273751204690e-04
1.053180194866907074e-02
2.548719331195052271e-02
-1.767660385303861104e-02
1.697675277563216040e-02
-7.558345719524363349e-02
-3.689963935875608531e-02
9.387164238274518097e-03
4.528747362881993185e-03
-4.558635847712728950e-02
-1.598868652710797728e-02
-2.440750796670200506e-02
-1.309889111448862831e-02
-2.902762431670748849e-02
-1.988538853703613815e-02
3.912248829377355797e-02
-2.713330445783253969e-03
-2.984259851692388707e-02
1.649805259582753925e-02
-6.445047266760543792e-02
-5.693051249403034003e-02
1.467186812904047732e-02
3.662560951686910649e-02
1.922690381150587297e-02
3.605201461655208051e-02
1.801962955194391994e-02
-9.416474733820559204e-03
1.735510549949715112e-03
3.780641589518034945e-02
9.738893509394771358e-03
7.997542249945002041e-03
-2.942644659200360432e-03
4.710947431501710803e-02
1.214934661561080792e-01
3.430487121299023723e-02
4.846474166993525179e-02
3.337658981836852390e-02
5.898823204037004220e-02
8.731100476612771444e-02
7.265751441696529159e-03
3.433558226414386294e-02
1.344358215205897038e-02
9.588134242908878668e-02
7.524851394729614729e-02
5.067849808247515409e-02
1.333492959401781364e-01
5.444365272590925842e-02
6.763217649659418462e-02
1.552679381208648957e-01
1.151123954834636087e-01
1.578457899829198430e-01
1.562037915476291450e-01
8.657551163860210952e-02
1.140146103215608636e-01
1.351021211834006475e-01
1.377549068139310162e-01
8.848833054138754983e-02
1.099152546513080947e-01
1.504490223226132295e-01
1.242342387531365222e-01
1.662919465332996505e-01
1.687247307024622722e-01
1.331010858854331791e-01
1.279461277231677407e-01
1.082882196644590345e-01
2.044354507045753055e-01
1.230619109920860071e-01
1.373523727473143219e-01
1.708305562242591891e-01
1.594486878312472156e-01
1.240729211625028888e-01
1.401135143878934897e-01
1.281596538269848262e-01
1.189106616145729906e-01
1.380825533179597664e-01
1.504013786784058337e-01
1.671988778093798367e-01
1.577919141682053439e-01
1.249771055842592432e-01
1.843072299000048375e-01
1.146905395408221034e-01
1.468673607118126112e-01
1.805330887607102808e-01
2.627054340129494348e-01
3.106754183227811716e-01
2.705368338010938345e-01
3.563917616162562418e-01
4.032745308085543545e-01
4.375706764829104811e-01
5.357666356363083304e-01
5.908672058569732766e-01
6.575853894907958130e-01
7.855793906856934905e-01
8.229651756288743902e-01
9.471624564331506679e-01
9.773930345037287193e-01
1.054213757230664239e+00
1.083144351348770851e+00
1.182984973749874547e+00
1.160871591418143334e+00
1.187339617989043861e+00
1.176847098616045528e+00
1.220899698653054477e+00
1.196048650239468936e+00
1.167084701588867679e+00
1.132579018298996321e+00
1.059188464390245166e+00
9.335957383633816109e-01
8.878592091862909097e-01
7.598856218882235058e-01
7.529255779373003055e-01
6.321724600829649043e-01
5.956677290501519728e-01
5.261689318174476160e-01
4.469943789741698814e-01
4.077687099628410361e-01
3.057941026943238882e-01
3.098985588787677714e-01
2.204229100225744975e-01
2.497914867512936454e-01
1.459391944388047091e-01
1.932235025375995396e-01
1.061425095300582294e-01
8.735289143470706397e-02
1.721741568788550392e-01
9.589315139069419514e-02
1.518236300029240926e-01
1.499500938529195748e-01
1.318715820309077080e-01
1.536070662037057055e-01
1.194541500140769291e-01
1.722713873018598130e-01
1.704632329374303756e-01
1.760315693223253874e-01
1.294784427917081704e-01
2.031910368004835321e-01
1.134433097145326891e-01
1.599731337701200407e-01
1.511554965700410702e-01
1.718693378561249319e-01
2.177595662170513646e-01
1.636794148946462135e-01
1.949292096397929053e-01
2.071659358680653651e-01
2.012292848121287614e-01
2.164396682500888125e-01
2.143944316772126713e-01
2.311739437986652934e-01
2.619975542137188973e-01
1.903327990615120424e-01
2.180702884772623973e-01
2.168815162340591851e-01
2.503051758449171271e-01
2.334671439230589229e-01
2.498519724646308948e-01
3.308144702340822252e-01
2.602437774041143070e-01
2.638264539207655912e-01
2.610407132297569155e-01
2.765202028683720337e-01
2.962713152383772419e-01
3.085570981908308252e-01
3.024423055740615984e-01
2.584650919038485317e-01
2.313810247510811047e-01
2.621903325957822273e-01
3.225434555869320929e-01
3.144681427110867511e-01
2.883824636388185314e-01
2.730870268378217114e-01
2.863490732534950123e-01
2.756602253129566416e-01
2.451228420827111232e-01
2.830083728832232248e-01
2.060303715863331109e-01
2.402963293750828289e-01
3.250410144937412316e-01
2.697246901888046278e-01
2.186898808184591370e-01
2.670795386785652648e-01
2.174152750125390443e-01
2.287749786012859277e-01
2.600917491268429083e-01
2.116353139314954279e-01
2.769000656726908760e-01
2.106363773513678928e-01
2.278981300456600356e-01
2.077353348255673859e-01
1.335199158219402271e-01
1.781932978348895746e-01
2.384785927726211230e-01
2.019206241559405313e-01
1.497770545443637691e-01
1.597798635579530391e-01
1.648406276087542865e-01
1.934436395883598059e-01
1.720266034149350864e-01
1.576368784580193527e-01
1.832722150558864782e-01
1.423505856145514115e-01
1.585801165982844985e-01
1.211939009759055719e-01
9.191698137483346465e-02
1.207679960566153121e-01
1.202560514753489018e-01
9.715629202855405322e-02
1.203975653039891791e-01
1.439998383959892048e-01
7.700847861394830018e-02
6.487323632761968217e-02
1.160964419978601780e-01
2.348744018453197135e-02
6.595490652820758248e-02
4.476746784411821112e-02
3.475740150539861212e-02
5.353112183568056737e-02
8.581482449023801473e-02
4.617838214742460423e-02
6.744251628835899737e-02
7.898418096476716999e-02
6.025809972693681182e-02
8.846462682457417737e-02
9.026571064084518148e-02
7.176756960708824407e-02
-9.756139649226093502e-03
7.149047575837705337e-02
5.476968109422210990e-02
1.743747323287976603e-03
2.987558291090623014e-02
5.399648347467908560e-02
6.546707106171946455e-02
1.054449138909599182e-01
3.077172113384733787e-02
3.971886926508239046e-02
2.825569852747563879e-02
4.482810196441687489e-02
2.663859135715377496e-02
2.887358654607638520e-03
4.187239115796812655e-02
1.410407031831770533e-02
3.252656026131472977e-02
5.983837923227169203e-02
6.425970335774450204e-02
4.430488936277758583e-02
1.201692887232315293e-01
3.542387487190507001e-02
9.971523097749762643e-02
7.799937165248903292e-02
5.609266295271633784e-02
2.754951984739494736e-02
1.889129671102574709e-02
5.201837177211419277e-02
1.181742398706791403e-01
6.733319427518218159e-02
3.888411530495851365e-02
1.268533428850791567e-01
3.705749849622526348e-02
5.893970744783792043e-02
6.856934646336672323e-02
1.379889654838686308e-01
1.222186939592715127e-01
8.683043219779015831e-02
5.523522431997368587e-02
9.346412290905836695e-02
9.141900300691341297e-02
1.212398699349133413e-01
4.058705096860500128e-02
1.463555850023959271e-01
7.627362116674363257e-02
9.220711218085553273e-02
1.123676930316245270e-01
1.130680931723342941e-01
1.803578818145332163e-01
1.301202671972359892e-01
6.296615985470084553e-02
1.708128594611035833e-01
1.323440978796365242e-01
2.021524220759645663e-01
1.981397133801746646e-01
1.393718167902615601e-01
1.753703458547171690e-01
1.223771170043305573e-01
2.224812550595069993e-01
1.094170132290231551e-01
1.953740357528939153e-01
2.073191489762207795e-01
1.749182535056453824e-01
2.054921869023110803e-01
2.159188322640809010e-01
2.092642516696847366e-01
1.804079396518853684e-01
2.633498792622892548e-01
2.336270249503520913e-01
2.464192581817962191e-01
1.288141016430742192e-01
1.650581461449633636e-01
1.664968615598407808e-01
1.911813273848100292e-01
2.337833973898270634e-01
1.748162212212446276e-01
1.919868394268958167e-01
1.443889567108646854e-01
1.650147327796074315e-01
1.877404562029943436e-01
1.824401066828584828e-01
2.200526312363946246e-01
1.997690971363272894e-01
1.882158939741137016e-01
2.301625262897002144e-01
2.435808804582187403e-01
2.946039142959352986e-01
3.416334169664539400e-01
3.086259372565287595e-01
4.096637147706063131e-01
4.783361032545963010e-01
4.263325257629905218e-01
5.294730421817648303e-01
6.416040013522358310e-01
7.034775239613161313e-01
7.231565363881864439e-01
8.731364587638748009e-01
9.282473446152393892e-01
9.848295400188278315e-01
1.037765704519314713e+00
1.063248854406354749e+00
1.192641974256443582e+00
1.225140747743632241e+00
1.257855569766328951e+00
1.276814213165493372e+00
1.291712603274099536e+00
1.274918760775640036e+00
1.220140811021125371e+00
1.163000539539420064e+00
1.084529028424987773e+00
1.048777549980694168e+00
9.754766432963486444e-01
9.157546072496047795e-01
8.559243946023632477e-01
7.695741703547066548e-01
7.056590437175722652e-01
5.691222563354643160e-01
5.053084749654992436e-01
4.492030704966732957e-01
4.392789617483077169e-01
3.686046209644667782e-01
3.047478506252191410e-01
2.702342100322248086e-01
2.730021176735036303e-01
1.804149713093415319e-01
2.606453660510687498e-01
1.827820588950068992e-01
1.264561376940153692e-01
1.806218535184198615e-01
2.122671767383727537e-01
1.855229594643279523e-01
2.162551599179810546e-01
2.005638311308962085e-01
1.374162107012531220e-01
1.673641025476511612e-01
1.544328721497172374e-01
1.820543904382587452e-01
2.165444570225555920e-01
2.485327504969425672e-01
1.884308259319577294e-01
1.751072107303432435e-01
2.647220516677538105e-01
1.773273170083144168e-01
3.212048565745238005e-01
2.124568245038296610e-01
2.088864847148856896e-01
2.156431168517689567e-01
1.958548451725002082e-01
2.189564613067678245e-01
2.347466676249881645e-01
2.692030561174910130e-01
2.279997472689899163e-01
2.835308469942866005e-01
2.545296176301454771e-01
2.530561301749200132e-01
2.663524605070869411e-01
2.850463434435365762e-01
2.784185404747289705e-01
2.878378642702903445e-01
3.218540007418102533e-01
2.449255506115798342e-01
2.804023596807659890e-01
2.867667158546894912e-01
3.124966546993425132e-01
2.721389667479526819e-01
3.418642604613542080e-01
2.748759510357364211e-01
2.490347207360417148e-01
2.514780905051519078e-01
2.525599240289109204e-01
3.313625128329281688e-01
3.307435080980871134e-01
3.230265313182920650e-01
2.897803029334924951e-01
2.660233120400025686e-01
2.795937236401621062e-01
2.593558072987582896e-01
2.629534259022212606e-01
2.507625311361643128e-01
2.774174885589022477e-01
2.807102371877170377e-01
2.754346867106650665e-01
3.014964013455131986e-01
2.654873568172898546e-01
2.534980985668809916e-01
2.692378153292188103e-01
2.863181213575706208e-01
2.844114724728399324e-01
2.280413713112993956e-01
2.341111143029089570e-01
1.763744989585211143e-01
2.346225778190220157e-01
1.698448670678199823e-01
2.339239355623633221e-01
1.762904866936937376e-01
1.795149008914426192e-01
1.582606637775485492e-01
1.942788066659935919e-01
1.943178361034747781e-01
1.260417785131296431e-01
1.583863342023899834e-01
1.603417339055891178e-01
1.800967092462403829e-01
1.305295730296786028e-01
2.142746437219768818e-01
1.662147723049511583e-01
1.115334181668906355e-01
1.695899403225780977e-01
1.209612455899669869e-01
6.782961497646960991e-02
7.435747356360240812e-02
1.286966504680435441e-01
1.107523715763785721e-01
1.299795784821926314e-01
1.509863984466715547e-01
9.051068771993139861e-02
1.596873170519478025e-01
3.674809045541260061e-02
6.771622576784847025e-02
1.327051091942620387e-01
8.129196955945691694e-02
1.308951906286976441e-01
3.555740377192781465e-02
1.036878972015867484e-01
1.173865854231606609e-01
1.024918560316741972e-01
3.293357927873233337e-02
6.430931744127972582e-02
3.599059491022912893e-02
5.729087150765770076e-02
9.428288501002907163e-02
2.240095184661342748e-02
9.462708439144318362e-02
9.512443922708863075e-03
5.474751481715679075e-02
7.251731155104024218e-02
9.502445643976829837e-02
2.649379386527045063e-02
9.785104705953326376e-02
7.331146567079005472e-02
4.392762929951257722e-02
7.683975125032962983e-02
-4.810808302007653359e-02
2.799515189014688266e-02
7.343033729602546633e-02
6.521218353296895365e-02
2.062460426811560041e-02
5.718742613751809367e-02
8.707222518126209176e-02
4.557507926452109698e-02
7.566496730807568960e-02
5.993973549048946248e-02
8.227541186392098305e-02
4.670655807272081073e-02
3.398090359368179103e-02
1.007164214513872474e-01
3.089231319261833558e-02
6.674689356670271412e-02
6.418061475018600748e-02
7.866478452507302821e-02
8.460040312586138145e-02
6.534719236438107925e-02
8.351662927820743820e-02
2.542905424882899168e-02
5.358007957288423578e-02
1.334613041043420378e-01
8.022230364459842500e-02
9.893728721309508201e-02
1.044777555895960164e-01
7.381887947729746935e-02
1.638555197104569205e-01
1.466244447767966197e-01
1.195789629854869252e-01
1.172675026717243107e-01
1.184616311205251987e-01
1.062149181776720491e-01
7.985940052546150469e-02
1.325654917606094441e-01
1.177566686790850192e-01
1.079603994932187006e-01
1.329710588280157979e-01
1.846915332582107216e-01
1.580950540295473772e-01
1.200441175986398240e-01
1.708742040308894039e-01
1.591426524835993783e-01
1.541304535273613496e-01
1.599818579278199926e-01
1.642071395124804212e-01
2.256965933423794590e-01
1.492612510408559690e-01
1.287551665760699460e-01
2.096843790702329902e-01
1.699239441830250330e-01
1.586909975367005454e-01
1.965139866491730503e-01
1.896018542997462142e-01
2.337609910025972015e-01
2.363186598727197718e-01
2.722621324484089111e-01
1.299446461208583481e-01
1.495652138619120164e-01
1.987171383882338216e-01
9.292646786918920543e-02
1.877011742930566884e-01
1.853429094428620527e-01
2.127013538215370980e-01
1.597869397130705915e-01
1.584409642913743865e-01
1.414884132130816985e-01
1.913140306027658610e-01
2.429283553115948735e-01
2.219405406183438956e-01
2.343037787222291279e-01
2.673237756654658348e-01
3.159782622914713013e-01
2.773459232697559895e-01
3.353387012322983640e-01
4.214307224379888472e-01
4.595495572325523082e-01
5.535851251962411457e-01
5.821654730384601129e-01
6.932688492173805228e-01
7.576410286229652291e-01
8.181054773257181445e-01
8.975703417201195133e-01
9.921163436076546605e-01
1.063728082847274159e+00
1.139736303770752190e+00
1.186340742725380482e+00
1.139979744033669862e+00
1.258262316149293181e+00
1.212338244519082675e+00
1.234888147787487345e+00
1.255752930415523050e+00
1.135062427213135106e+00
1.122929197798700818e+00
1.087594494830594227e+00
9.421367560669030583e-01
8.534008596383415579e-01
8.474936573180706922e-01
7.606172333298995003e-01
6.784417632914248042e-01
6.458137813569096997e-01
5.128545363580840899e-01
4.885467165803166756e-01
4.471229446332530832e-01
3.194103456844492595e-01
3.051779972294271226e-01
3.139344658231580376e-01
2.649769378063682179e-01
2.214827275411196672e-01
1.852764498709115193e-01
1.598630201539303630e-01
1.573793021981305662e-01
1.379534448030729499e-01
1.440971045983084620e-01
1.021174842358503199e-01
1.674967645044738440e-01
1.058690999163805213e-01
1.399866923831760146e-01
1.226888171370645458e-01
1.419625839569335357e-01
1.461060431939028015e-01
1.488447865397879433e-01
1.730378419161577863e-01
1.749968465845848642e-01
1.792654157174590202e-01
1.008043481263539154e-01
1.957432786227886468e-01
1.311824296632741194e-01
1.565070282534414825e-01
1.442678356654491789e-01
2.046735279035149513e-01
1.603361379607939341e-01
2.177821354697092038e-01
2.189996397307224785e-01
2.585179521418567994e-01
2.045205284421269254e-01
2.236050478438246503e-01
2.412533120854265245e-01
2.143493809516127946e-01
2.657494190564464454e-01
2.835159383313878290e-01
2.630096589524063555e-01
2.662733854001664291e-01
2.858558399781984116e-01
2.931833180930816796e-01
2.628774860218719978e-01
2.965687975650841413e-01
2.559646418962255310e-01
2.391033179662911401e-01
2.266543694630417105e-01
2.823061280344621449e-01
2.731702136020030536e-01
2.891165084214745162e-01
3.072537009321625878e-01
3.124511340274722659e-01
2.387303885056994979e-01
2.581613273754800320e-01
2.852899423743926466e-01
2.531369326361208039e-01
2.917697369162424725e-01
2.838311253543367441e-01
2.778195098821125697e-01
2.714454131539155157e-01
2.779278670437810295e-01
2.314685114356973550e-01
2.282492717140532645e-01
2.647447089803138254e-01
2.432877922094894285e-01
2.322095663673591215e-01
2.389139521575931180e-01
2.206859460553671215e-01
2.048419519586229531e-01
2.067756496829086243e-01
2.083343127223458158e-01
1.735249770015658000e-01
1.538681450488239566e-01
1.679449312477201695e-01
1.649831302173698500e-01
1.487384490807382442e-01
1.613252321950666979e-01
1.284044920828957825e-01
1.095389548617284325e-01
1.415370280938160474e-01
1.437429774716660891e-01
1.249386272669925635e-01
9.891155151107790255e-02
1.333723682690303447e-01
9.682368764131218941e-02
1.516802105907816001e-01
8.629917777205620144e-02
9.731917076190782501e-02
9.861581954364526115e-02
1.482197204267041435e-01
1.063459605636991878e-01
8.427874154557252195e-02
9.559985209726110100e-02
4.777592745959864662e-02
6.946738983572654791e-02
6.425126968686091511e-02
3.622002756833796189e-02
6.714458915920501481e-02
3.022855116732597880e-02
2.321519912387777496e-02
4.652577425400959005e-02
4.155556055101820856e-02
3.353891862914165634e-02
1.719989492758042943e-02
2.276155785787022795e-02
-3.084634796839694215e-02
3.929398323421141870e-02
-1.355830217549900026e-02
4.090102993390769270e-02
3.913234772758322072e-02
2.440083552208078405e-02
1.468473818116965493e-02
2.915629739073721804e-03
6.918357210821991787e-03
2.198332165794989954e-02
4.617725368140805642e-02
1.559212539389813468e-02
-2.235059328295102565e-02
1.788750908154984956e-02
-8.844127666762843093e-03
6.630386471147662816e-03
5.010421524578552444e-02
5.728303174483967419e-02
3.433027770433531595e-03
2.540763998617414851e-02
4.985087990137047204e-02
4.077359463052380312e-02
-6.639099360861274758e-03
4.517816385128872736e-02
-1.948881583124885408e-02
4.079411827835104087e-02
-2.172546850169129740e-02
-3.088038298777694146e-02
1.550518929012502378e-02
-4.130226769808935383e-02
5.819032263145408265e-04
2.482897318198651337e-02
6.045228707898082227e-02
-1.338342861066267944e-02
2.688960653541948645e-03
2.453279062344132511e-02
5.296450593124583939e-02
3.206836613247109578e-03
2.662427181294638873e-02
8.981448160818653048e-03
1.423169066533321730e-02
5.093226409277318810e-03
6.565643596500445045e-02
6.088004490710455241e-02
5.701408383631598187e-02
4.246785992559779649e-02
2.077593260170882555e-02
4.091704968372607276e-02
1.297527520285036637e-02
-4.547485055438738218e-03
4.646201393215512732e-02
9.827734629621975859e-02
8.951141564785006222e-02
1.127486496494110590e-01
2.916177022218776477e-02
8.693921089416184467e-02
1.215040390088320404e-01
9.415501350106034173e-02
1.314911520130070122e-01
9.425735031873831715e-02
9.388646384422728863e-02
6.589444619062079234e-02
1.078255509318936378e-01
1.444590143514593306e-01
1.040785965681331471e-01
1.646001027228725655e-01
1.450532483198865297e-01
1.269843001550340633e-01
9.225567990988120526e-02
1.128520803904517339e-01
1.437322980614123558e-01
1.687048707571008610e-01
1.220014076784277091e-01
1.297220342625409195e-01
1.220017044072213425e-01
1.541903789059735630e-01
1.302778647188228278e-01
7.298223090961732107e-02
1.561461510845713052e-01
1.437044384487173587e-01
1.593945131715117092e-01
1.079629001510735153e-01
1.483174131418956432e-01
1.643317146642423454e-01
1.569831050207018963e-01
1.451274699730738249e-01
1.068358146714000062e-01
1.787395673951225894e-01
1.491849202788615436e-01
1.950352725157600831e-01
1.912084709578585340e-01
2.086332091472852812e-01
2.344790787034820856e-01
3.464534672984217467e-01
3.432165680074396596e-01
3.607223707767238108e-01
4.256374996984206849e-01
5.207991764756851882e-01
5.830506671267422503e-01
6.445962037286772084e-01
8.157888926820145992e-01
8.888495361130857031e-01
8.780849815855590323e-01
9.884420780168078347e-01
1.018073824865654675e+00
1.145327828636773404e+00
1.167099716183865210e+00
1.211782469127061335e+00
1.174865306213701333e+00
1.179283340022266868e+00
1.201348839385662837e+00
1.133134034266041867e+00
1.154195776220698688e+00
1.027526919250657533e+00
9.648925289872167799e-01
8.859057496407813925e-01
8.502709281913284345e-01
7.525154935794414746e-01
6.572999388500935236e-01
6.105688144345107204e-01
5.068508048102090546e-01
4.621242867845691826e-01
3.394841028392552862e-01
3.139570470689471704e-01
2.740331923869664399e-01
2.249467395746015952e-01
1.895555245432981317e-01
1.497193060008956689e-01
1.131479574046575509e-01
1.507975435861677593e-01
9.033372841237784223e-02
7.672846986191189655e-02
8.009799270573976504e-02
1.379073483268004885e-01
1.161045318569263324e-01
5.169529343015155654e-02
7.733464515220836444e-02
8.992916023693327265e-02
1.115905503027156687e-01
9.447216965402319144e-02
1.122846752537031978e-01
1.343428459768434557e-01
1.218442464081841564e-01
1.258147846253045987e-01
1.037838603808898946e-01
1.530170198822210226e-01
1.115724255230374773e-01
9.301931576630136089e-02
1.535373605248116502e-01
1.353022575781458181e-01
1.873349633296726713e-01
1.652019248644775173e-01
1.829887960743454001e-01
2.410007500226312160e-01
1.563765568988333965e-01
2.141696959911959797e-01
2.129006091586695126e-01
1.801832412183212162e-01
2.309833846355587861e-01
1.281054537386599468e-01
2.205771000380827851e-01
1.526545257907328534e-01
1.884643813707649607e-01
2.244661820998810897e-01
2.537657545149686333e-01
2.024536045960147468e-01
1.634924036888784349e-01
2.330792173510857490e-01
2.226514968217786217e-01
1.175532310991736218e-01
2.079202300713219875e-01
2.075227102258753731e-01
2.182985509330969687e-01
2.608349558513624045e-01
2.626180395681979585e-01
2.480446481914967416e-01
2.453936215898605555e-01
2.256621171580999730e-01
1.760848140660685734e-01
1.630356045203271154e-01
2.444653110025888920e-01
1.845449349873168332e-01
1.701281864106395370e-01
2.309893539094284853e-01
1.988688706575396370e-01
1.781082388294476238e-01
1.629845027429956128e-01
1.262514680626583008e-01
1.674579366162109173e-01
1.837609928050115415e-01
8.926222655291748964e-02
1.875038649697928772e-01
1.507305314980160460e-01
1.587906260909202061e-01
1.468608197444919439e-01
1.057922152932438409e-01
5.245024220188148484e-02
1.147096198355761487e-01
1.057640899093882370e-01
7.461317442299927882e-02
1.041103451373319722e-01
1.114188483516656281e-01
5.726877611974642845e-02
1.373944330875791486e-01
9.575824547294059519e-02
9.371162601457613817e-02
6.302031291265519641e-02
5.878752483726248923e-02
3.009465952716798565e-02
2.886356804674380244e-02
4.191187291890968725e-02
3.584652607763099547e-02
4.478965534789660502e-02
3.712507072316455908e-02
9.658574455978574669e-02
-1.164035528907687855e-02
3.915977741302967274e-02
-5.395446018803920496e-02
4.888744430567269761e-02
-1.359651080657554856e-02
-5.906783844137702966e-03
1.684146785143438019e-02
-1.394699979329351580e-02
6.200531325306488789e-02
-5.719423619024426725e-02
4.506585024598997596e-02
-2.586636858467029204e-02
9.658478563778424841e-04
-3.030277076433817579e-02
-4.165599268216241269e-02
-4.932279880849460563e-02
-6.579604537382126306e-02
-4.467643280260426286e-03
-5.106727511983921719e-02
-6.186145457897643252e-02
-1.637789992724048363e-02
-3.445972185052234571e-02
-3.200000760470992495e-02
-5.104096657325057212e-02
-6.719604051250255283e-02
-6.988981207609352986e-02
-1.191638369180842427e-01
7.826846378050721087e-03
-5.568081326838537903e-02
-1.237521506447388647e-01
-2.370871729840267825e-02
-4.594114578311173092e-03
-6.013434313754983940e-02
-3.474217733439330380e-02
-6.981197936556812755e-03
-4.950016053247172781e-02
-5.372405656174464306e-02
-4.221185880269111290e-02
-1.194151587578804602e-02
-7.004241159332756650e-02
-2.304145032284046768e-02
-3.213578307770006970e-02
-5.237794922128254788e-02
-1.720649201369581216e-02
-7.351387005434033284e-02
-1.226151687202350904e-02
-1.354555232758748035e-02
-2.228107341677357245e-02
-7.903292402208855760e-03
-1.928582998142745752e-02
-4.922574668384664676e-02
-1.382293491665843865e-02
-2.371425076546977706e-02
-2.500452027885285977e-02
3.604285827665976161e-03
-3.292840471305831518e-02
1.901766673059247098e-02
-2.002418127398280373e-02
2.908147934245979699e-02
-1.530655141853119738e-02
1.147631737658125900e-02
3.083972499009542817e-02
3.317249533501384628e-02
6.025680812194851577e-03
3.735204463664980323e-02
-2.687933566565724880e-02
4.427332017262272656e-02
6.500167021947712842e-02
6.863741075964291394e-02
3.145455417617183669e-02
8.778054636139420719e-02
4.945844948666470314e-02
1.106448294462839543e-01
9.078743449414881928e-02
8.917891391755972119e-02
7.547117869796166056e-02
9.909799567013269361e-02
1.306759021523145603e-01
8.811927024591448276e-02
1.096270914246228745e-01
4.224719917155336096e-02
1.387430895816014753e-01
8.470313090119679922e-02
1.288926989876476581e-01
1.495843967684496734e-01
1.372360744386225684e-01
7.458863419727682076e-02
1.131845634594036420e-01
5.597403904441700107e-02
9.991411971893410238e-02
5.736759725778535490e-02
4.971695457637653054e-02
4.137635680345934375e-02
1.531075691601978539e-01
5.748186165234776823e-02
9.275722591173585219e-02
1.082548409350488627e-01
1.037553429915129832e-01
9.559238200745653891e-02
1.341986882497017697e-01
1.029764140085034363e-01
1.158943889054475096e-01
9.567418584289950900e-02
1.903352220358031088e-01
1.710703781792616285e-01
2.084961055950636521e-01
2.299714043383752626e-01
2.776889557880098947e-01
3.784176566226599148e-01
4.470384913231789104e-01
5.125688033477272532e-01
5.817229550156363116e-01
6.494098451554820572e-01
7.792836517724562873e-01
8.373291732086616257e-01
8.819601807177442909e-01
9.418522450500481646e-01
9.872280701257467594e-01
1.092858784041603304e+00
1.107549922636627882e+00
1.196262688847959943e+00
1.196694904381668145e+00
1.171507608670718348e+00
1.105257813789720878e+00
1.034218399495973273e+00
1.087460761871971604e+00
1.002607063133220011e+00
8.887942793149989917e-01
8.700927490707582868e-01
7.523943561755098708e-01
6.852430260560818942e-01
6.236085732699496731e-01
5.321613900670909558e-01
4.985438901565085734e-01
4.001884478025403702e-01
3.495187460887472786e-01
2.444698587083478647e-01
2.350659251831037355e-01
1.565377534299585149e-01
1.786772610106390213e-01
1.210444811436526824e-01
9.100855545426012050e-02
1.097832750890994913e-01
6.383063121663909434e-02
2.062136553669459416e-02
6.917279251785990457e-02
1.436247888644373583e-02
5.049912108900717067e-02
7.246920803303938396e-02
2.702591708443288776e-02
5.949678141887521088e-02
8.292424758354605130e-02
5.197784479610186026e-02
9.332034399969828253e-02
5.371429024620972409e-02
8.515245899208412350e-02
6.903144475170369665e-02
1.050511852687195102e-01
1.018236578598321063e-01
1.321130156619846341e-01
9.330399800887943795e-02
1.228106667054917056e-01
1.784746886618345241e-01
1.813161908140447920e-01
1.122716706157517452e-01
1.653776887773054094e-01
1.438762275352722386e-01
1.415380106300853924e-01
1.650261954698785116e-01
7.363847590853728198e-02
1.932239604178493386e-01
1.278651268083252357e-01
1.964375133921197891e-01
2.469338204132603687e-01
1.554951620790718525e-01
1.963648653462425064e-01
2.198454263001262676e-01
1.736546583151394041e-01
2.225104974235449229e-01
2.011173173093483146e-01
1.435126460200070453e-01
2.135057651781238630e-01
1.896012173279064128e-01
2.128426565535482817e-01
1.654915622062546054e-01
2.014872049902614592e-01
1.869143255458930453e-01
1.862378670841757233e-01
2.228556660022847635e-01
2.025550454073525020e-01
2.685672132427676662e-01
2.121685454315937192e-01
1.681429732011409661e-01
1.346110867150399071e-01
1.782515217951042286e-01
1.824140515026825837e-01
1.919386333590023253e-01
1.812183646627746891e-01
1.441920834420038766e-01
1.789222184222473977e-01
1.401910332378130120e-01
1.643373950424735774e-01
1.257316169096024394e-01
1.162627587118664485e-01
1.219685053424798549e-01
1.828729833181596542e-01
1.641067596179353605e-01
8.608375971676586469e-02
1.320505551076779915e-01
1.272163668222520416e-01
1.333293159459088828e-01
1.319043524810664947e-01
8.496015366979911554e-02
1.494683692625851656e-01
1.186182932550738922e-01
3.091952067031093765e-02
7.725935102254941067e-02
4.628571722070791428e-02
1.133212742902061643e-01
7.062785567907270412e-02
4.742934728500990821e-02
4.620312977118321007e-02
4.563768514115135871e-02
3.869197027212580020e-02
-1.270377592824375318e-02
3.395080264281714194e-02
6.284499876043250777e-03
6.002543673616929365e-02
4.531952224967862597e-02
-7.419019405160209857e-03
-8.176759170853357961e-03
4.460261691426439107e-02
1.319250902813686593e-02
8.467118708530251003e-03
-1.222862214570276385e-03
-7.382370629239368154e-03
2.125527054987856601e-03
-2.729527318281680173e-02
-1.988573400113064632e-02
-3.702063193816459985e-02
-5.392977058801866341e-03
-2.038780182410477454e-02
-1.968489741257536951e-02
1.885859356987665270e-02
-5.489208250104203601e-03
-2.442267651484689855e-02
-4.826107280070182637e-02
-7.725764880307489646e-03
-2.743557518144512306e-02
-2.047705893771772923e-02
1.881699045780482055e-02
-9.107914594308388900e-03
8.034627633551637282e-03
-6.017425321146278872e-02
-6.844975999411900824e-02
-4.032407466921116707e-02
-2.171814401008562503e-02
-6.122502323629935850e-02
1.179209969671394381e-02
-2.697734285930462189e-02
-4.305659260310625708e-02
-8.451947332329035056e-02
1.424179701458692243e-02
9.540068490212529062e-03
-3.093980407168830937e-02
-2.207473405476230097e-02
2.809099631147071036e-02
-1.555456715419076610e-02
-3.360034424629852051e-02
-1.132035534180612923e-03
-2.246082412124539296e-05
6.664313709717054057e-03
2.079189503460265182e-02
-6.690921646276687396e-04
4.572608505567780229e-02
-9.041687009224014249e-02
-5.988288045658866909e-03
3.734807343509773808e-02
-1.169530698104579228e-02
-6.036594021374644403e-03
-4.012609996534386575e-03
-2.605123496782954171e-02
-1.150997043174793386e-02
6.733647452019583812e-04
1.546860349644153809e-02
1.712093379210442856e-02
1.664047624387179902e-02
2.784550515536276388e-02
3.829034280433615128e-02
6.166039710275041802e-02
5.721440322467859219e-02
3.537737703747134005e-02
2.505282515439051505e-02
7.127885368219492868e-02
5.800584589570596111e-02
1.148407893156560278e-01
5.549419443395747081e-02
5.794337518552598876e-02
6.367200296869152121e-02
1.238746614198230483e-01
9.632463679732722328e-02
1.048670585666647004e-01
1.439195976719118419e-01
1.443782134559909447e-01
1.203457492359866071e-01
1.177082953078900096e-01
1.594633813301170044e-01
1.337971987358137216e-01
1.166297539526269383e-01
1.452807280579407334e-01
1.139051663062475295e-01
1.183602948761811324e-01
1.163684068459506643e-01
1.182505546887284570e-01
1.524406923856311269e-01
1.467204122708121727e-01
1.250713488532175510e-01
1.089325906167118024e-01
1.320349429297493493e-01
9.696590068966132181e-02
7.652963045450869584e-02
1.535103804891438661e-01
1.334420407832685729e-01
1.232313184464975814e-01
9.616005474656050267e-02
1.278049565820129352e-01
1.117455783056821722e-01
1.488062815387538596e-01
1.263717645416779778e-01
1.092682830839954988e-01
2.140748044811124351e-01
1.736191920515095799e-01
3.017172735738598011e-01
2.993353524978472069e-01
3.296956375276697826e-01
4.033647635168241541e-01
4.392796592192463878e-01
4.718034306846703441e-01
6.090011016831378132e-01
6.911302308902889102e-01
7.391508483643631777e-01
8.219328367031735194e-01
8.660033127554270793e-01
9.626396168822959343e-01
9.966400464577616081e-01
1.133539372881749552e+00
1.099926659274588880e+00
1.209610475172078203e+00
1.218204974049633682e+00
1.209856209582039099e+00
1.152118858422816583e+00
1.148796773938155269e+00
1.095326002352009276e+00
1.049976364417988473e+00
9.593496013490360186e-01
9.008372706308905853e-01
8.493727343251497031e-01
8.359740999786157145e-01
6.347015655805081646e-01
6.671106687938699320e-01
5.590148370631722319e-01
4.411452142307475954e-01
4.084915274122444262e-01
3.466493618302635138e-01
3.183158376355980090e-01
2.370869131859096590e-01
1.999127565566291287e-01
1.641106623918363316e-01
1.960283820990426362e-01
1.071813438100410326e-01
9.038315242398956006e-02
8.422838251983062741e-02
8.659959217754331640e-02
7.354953293754354360e-02
9.214134752787470073e-02
1.575732200608147560e-01
9.776403407414564761e-02
9.395697962092833255e-02
1.366046806720144502e-01
1.436394545265848866e-01
5.610858031449702382e-02
1.588854142742126274e-01
9.425010380323713133e-02
1.335130348599995187e-01
1.546035444549845039e-01
1.309875994086649176e-01
1.281818406436924240e-01
2.179812341531041087e-01
1.349249584934172908e-01
1.377046807411820006e-01
1.250091542560833602e-01
1.558837713222571142e-01
1.584901992582249675e-01
1.704642524578199037e-01
2.302289439720925923e-01
1.584436244287915074e-01
2.569185576984643893e-01
2.315771394379668724e-01
2.166076100270909743e-01
1.856584347092343767e-01
2.056440657179003928e-01
1.905204926010178879e-01
2.181601047469238219e-01
2.051640602413408176e-01
2.071533227587136761e-01
3.216998203913002397e-01
2.088605423254910887e-01
2.885044984911135924e-01
2.634620192906276803e-01
2.802912742677806102e-01
2.377035135952853540e-01
2.443736147984615914e-01
2.702033684876710140e-01
2.176429063038564649e-01
2.173696486958057728e-01
2.307367396281684857e-01
2.344186739025483912e-01
2.468280329901980652e-01
2.175111811439056075e-01
2.197234437422691256e-01
2.035267252591068943e-01
2.558262316193267716e-01
2.593155620400413031e-01
2.234249803106592713e-01
2.038343197002479013e-01
2.184560100171516750e-01
1.976290280900509233e-01
2.167439817840065563e-01
1.868407744754703725e-01
1.942737893302367569e-01
1.804147558605878332e-01
2.333150808937857756e-01
1.677349591981862620e-01
1.578259612101161058e-01
2.088081165641823833e-01
1.545125898054383329e-01
1.334432288690862722e-01
1.817630450139122167e-01
1.373851140308917640e-01
1.533016558430038701e-01
8.131413410408122600e-02
1.188885408101569841e-01
1.245079479273635548e-01
1.187162507128026456e-01
1.081250401056807614e-01
1.423721381332925806e-01
1.640508015789713392e-01
1.948493531455872674e-01
7.913041972925091705e-02
4.449463362961856433e-02
7.649270878658515072e-02
1.038701064400915225e-01
8.457515703987900091e-02
9.061375049810378723e-02
4.546425037863564833e-02
4.000824326970980199e-02
8.463223259258598197e-02
7.724111814246788221e-02
6.921155119399209632e-02
2.622214281333844210e-02
4.295776292846689715e-02
1.571004124342650562e-02
9.483105500790792175e-02
1.351331443696746591e-02
2.445928341603379255e-02
4.774515579145439254e-02
6.474003672294155465e-02
4.981616091363028770e-02
4.052264237080713954e-02
4.073880928396785006e-02
1.831102957855796493e-02
2.722941585313079851e-02
-2.943924439272676413e-02
-1.040462735537038899e-02
-1.507118352055990956e-02
2.014951201969581579e-02
4.547763118421541823e-02
5.341837942493386088e-02
-4.065756180768086495e-03
-4.825553501173612814e-03
4.248400480251009192e-02
4.631126522169212029e-02
5.446120293097950205e-02
8.270079955827871337e-03
-4.890007829170452819e-04
1.042605283011333386e-03
3.976485443301103206e-02
7.612229826014795496e-03
3.583886555612507407e-02
3.205463339206769680e-02
2.376913163938031148e-02
-2.428441229485325120e-02
1.128159629634844542e-02
-2.177372680956269485e-02
7.431468851200320747e-02
-2.789693155163719754e-02
1.750481326279590757e-02
1.073543753473257811e-02
-1.235710905543825275e-02
2.031172059599048452e-02
-2.983543793744984629e-03
1.605721659704556145e-02
4.941896632005749607e-02
-4.977438740473805190e-02
4.206637364129191259e-02
1.839789650004382271e-02
1.870497699591927576e-02
-2.436260733856072946e-02
1.400632480789285213e-02
3.658550232003485170e-02
4.456054585580986049e-02
-9.423690338208182138e-03
2.678622799237913993e-02
8.390745844449718285e-03
1.655198179298062594e-02
2.222064824800546248e-02
1.555329480931237282e-02
8.216561026969772252e-02
1.698003149832014863e-02
4.836099018351600054e-02
-3.062680077858305483e-02
4.051066092907115029e-02
4.173118738693594454e-02
-1.754080738853566052e-02
5.992352790975113280e-02
5.430952781501918042e-02
-1.058564271353526140e-02
-1.630174776827735678e-02
4.197683240798853049e-02
-1.341671306258297031e-02
3.084569387624322423e-02
-4.536464644627315190e-02
-4.959022278749294910e-03
1.825586509650512293e-02
-4.201347356163159102e-03
5.472583292022654283e-02
6.205255925883664675e-03
-4.489866098083361567e-02
1.824918125473796310e-03
1.237149371200121049e-02
3.717567557990844596e-02
5.111925762911062598e-02
8.034235555146419100e-03
-7.323940116622261465e-03
3.633245842485701566e-02
6.431836016524847266e-02
6.374445237624987159e-02
1.386056430556740354e-02
-2.297593051450500315e-02
2.551195823327634740e-02
4.371127276125408301e-02
6.408045117657704126e-04
7.455450172533153314e-03
5.069281209680353423e-02
5.257232950930908894e-02
5.781650992994358251e-02
1.631930801841157894e-02
-4.121805328326441642e-04
1.569977025929405329e-02
4.848597495651683215e-02
1.806100990737209006e-03
4.059264589867754569e-02
4.623542697595852541e-02
4.898254978458223968e-02
2.018709909039616279e-02
-7.403273977433351416e-03
4.388185313328085008e-02
2.233465756316732609e-02
2.812672220636142431e-02
1.222720651370415648e-02
6.244703342986213102e-02
5.009644291085900425e-02
6.048641504624825693e-02
