1.266148193488837892e+00
1.272708645519019743e+00
1.306033343806010549e+00
1.267917090913179612e+00
1.217000270531455985e+00
1.130336513364824658e+00
1.057106929119631555e+00
9.642181516539918285e-01
8.583774421841461333e-01
7.797364481187381013e-01
7.471302363595275775e-01
6.168264640518125175e-01
5.748906055368724344e-01
4.609821753808813205e-01
3.795076974603359687e-01
3.486262132258654556e-01
3.103874519127702847e-01
2.621560246642445913e-01
2.935799542234512338e-01
1.892640140646791869e-01
1.482224889942663770e-01
2.062043868822461823e-01
1.311934761865888033e-01
1.617918832782936633e-01
1.451920955882582409e-01
1.823388483836620444e-01
1.783273655535965174e-01
2.028420560152379148e-01
1.480817096186822779e-01
1.874719104040052930e-01
1.674010669942537499e-01
1.777239912284276913e-01
1.432904842743387697e-01
1.930114629189831343e-01
1.675766481901570792e-01
1.742489159139655464e-01
1.792930396483330135e-01
2.109790269634272963e-01
2.411087205716290205e-01
2.041202891073877757e-01
2.004121210285966237e-01
1.736802713110499885e-01
1.907321376187400830e-01
2.436667854640987563e-01
1.801090896542856812e-01
2.272335866891495859e-01
1.774046692091791333e-01
1.663026934610073448e-01
2.864235472608917532e-01
2.899460309943249769e-01
2.685944859762199322e-01
2.783890597609999795e-01
2.439688096439683596e-01
2.716240530670354092e-01
2.481685022589545375e-01
3.088647759734865494e-01
2.164877711195178356e-01
2.538578420277988190e-01
2.754824434683165180e-01
2.666984075419569500e-01
2.748875373200563299e-01
3.206584110303022372e-01
3.236953637545783025e-01
2.870032147022822389e-01
2.953866853188219510e-01
3.431185624996688777e-01
2.907117089242756691e-01
3.180331353299593600e-01
3.256988111336932556e-01
3.294007776477478888e-01
2.460023107281619215e-01
2.572897319552577278e-01
2.970172200041134580e-01
3.296169684548426182e-01
2.663166260669904695e-01
2.545902657042676265e-01
2.592730802028697101e-01
2.530394764166795651e-01
2.115367150265831664e-01
2.971877812196047630e-01
2.732700760304008769e-01
2.389973415860847383e-01
2.509796731581143137e-01
2.622925944208550630e-01
2.232505949638796672e-01
1.777964806418089461e-01
2.192624759418340952e-01
2.047878493271021449e-01
1.839674801979559182e-01
1.999993375763124415e-01
2.066408463969661713e-01
2.124938597294701859e-01
1.667873058160356248e-01
1.800413665426600640e-01
1.274863981519591682e-01
1.824782858830758525e-01
1.242456853276305007e-01
1.657334267060269761e-01
1.925307540398203121e-01
1.232904195847240314e-01
1.617132373237955001e-01
6.867878039630143094e-02
1.846101907325750080e-01
1.369440434535927897e-01
1.042775639942506161e-01
9.503852725185048256e-02
1.025685587500779483e-01
1.549082692860754285e-01
1.230402173708917690e-01
1.119034168074881375e-01
8.053491067977647244e-02
5.301261678590358378e-02
1.145195059063178616e-01
1.019902220509366075e-01
5.862443286618644611e-02
5.552966580589288603e-02
6.854493687860468976e-02
1.057956161746834156e-01
3.905729675397810741e-02
4.347313474932058136e-02
1.546917777654691073e-02
2.993924533801522320e-02
5.904284280099836302e-02
5.761957425352413897e-02
1.460005240624890344e-01
8.822750910577029093e-02
8.891949323132866678e-02
4.035875545706636702e-02
4.031956670697658951e-02
6.617731363846346415e-02
5.591460571264552509e-02
4.997089346426500378e-02
2.654754782171305297e-02
5.214931259975314620e-02
4.498497491510265733e-02
7.570683696499747040e-02
9.642638723222528296e-02
7.060920227758199497e-02
3.397965891721720089e-02
7.437146708281952567e-02
4.446024297186667446e-02
2.557853367976767670e-02
8.147966238155532337e-02
8.698481249369857671e-02
4.346895498251981960e-02
7.278483844460505170e-02
3.962180142625404411e-02
7.579832763718544197e-02
7.444986183887519759e-02
7.613303250981079406e-02
9.294207894260123060e-02
3.671201304858043302e-02
1.569343688856812691e-01
8.816390423905617890e-02
9.423387986443845787e-02
1.773038850424619173e-01
1.140069063766059043e-01
1.050956379937073165e-01
1.023490279125233715e-01
1.140516114153475591e-01
1.341513953988648089e-01
1.282943351101370200e-01
1.431625167852872416e-01
1.407018291275631272e-01
1.247338067920426841e-01
1.314460247091958911e-01
6.978195414390683804e-02
1.551053587167547931e-01
1.471121937048603112e-01
1.886355785240477201e-01
1.957361562005593691e-01
2.006835886350548659e-01
1.595603784816352344e-01
1.691380538537063105e-01
2.154516632461164760e-01
2.048809401208841752e-01
2.030625837758336383e-01
2.110359701245832498e-01
1.719923906245705014e-01
2.004927334437155984e-01
2.086969740761500935e-01
2.182872290305574170e-01
1.721248416739376563e-01
1.978906388634060487e-01
1.539415298581066072e-01
1.637218825409194056e-01
1.692186329720749560e-01
1.861487108543400937e-01
2.286635680759170064e-01
1.499626534453648297e-01
2.003226389207363456e-01
2.062285228742321286e-01
1.654828157888945661e-01
1.979901588731426132e-01
1.337017466212969963e-01
1.690775469669248687e-01
1.752240082566337565e-01
1.774906207739891939e-01
2.102808776326659801e-01
1.995931133009067326e-01
2.122900847577333383e-01
2.521741999449462757e-01
2.150128420536537299e-01
3.582232817427291605e-01
3.343418255707550912e-01
3.728251531578096190e-01
4.332689386949030164e-01
5.706709361384628698e-01
6.237515731863055857e-01
6.326046693670857035e-01
7.617883359151131906e-01
8.423578477043639490e-01
8.842413812987306443e-01
9.926234517686407521e-01
1.066422907794964958e+00
1.116436758082289593e+00
1.177459073467374440e+00
1.276495290752200695e+00
1.267684789785247901e+00
1.304328081248097737e+00
1.342622733742621088e+00
1.278619333193425689e+00
1.316948514606887555e+00
1.282202659143137913e+00
1.206311040851846039e+00
1.168564711780126775e+00
1.087135707762965531e+00
1.008672695647460094e+00
9.407376057442288220e-01
8.658758936101448311e-01
7.400997480477797819e-01
7.173077573768152915e-01
5.922466995437656312e-01
4.845803359020545154e-01
4.439590564850144916e-01
3.259263073022154455e-01
3.498415620272386506e-01
3.124833611705590264e-01
2.635358856774295266e-01
1.712430598312590646e-01
2.245677302664185471e-01
1.362663288892907165e-01
1.728897699159534507e-01
1.750492037255841626e-01
1.716827018370257196e-01
1.880085422308026555e-01
1.278081776421282623e-01
1.470239017232325696e-01
1.781091649558601830e-01
1.715644625046144622e-01
1.904490961933583693e-01
2.049387204050887312e-01
1.430733992281646438e-01
1.710629612158665325e-01
2.051338545152381343e-01
1.915221703948978560e-01
2.613034266514833726e-01
1.305506410825727215e-01
1.857510145332208484e-01
2.452159016944787662e-01
2.263901775559372109e-01
2.333653340525690123e-01
2.627857614290060040e-01
2.784355819271878141e-01
2.272965025608739975e-01
2.226776173346992627e-01
2.928706210480823136e-01
2.308335656671495761e-01
2.546645438379670501e-01
2.847580960360305280e-01
3.098787251213347416e-01
2.883820073451682786e-01
2.905097690052058090e-01
3.342104680080330015e-01
3.266006241556637102e-01
3.117179814631104162e-01
3.147264719112030651e-01
2.823109727630780386e-01
2.259470654312623061e-01
2.996086728482383332e-01
3.070828101627470774e-01
2.887087778662267290e-01
2.629338269163939978e-01
2.269363318464042156e-01
3.034428504153417472e-01
3.049036605145879486e-01
2.550893598768043113e-01
3.901693096413853534e-01
3.054845946057205830e-01
3.424752709260479588e-01
3.170502849589134642e-01
2.901548408552652170e-01
2.683864324419932834e-01
2.716610521531920841e-01
2.720543036203404985e-01
2.285985483376730687e-01
2.510671044340526126e-01
2.927261215798798721e-01
2.504110441595531200e-01
2.499440567637106758e-01
2.419778083336392160e-01
2.443269627448083903e-01
2.325600181815872802e-01
2.452431522112680784e-01
2.797098736427485743e-01
2.745832803224762531e-01
2.493759246276923136e-01
1.978498668662120041e-01
1.975458756605489308e-01
1.713292686489399363e-01
1.888857063798534963e-01
2.022315605966736318e-01
1.482381190743316535e-01
1.260748453064785002e-01
1.674500083413816842e-01
6.336517702770287641e-02
1.579903398471938225e-01
1.135809216904998531e-01
1.526097843880598603e-01
1.278452777615811109e-01
1.341732247302100667e-01
9.181862708749957691e-02
1.583471487769640140e-01
8.516271326979910072e-02
1.470537285113367731e-01
7.956688139336307031e-02
9.412636878171147525e-02
5.941623443342076288e-02
6.492742217596014775e-02
1.197712734131990975e-01
8.788407057594943561e-02
8.666240651417517205e-02
5.794380561444899963e-02
5.862319391346145631e-02
8.837731912842324011e-02
5.638980034039665912e-02
1.096868295312317665e-01
3.936269535197613884e-02
2.871154787385563761e-02
6.590829777620704766e-02
7.014530963012630127e-02
-1.321930565542615149e-02
1.079570910488145824e-01
7.572642251744704511e-02
5.751028652460161983e-02
6.261888478998771379e-02
1.266024847080154947e-02
1.816353740439762693e-02
4.854512538671384297e-02
1.897858175907323613e-02
6.206119044310018373e-02
3.906033220641586673e-02
4.974869375693872359e-02
3.135328468021201381e-02
5.781789356083142511e-02
4.138585162342564572e-02
2.632984352403908851e-02
7.316182872161765272e-02
5.711913923131915760e-02
7.847082115509174116e-02
1.318459701712598742e-02
1.995263119718806294e-02
6.433493598028580673e-02
3.220370360335940429e-02
2.920075306954644442e-02
8.257940175717520814e-02
1.590157644731898107e-03
4.396515185671440867e-02
6.017091737736518509e-02
6.267366162346443836e-02
2.766319990822828714e-02
3.850313623979619015e-02
7.480693974922147937e-02
-6.871524983486310134e-03
5.165975834028306568e-02
8.009527835422147746e-02
7.690855492547024608e-02
8.314305479937231236e-02
8.369231710442257000e-02
5.669971833045073933e-02
8.406967117818633928e-02
1.076786122886294744e-01
1.386983997387224998e-01
9.516337676302702442e-02
6.785175635091125756e-02
1.264217717255315954e-01
1.243189934382933626e-01
1.293784763840949981e-01
1.058185520291542586e-01
8.891073373339199171e-02
1.674694481965080528e-01
1.441784668478063858e-01
1.685014185908314255e-01
1.311640784471425070e-01
1.423758320349376993e-01
1.475923148703209842e-01
1.217067487054090680e-01
1.677290723355671642e-01
1.460515447339225392e-01
1.572817434821575655e-01
2.136580324475884640e-01
1.584144363373829745e-01
2.020310798365064220e-01
1.477311212396332230e-01
1.745269292197765831e-01
2.194438614244742791e-01
2.025605344055728951e-01
1.728155108987619870e-01
7.470351298170280208e-02
1.423041945107782758e-01
1.930612506846706988e-01
2.178372702130779714e-01
1.498952139808136519e-01
2.064621614230400526e-01
1.527025686447349151e-01
1.539130357227410650e-01
1.829495587250017929e-01
1.877082311313635621e-01
2.186755492870420259e-01
1.597764530501967484e-01
1.706322247815884874e-01
1.288076769435689550e-01
2.630977878517574142e-01
2.482740567861695391e-01
3.038168918102329696e-01
3.615597873404556850e-01
3.876314612441286722e-01
4.744305381922190312e-01
5.469113145121881070e-01
5.840961599197757037e-01
6.616186455387178533e-01
7.730466111298525123e-01
8.518614532736239475e-01
8.938420737325128984e-01
1.013939734415838512e+00
1.116746571852092584e+00
1.103010563423631574e+00
1.288082820954189467e+00
1.202338756688515309e+00
1.302941564265060359e+00
1.252301634192146240e+00
1.297317453981995161e+00
1.263765428120036782e+00
1.260715840227064399e+00
1.230734541787284142e+00
1.127790676008647797e+00
1.081052947736445669e+00
1.000754067157629379e+00
8.603935738012722378e-01
7.790212058770774606e-01
6.540018742243622896e-01
6.671234400607287673e-01
5.325670428713579208e-01
5.210820961656476014e-01
4.543699416870640162e-01
3.700229147240524652e-01
3.335984118332176451e-01
3.473214254967880721e-01
1.995971520280167000e-01
2.108662321165958864e-01
1.562371957971707692e-01
1.496380752603057029e-01
1.764405528117416466e-01
2.060712090772799376e-01
1.270786568346651269e-01
1.079111719460704999e-01
7.269596611932283015e-02
1.512331304059305881e-01
1.002303779035636916e-01
8.613878804555658020e-02
1.185502021348624480e-01
1.193368086509862397e-01
1.191549127725080870e-01
1.710067607915237153e-01
1.502769006056119960e-01
1.597863507771902225e-01
1.416296783122657499e-01
1.506020558532438491e-01
1.621608635735003745e-01
1.964957932455102807e-01
1.207571991787911858e-01
1.883246371901578231e-01
1.766830903965695143e-01
2.429633539772058926e-01
1.787810777499882764e-01
2.678142697914753789e-01
2.542054710453587330e-01
2.000998380090589501e-01
1.835526948130560276e-01
2.221212186402444499e-01
2.182300689597345411e-01
2.624550244906379004e-01
2.643659224249065298e-01
2.498439781509478874e-01
2.563962017599308862e-01
1.917847458569722496e-01
2.743887603376510831e-01
2.842727741422971244e-01
2.529796578001247687e-01
2.636604538376984830e-01
2.482922952128295835e-01
2.482486426908722954e-01
2.345350808160377165e-01
2.531179007893429866e-01
2.597404237459411402e-01
2.750905328161348251e-01
2.508762670458351551e-01
2.308324298986108580e-01
2.430256371003174654e-01
2.423713268934115095e-01
2.281456986531213982e-01
2.530456108490238276e-01
2.683169395979616567e-01
2.049390545514052087e-01
2.502949079484499406e-01
2.285701927504085185e-01
2.271669036966251221e-01
2.470569911330329493e-01
2.231922196353782195e-01
1.693211795607043046e-01
1.940747706010150231e-01
1.887713402753799230e-01
1.751888075449401783e-01
1.735623012294345291e-01
1.524612688954688489e-01
2.231042144942325667e-01
1.863143898296078793e-01
1.594427368647109156e-01
1.543765808007138418e-01
1.297647179205774770e-01
1.770427639502858697e-01
1.405429434462972804e-01
9.872417602614801113e-02
1.172649408225389933e-01
1.029763562848531877e-01
1.353918298536006815e-01
1.598645764560054916e-01
1.241258495258187738e-01
9.126831091684217689e-02
3.979368150444599628e-02
4.998572564579296246e-02
1.027727200994953266e-01
1.066803712085262340e-01
1.798709793802403742e-02
1.639244996627878953e-04
2.378394528195085234e-02
6.621634456579250649e-02
2.030245493211935495e-02
7.887850250806718866e-02
5.542099472427478024e-02
1.934000256849562061e-02
-1.595188519312833522e-02
1.951951520396526252e-02
7.426846510258576506e-02
-8.015125400651194887e-02
1.019886698608221676e-02
-1.674338546030120986e-02
3.003247110733139533e-02
-2.969935683035905549e-04
1.189962227176387735e-02
-1.433982431628390633e-02
3.088608994854117121e-02
2.984734958619027212e-03
5.110310384203727713e-03
1.541873361351839625e-02
6.430010492469086236e-03
-2.508819125245727658e-02
-4.212992913169522069e-02
-5.200221057289242804e-02
3.558793391420081442e-03
-1.533488534861364438e-02
1.982612172375266407e-02
9.094551621514020134e-03
-3.636334854141654721e-02
-2.449961772784742947e-03
1.393372654594287816e-02
-3.693693836393098506e-03
-1.468433907040520708e-03
1.930679184703750634e-02
-5.887306167758479813e-02
-6.078160053968304638e-03
-3.074794952366548956e-02
-7.985391322789171797e-03
1.326710443742978515e-02
-1.023443407498061432e-02
2.476854973368809720e-03
2.752495094000907694e-02
2.899796964119756223e-02
1.732749610245080257e-02
7.911237245419311392e-04
2.323910507928848498e-02
-1.350125170697132754e-02
-2.200724409315360508e-04
1.515497499260776149e-03
-9.388648680728323842e-03
1.392354522027320143e-02
2.593429694410637545e-02
2.636307051005549323e-02
2.302000562643475440e-03
2.295647898749604912e-02
8.047475368506321058e-02
5.352075676275903221e-02
5.736469709703017478e-02
1.085220549703555665e-01
3.522576858412874296e-02
1.323886966283321087e-01
5.490479229933413474e-02
6.385954335509409774e-02
4.470094004329761700e-02
1.044800071073732350e-01
4.551362918190808571e-02
7.697046973796869973e-02
6.593980954472417055e-02
7.149208938143823688e-02
1.345437827779977502e-01
8.618983515173836429e-02
5.874805089396817337e-02
1.128541577687441066e-01
6.504473926898836356e-02
9.631898168672685390e-02
8.226473145020854472e-02
1.622049943705020647e-01
1.392364407251115155e-01
8.197070204797951565e-02
5.715615038131161701e-02
1.079353983817650242e-01
8.718703226465379652e-02
9.456809171807950554e-02
1.002276261947988301e-01
1.148151276026327938e-01
6.190385704140406037e-02
7.834024698151308141e-02
9.423186423867391248e-02
1.476851423392368523e-01
1.108588774044836078e-01
8.631675375695366248e-02
5.643646354017057415e-02
1.216275816581560004e-01
1.413748743629838767e-01
1.395472965051026137e-01
1.634398908787940141e-01
1.059026915498079147e-01
1.968439819896423415e-01
1.970372754329095810e-01
2.578380091431285992e-01
3.277449048167429546e-01
3.118503052034905521e-01
3.881191418807876659e-01
4.645240491600979293e-01
5.137514815145963754e-01
6.189086924542160917e-01
7.381202860382594100e-01
7.948288026230938552e-01
9.059093582920183518e-01
9.365038905052712748e-01
1.006966815128690795e+00
1.086837536737971233e+00
1.157736400114382391e+00
1.205419067671041455e+00
1.215605315863624858e+00
1.286132058655683252e+00
1.231988645607677402e+00
1.252717115252672375e+00
1.193302078674494560e+00
1.162938028677119817e+00
1.107293114891725994e+00
1.022856143617554059e+00
1.003770087513972786e+00
8.643646497996071432e-01
7.986027778612575512e-01
6.790304617376605734e-01
5.812231853187017627e-01
5.204013717509171633e-01
4.313747432950609806e-01
3.699552863260802127e-01
3.066030489780785517e-01
2.331940851339335818e-01
2.304329637784721940e-01
2.134154412738671069e-01
1.631937525795929822e-01
1.432233372450824327e-01
1.515858382377102687e-01
1.244011115922955268e-01
1.144252110778480186e-01
6.002433636962445362e-02
8.267087544430468116e-02
5.505606456542919136e-02
1.033369507077329247e-01
7.937801010603437457e-02
5.218931327192982000e-02
1.257205188605838297e-01
1.266385769773676062e-01
1.117419363248232378e-01
9.209607108548380217e-02
1.194001033317211580e-01
8.352330987449559097e-02
8.277860637645767516e-02
1.065375515524513428e-01
1.652541683183696986e-01
1.204135523387290241e-01
1.482283904235713046e-01
1.445959134380429834e-01
1.385835711228875777e-01
1.141520618221375793e-01
8.471319633813195749e-02
1.605318788499867921e-01
1.720499561039467440e-01
1.717003808951024224e-01
1.528488490054231153e-01
1.209153427713258594e-01
1.483661957683403698e-01
1.402587100969369116e-01
2.268878367158424503e-01
1.863037803030757056e-01
1.426218482763720596e-01
2.225709568703424790e-01
1.989226333027845905e-01
1.939435655398615010e-01
2.188669690047757022e-01
1.578303305575382010e-01
1.573923339718242831e-01
1.846430839492862463e-01
2.393427963029893801e-01
2.107286678290183068e-01
1.945926894992995038e-01
2.742073570851823461e-01
1.517001102610750773e-01
2.128292605398010851e-01
2.002559420644594024e-01
2.108225726136702394e-01
1.922024432572883579e-01
2.211917538293720897e-01
2.078286751648433794e-01
2.107581888965970318e-01
1.835650074912847374e-01
1.383202492391811811e-01
1.982508601148603722e-01
1.978542852970190946e-01
1.798178619000876111e-01
1.819956187187009022e-01
1.462886069326214122e-01
1.843139458614729276e-01
1.333718016781250681e-01
1.763320316545051170e-01
1.415662853180784664e-01
1.170023509972386855e-01
1.392937948530689196e-01
1.033952669355471254e-01
1.131901042071420116e-01
1.544457859377696418e-01
1.302327353790665998e-01
6.774923951832798052e-02
7.968561659076772719e-02
1.084827223104210536e-01
9.388235751958340369e-02
9.345748073886625540e-02
1.078253534684782966e-01
2.077386762063806319e-02
-2.224776373624902381e-02
2.492364877330398298e-02
6.951047870720364341e-02
-1.971162908370604344e-02
2.801692247927332208e-02
4.691816120126107020e-02
-1.218045907114967408e-04
1.414227994821863621e-02
7.721496675785430308e-02
5.145272438549844396e-02
5.944877891920458124e-02
3.340164375886417458e-02
-2.378398916216986972e-02
1.467162507377429981e-02
1.720747198358840713e-02
4.785669993619248719e-03
-1.632512446638626630e-02
-2.570486293866497407e-03
-3.204502536316743838e-02
-5.213499954177841511e-02
-1.248160789716491054e-02
-7.694016322796719265e-02
-7.218602278986679943e-02
1.859562082019490525e-03
-5.040984339488833316e-02
-6.360479389537979089e-02
-1.637925886881667209e-02
8.681170059062055799e-03
-9.845649890418160799e-03
-2.866237402064375495e-03
-8.221566278040665088e-02
-5.323119216822646410e-02
-6.522725021929577649e-02
-3.388741452029198770e-02
-3.067039374126628512e-02
-7.239034635445096288e-02
-7.268690463697664861e-03
-8.183226059694945209e-02
-5.198825337858491158e-02
-2.968110444903396955e-02
-2.477078095731042456e-02
-5.117912309663624759e-02
-6.409988397058280496e-03
-6.777244362732290361e-02
6.391482308146193003e-03
4.025247275372081934e-03
-7.415396880642126376e-03
-3.219362174481109340e-02
-2.070843952951026759e-02
-6.388665146764918590e-02
-3.197032047335896660e-02
-7.008785620897607649e-03
-6.932884490662051535e-02
-5.839167954176827102e-03
5.151041208434098406e-03
-1.187734839245948443e-02
-3.583858883379176241e-02
3.527315262394359330e-04
4.385160359066150870e-03
4.654036933797039977e-03
4.355130464819864655e-02
1.928004296885978824e-02
1.836708071161514966e-02
2.523170573196264338e-02
5.435025108267628469e-02
-2.467763003810957700e-02
3.929623124388602340e-02
2.171574695323685161e-02
5.757370555751926272e-02
7.814230233466842868e-02
6.008310676128771066e-02
1.266324260016905567e-01
2.973966922737834168e-02
6.151675030741822481e-02
4.445572218559906696e-02
7.678400091820933304e-02
1.345675711863490026e-02
8.640393758476125341e-02
1.258742197115006733e-01
1.020035385859471566e-01
7.581298123878152384e-02
1.228262415308166572e-01
1.256952536475033355e-01
1.154431928206577640e-01
8.903990735722278060e-02
9.405877293937173200e-02
1.146552465089600015e-01
7.324664136290337524e-02
1.070061933505547791e-01
1.119001742221133189e-01
5.375998877445085922e-02
1.138467570556668251e-01
1.030163209863467766e-01
3.783490121929020122e-02
9.429003194016608025e-02
9.780989761477804079e-02
1.254632891914279624e-01
1.192646586578104129e-01
5.188053642942650617e-02
1.027946720400505221e-01
5.436331771980943556e-02
1.079868684803216572e-01
1.323718872923414780e-01
1.246120534321730894e-01
1.796108152916661427e-01
2.311158868476048955e-01
2.106815026591938311e-01
3.249628067715515378e-01
3.062150660892880571e-01
4.151684527490634435e-01
4.624815129456516516e-01
4.836276178833091022e-01
6.373305920439670258e-01
6.098072496201469850e-01
8.224333764199779351e-01
8.329967517140712818e-01
9.037600600765340886e-01
9.923757976317497675e-01
1.082367025556901119e+00
1.161918211632532838e+00
1.136739806335900438e+00
1.175004512537068502e+00
1.271317723545053902e+00
1.244149119900520128e+00
1.236055572098409439e+00
1.168942675491149608e+00
1.148691220592654938e+00
1.073159584611739215e+00
1.038951804496260678e+00
9.142745702242284223e-01
8.743492603809465136e-01
7.818377153149932424e-01
7.271650438222224677e-01
5.751264491662411160e-01
5.369324708246159261e-01
4.386286222642297727e-01
4.131008393554476132e-01
3.216139767457807386e-01
2.169163316045348844e-01
2.307011187151268294e-01
2.009732563642245562e-01
1.922491727476161871e-01
1.613631471917329752e-01
1.035018306868599747e-01
7.812792805305146526e-02
4.612171781514558255e-02
7.233727587458996244e-02
3.421117369216693932e-02
5.494573776999795572e-02
5.167591317115025756e-02
8.965800289422121150e-02
9.804754454043390632e-02
9.718157844227620634e-02
8.883944704135207648e-02
7.691374160745177713e-02
8.888801612733074342e-02
7.315314541613912591e-02
1.596161226415267753e-01
1.252034657030219877e-01
5.127588961292903896e-02
1.037429217134035464e-01
9.268679767969523198e-02
9.488741674684922356e-02
1.161754181878348474e-01
9.768381863729261316e-02
1.714549013711849645e-01
1.726076392944773108e-01
1.339828089842177716e-01
1.893335258802729126e-01
1.719566961958932105e-01
2.244663757845776209e-01
2.402873421623334949e-01
1.387564334322945458e-01
2.096231037706223488e-01
1.915145482415347433e-01
1.715195570738992925e-01
1.811562555330298585e-01
2.206648983566447675e-01
2.545878010905615607e-01
1.697330831706336807e-01
2.626588656264661203e-01
2.146461408760660383e-01
2.035988043288231575e-01
1.876489458008617217e-01
2.813160968796749040e-01
1.987765502771305093e-01
2.200776170220554162e-01
2.646094310108995651e-01
2.095562616647895227e-01
2.166410435711595417e-01
1.919805121877841692e-01
2.363683169594840705e-01
1.799703477581154343e-01
1.620005944238011308e-01
2.520741614650120477e-01
1.755536833894091042e-01
1.656063661999259695e-01
1.849382136469490678e-01
2.450992810051884074e-01
1.883795891304893833e-01
1.772207968570113923e-01
1.343568154401549863e-01
1.991070687216139057e-01
1.485939071211248019e-01
2.494193471680413443e-01
1.202356012745569858e-01
1.466293836427982056e-01
1.082620942782376028e-01
1.223438647634168819e-01
1.576701199830449485e-01
1.304928816368773059e-01
1.295399550618967499e-01
1.415879334574546289e-01
9.672645691166388560e-02
1.320033253155182829e-01
7.914728976698742757e-02
4.469672959006949775e-02
1.177273395563572106e-01
7.858706058098868796e-02
1.024978785467825643e-01
5.060359246437286240e-02
1.170961901886555800e-01
6.158641326890895717e-02
9.878310534609341387e-02
1.445372157305276073e-01
1.520920189879667456e-02
6.290183143991742720e-02
1.145445152301503844e-02
2.931756352603126503e-02
7.321590927057518294e-02
2.825542545761749666e-02
2.857933574203827889e-02
-1.652102160769560596e-02
-8.587665563700271759e-03
-5.105435297585957793e-03
5.303743882569243034e-03
-3.759507960203831850e-03
2.602947812861200125e-02
1.560360026930178792e-02
-1.473757018418496781e-02
-1.236530075226416857e-02
8.563465483358498331e-04
-3.649515457832023385e-02
-5.189155574595841203e-02
-6.811842863573538964e-02
-1.850773361398776184e-02
2.537324892236988635e-02
-3.688064502279098100e-03
1.765708832309201975e-02
-4.869679205547192136e-02
4.646893678223643770e-02
1.633933717490022169e-02
-2.660138255092036469e-02
2.648943011228063402e-02
-1.277944173887756753e-02
1.766413180046716436e-02
9.446421492635036915e-03
-5.443779975798153370e-02
7.511496325852875383e-03
-4.119578397506849787e-02
-1.376403950074436139e-02
-9.017207756304525257e-03
4.062623733811039639e-02
-9.569591672970584328e-05
-8.688648385762344148e-03
1.873889480442823136e-02
1.623860931926274231e-02
-4.471354252156783254e-02
-5.484711813917064749e-02
5.340763538706912172e-02
2.080781768520867728e-02
-4.472624543583846035e-02
2.725075502012868842e-02
-3.444621084354902718e-02
-1.850043094619077330e-02
3.651795024114761617e-03
2.347569595302756787e-02
-4.596944039947903349e-02
2.017110666727053858e-02
3.672989920833285432e-02
1.100227223149149655e-02
9.150427153459006480e-02
4.052605910330082939e-02
7.250295443358702185e-02
6.378896960057971188e-02
5.550238844425629814e-02
9.007407832581755536e-02
8.634883760784843598e-02
7.885299595340032608e-02
9.190845121004678764e-02
6.239246095765919181e-02
4.164868270284358132e-02
6.517087292309445279e-02
1.277664376739904850e-01
1.208788391092783521e-01
7.456333167286588459e-02
7.798066598932301696e-02
1.129634486885210953e-01
1.074625651838450047e-01
1.184374012074728977e-01
1.369429835546238372e-01
1.018887995528294788e-01
1.213814319715375845e-01
1.766339709200909491e-01
1.147775423158639979e-01
1.406344253397315835e-01
9.963332236494680527e-02
1.289789902864787730e-01
1.642689201907865937e-01
1.462706336589804368e-01
1.219292389985653091e-01
1.056276356582781656e-01
1.141564567088333843e-01
1.498154997069534589e-01
7.534651963344249359e-02
1.163187236259242835e-01
1.298851683855840877e-01
1.555737751993185314e-01
1.943899913344961650e-01
1.190228947866995984e-01
9.701907182017320552e-02
1.780747362631912856e-01
1.794783603453114218e-01
2.036178016890555220e-01
1.994966260239027511e-01
2.242482316791721830e-01
2.708027657455172044e-01
3.140918662483269119e-01
3.570933920865466682e-01
4.206573980350913899e-01
5.186315522232004538e-01
5.697903827797253795e-01
6.623383729916333396e-01
7.271842122135423470e-01
7.935508047514128194e-01
9.161132267169295185e-01
9.159385694822477220e-01
1.093220576992567139e+00
1.125261172124734532e+00
1.132590312342154126e+00
1.154301054365452606e+00
1.254692828618913847e+00
1.270267578657832352e+00
1.282860634800450539e+00
1.234800651403082039e+00
1.241261352228085313e+00
1.210854957391185316e+00
1.157746639951941603e+00
1.101955917708784094e+00
1.028418178755352796e+00
9.425265190351456157e-01
8.129381758572491457e-01
7.454011421737158916e-01
6.737546638890283823e-01
5.910146302435257404e-01
4.997516514377018382e-01
4.524244120343549058e-01
4.019316997486986898e-01
3.777039845643963556e-01
2.692998960630011429e-01
2.512595918834130138e-01
1.986243691757763608e-01
2.175193289154066789e-01
1.779866645521172019e-01
1.075019209874123194e-01
1.396490859119014216e-01
1.794822050857141638e-01
1.190470564522001229e-01
1.770312444647871020e-01
8.740113288679890458e-02
1.698503957036752998e-01
1.360463053889139351e-01
1.363110440504522458e-01
1.371845401426040334e-01
1.036031818104481972e-01
1.410995412645694169e-01
1.030825267101085629e-01
1.468328689891993943e-01
1.498287909558932984e-01
1.313728402030014675e-01
1.904710960272897879e-01
1.688468754886524315e-01
1.686177102833927577e-01
2.009925136085846109e-01
1.930992611940050563e-01
2.170120713357706066e-01
1.799411743106988371e-01
2.011727389692620493e-01
2.121252225266190561e-01
2.490674134473030432e-01
1.801943875992867428e-01
1.906443913512465005e-01
2.542944626425010513e-01
2.226293895925946509e-01
2.377310442600339968e-01
2.349609843964667877e-01
2.431031638722366273e-01
2.387336567539046495e-01
2.599296579284779973e-01
2.592020369149117265e-01
2.927732905178238587e-01
2.188087465431841350e-01
2.763089190505631509e-01
2.426727240947747222e-01
2.531758338354565541e-01
2.709434820255480769e-01
2.230141702920966917e-01
3.170449302107724576e-01
2.738811833376157967e-01
2.479400010940673582e-01
2.865456747860377074e-01
2.943722819556669479e-01
2.534959367945476272e-01
2.509128525173227042e-01
2.202996861846271415e-01
2.666388469379155080e-01
2.817869842399701175e-01
2.325061938141677886e-01
2.408258323381994859e-01
2.246029243238945317e-01
1.811675242069739622e-01
2.146275945448290756e-01
2.554303297123984295e-01
2.519490669899502322e-01
2.285953794522639637e-01
2.166059406283143696e-01
2.011252841040983008e-01
2.289734117469667818e-01
2.169566224113934905e-01
1.892704061275971850e-01
1.630490282407214275e-01
1.213454239274876917e-01
1.825395773553139811e-01
1.671762951535746278e-01
1.657217184084197603e-01
1.591266850378920961e-01
1.374559839991831289e-01
1.000784023279229773e-01
1.204741533482577287e-01
1.367586355338693271e-01
1.397032149000310419e-01
1.264871141207089822e-01
1.310442970389205097e-01
1.113259409150922086e-01
1.156675595442204912e-01
7.084434228129049549e-02
1.213773054978461441e-01
4.599170199404895021e-02
8.868198607847060932e-02
5.709999603639835664e-02
1.426889703159812395e-01
8.889608047291094883e-02
7.694063519434625464e-02
3.823854679513931376e-02
1.250204603254306823e-01
-5.754697992956501335e-03
7.604325529512012682e-02
4.741958888035002068e-02
5.223429340472365845e-02
1.439607503246185735e-02
7.980327311531015821e-02
8.650960300319952834e-02
6.781900975068140547e-02
3.633507514050600407e-02
4.284386602772008446e-02
-2.152335655543448009e-02
8.767945591709351560e-02
6.732226349889196271e-02
6.868606203402491395e-02
7.331919596546671025e-02
1.317647222159170489e-02
7.847659240018955984e-02
3.663914066168075245e-03
-5.143724451702168243e-02
8.162043878096429672e-04
7.686681178533788517e-02
3.175350800467339335e-02
2.439509365183488432e-02
6.169265681600186180e-02
3.616797231360961012e-02
1.002162109377460752e-01
2.430917611148298435e-02
2.693460276844645770e-02
4.916594672498103558e-02
4.923051664020407225e-02
3.463125481021159247e-02
1.266628917830900092e-01
4.577148802844877712e-02
2.306067326419437846e-02
5.353601909213012711e-02
-8.958766319084876528e-04
3.075595183683025105e-02
5.425076203806340758e-02
6.223421216478206008e-02
6.042431816465704958e-03
4.527422818977552832e-02
6.272286622355174868e-02
9.170160044963644730e-02
9.438543074400410071e-02
7.032279638191347992e-02
1.080134306128858190e-01
1.147103651637578492e-01
9.542885071675157038e-02
9.703426729383887728e-02
9.640350549778956002e-02
6.329128090138162743e-02
1.081885771300479526e-01
1.368667552061069714e-01
1.727313295069374255e-01
1.283450272383959978e-01
1.497033605693409708e-01
1.762355831096323044e-01
1.420209963577019341e-01
1.256382642401220329e-01
1.420232744425972138e-01
1.635484337358849294e-01
1.525678292034657324e-01
1.336102002727963256e-01
1.902183843023935172e-01
1.973912826901133843e-01
1.721884204838582400e-01
2.018356964010251386e-01
2.220037056802220965e-01
1.683505342994914278e-01
1.843444936024250802e-01
2.032985254165526612e-01
2.309704808538190490e-01
1.930283924436390630e-01
1.960729309833435796e-01
2.288081131264679824e-01
2.001579106658637752e-01
2.641260502464812809e-01
2.192430698598215599e-01
1.846788936258290104e-01
1.692276449354787604e-01
1.644370194113443095e-01
2.128023250186023285e-01
2.087682511486728121e-01
1.814890059744735384e-01
1.739936466437674301e-01
1.730627270082680247e-01
2.356039032397976574e-01
2.238362731251021254e-01
2.541173708345351168e-01
2.516280545340073282e-01
2.430320022202168140e-01
2.526487383191733382e-01
3.026679705012717547e-01
3.764937832569431042e-01
4.220862232554446480e-01
5.081470317918961310e-01
5.777432450237445227e-01
6.446863075540324450e-01
6.834897273269956441e-01
8.376787381260689669e-01
9.005051355359811049e-01
1.002084715820488636e+00
1.045354043627968244e+00
1.105808545743024007e+00
1.216984570956467726e+00
1.198082328949143127e+00
1.308943796585486430e+00
1.311085859149736299e+00
1.313159313668982087e+00
1.294070868104937988e+00
1.250551936584475277e+00
1.269423254577275229e+00
1.237895878571315889e+00
1.140944726982298763e+00
1.124201209123762313e+00
1.035144674622663352e+00
9.318013574344372607e-01
7.914517511106345937e-01
6.959848066243682352e-01
6.475905265063300886e-01
5.960214870419637823e-01
5.476287641792336736e-01
4.605024820776347227e-01
4.241973250161551467e-01
3.352973985332196039e-01
2.963957606742549933e-01
2.715591270089786624e-01
2.536117462712050852e-01
2.041408576000838249e-01
1.793597374960589075e-01
1.970417674699314059e-01
1.715477783811112933e-01
1.962512102905977773e-01
2.134676906936821550e-01
1.784852820362639036e-01
1.490997792373915110e-01
2.083390336144080868e-01
1.695548789269286649e-01
1.641820194375240849e-01
1.449563986558172202e-01
1.939847257071785624e-01
1.709039557631037709e-01
1.407096635653570793e-01
2.020123654810815628e-01
2.090520629966207133e-01
2.025530016701729830e-01
2.420069651131565303e-01
2.095439467054525939e-01
2.298356426653182516e-01
1.784438993806208018e-01
2.030727774678358355e-01
2.105221622060479691e-01
2.454298057369699027e-01
1.933685917685439293e-01
2.720802230785512310e-01
2.827130847236817845e-01
2.303832090925599929e-01
2.655184931726892739e-01
2.883005260253939661e-01
2.351938771290229546e-01
2.590020471472606056e-01
2.375755941595443232e-01
3.150144399805442919e-01
3.287299978729604222e-01
3.204138314571819413e-01
3.185465525937425380e-01
2.906216867496530520e-01
2.965178489179948196e-01
2.663630090070738810e-01
2.637785583720816396e-01
3.235407362552690236e-01
3.548801371895473067e-01
3.357985344296530728e-01
3.057669712327579226e-01
2.638823602215734088e-01
2.859764357454538386e-01
2.644172409010978608e-01
3.080371707245606050e-01
2.850260068394521173e-01
3.175314307620223375e-01
2.585573776457060768e-01
2.707189535430100102e-01
3.186292757816363008e-01
3.083601026238630416e-01
2.755371634701985206e-01
3.181921297328352827e-01
2.655589838544708536e-01
2.741082765600687532e-01
2.401388340823341627e-01
2.852765781242891374e-01
2.255642614148136993e-01
2.311901625785146575e-01
2.091047737526202099e-01
1.956709980506391999e-01
1.728575232637774572e-01
1.943184755702813127e-01
1.425575058591126154e-01
1.661129300077891502e-01
1.819761349290624775e-01
1.572357916170349645e-01
1.869328142327419395e-01
1.205147533668398940e-01
1.240435118289927585e-01
1.803640545567727349e-01
1.686544573400330371e-01
1.643733394425991867e-01
1.622558476084590695e-01
1.304018527981746223e-01
1.871163278936732177e-01
1.457509757184533572e-01
9.252656371213058284e-02
1.075199911113106366e-01
1.529724395562204742e-01
7.137852993142707048e-02
8.712772948480243529e-02
9.071622631872917897e-02
7.429318266962202377e-02
7.665252254557498868e-02
1.079732143190148819e-01
7.795347837260947765e-02
1.015181912960533284e-01
9.969390262831043237e-02
7.345647470996198580e-02
1.038062437497435653e-01
6.821977941650665678e-02
8.256493366934325451e-02
1.247987795776483305e-01
5.025484881121193570e-03
7.069989338546420199e-02
6.209136844510509956e-02
1.109473036792442135e-01
6.660939215730363183e-02
7.711818774932333032e-02
2.800226126892127465e-02
-6.877204580736602513e-03
8.632116856772117930e-02
9.441470901311226072e-02
7.279789496353106237e-02
8.671145004400518386e-02
1.409276539847673787e-02
5.832373382614388507e-02
3.270108610271896254e-02
1.073420241382446599e-01
5.551721700595849129e-02
1.099988403302201712e-01
1.149423308775309183e-01
1.053091892108163480e-02
5.487292907919424229e-02
7.155050592851204538e-02
6.848286756072585746e-02
6.063705153359424949e-03
5.364461875842865130e-02
9.092492949538569236e-02
3.248013269044594531e-02
7.093632507282449096e-02
8.050976849957675041e-02
6.777843597975569123e-02
5.397137503300476064e-02
5.366089545074576028e-02
5.353455104683494531e-02
4.023371303139062355e-02
9.429361473514577541e-02
3.806148224012198544e-02
1.415348842971749788e-01
1.030257361685074924e-01
1.291703499226098395e-01
1.160937342139518880e-01
1.134507932361374094e-01
9.211414841080997618e-02
5.016708789661078471e-02
1.538223980108869848e-01
7.867699615072629160e-02
1.777771659306097152e-01
1.120945287506389942e-01
2.329086642425582943e-01
1.673925042446788303e-01
1.386230347799476958e-01
1.578273594305913408e-01
1.729144325249910297e-01
1.233430240077077189e-01
2.142954952913355138e-01
1.788611323439252554e-01
1.589625159240708185e-01
1.745031867217785859e-01
1.875279193245873999e-01
2.436392903594051251e-01
2.241559403882314450e-01
2.870876262326976791e-01
1.844142529772523353e-01
1.669711656980560621e-01
2.357600536985283712e-01
2.232984312444948050e-01
1.898469898424647861e-01
1.564232071769898202e-01
1.444110596536926083e-01
1.862029298139153133e-01
1.692904593309985106e-01
2.015899521064881406e-01
1.827888983010823587e-01
1.384989660075938711e-01
1.730377844155865652e-01
1.651858171935425279e-01
1.564973931212966796e-01
1.959204455758765118e-01
1.748435155085560355e-01
1.718472971202276711e-01
1.962258762828033853e-01
2.150635954309053910e-01
2.506134987414764814e-01
2.563311952431929774e-01
3.224421400760039136e-01
3.254603578771890771e-01
3.689996486666566322e-01
4.040511806419407881e-01
4.623147097121274585e-01
5.308982268371483793e-01
5.908834180528654834e-01
6.019629445860932293e-01
6.828131805090089657e-01
8.185624622840871334e-01
9.425653714881864209e-01
9.955582787638097564e-01
1.083991792157676048e+00
1.097612030543249295e+00
1.192389838654091427e+00
1.241082262271860248e+00
1.276178186707746409e+00
1.332000815998281684e+00
1.329675608971796930e+00
1.341663134160468562e+00
1.350736303975839991e+00
1.261939446078146787e+00
1.197069311735537989e+00
1.147193859353942580e+00
1.056049245317284724e+00
1.057703731576713047e+00
9.727528902082597240e-01
7.944786264294363409e-01
7.457454265075148525e-01
6.565518963568330868e-01
5.561456780492430862e-01
5.587991141507625548e-01
4.490510689725504823e-01
3.632066306154605462e-01
3.535829246614484722e-01
3.228608865677776718e-01
2.986357299595931436e-01
2.015487914609193631e-01
2.009539781348216037e-01
1.802482978382708712e-01
1.527147554939803364e-01
1.931234501685547555e-01
1.251917220386691010e-01
1.076115098421724370e-01
1.262977937100552284e-01
1.475002340122909816e-01
1.659878447177494942e-01
1.500043361437196632e-01
1.399784827444531810e-01
1.293748753215349101e-01
1.508900220078797649e-01
2.470912701731260430e-01
1.645896910687101866e-01
1.772316827079562507e-01
1.897232496576513050e-01
1.470450138333101453e-01
1.669641870384484528e-01
2.361667041026179192e-01
2.121264721573372647e-01
1.988171865303452746e-01
2.202103640372229387e-01
2.004417723592494815e-01
2.185227905652857294e-01
2.556080562768452968e-01
1.916709281691502675e-01
2.801661657062209931e-01
2.619102468456002142e-01
3.102465611145733826e-01
2.781068883030222150e-01
2.399010782405236464e-01
3.023162138749176941e-01
2.475359627568591847e-01
2.556979888597697426e-01
2.546752404228678768e-01
3.191143989230008637e-01
2.915372540083595587e-01
2.742590375113444501e-01
2.977796419276764750e-01
2.757248606897332865e-01
2.599612597828906413e-01
2.615725989344977465e-01
2.724292866782019318e-01
2.875769684994999853e-01
2.638039656054821380e-01
2.439394336007687514e-01
2.343330128868468532e-01
2.925971401746599865e-01
2.960695011815878686e-01
3.353446230294734320e-01
2.996358698859827863e-01
2.745088366672369662e-01
2.577867021420100491e-01
2.571966204887868312e-01
2.808780641841400749e-01
2.449575276376152744e-01
3.153689453836891476e-01
1.465706996005543827e-01
1.556355109575347229e-01
2.490029945536657852e-01
2.017176479365957176e-01
1.879661276713480988e-01
2.123132059452124132e-01
1.963824287047012951e-01
1.769318528074856622e-01
1.421755778623112754e-01
2.341904485621827403e-01
2.124252346415662906e-01
1.545936655807317317e-01
1.562830457946704499e-01
1.630975654991287660e-01
1.736970670640858583e-01
1.339422565606959992e-01
1.215214039347846664e-01
1.176267322375975782e-01
8.828439484086764155e-02
1.067067323540484558e-01
1.663351737799455832e-01
1.195062899708906889e-01
8.584291714955011310e-02
6.175171239819886304e-02
1.360247491369941386e-01
1.009078689439446286e-01
8.375678961772425879e-02
5.587272785859299234e-02
4.921585328598138132e-02
6.777532429094279554e-02
9.350559387097340247e-02
8.870704785037313023e-02
1.168078215868535996e-01
8.115319152895394961e-02
5.250424671044341685e-03
1.102025564309611905e-01
9.861447566459778657e-02
7.371914041807056672e-02
2.355428934377266220e-03
3.938740690500852626e-02
4.924303631060396313e-02
6.447734296142072774e-03
3.980971244613025484e-02
4.859421200796486262e-02
7.033778787964832524e-02
3.267881578881524918e-02
3.649349669736595692e-02
2.487804760437345442e-02
8.126728840291658207e-02
2.742615925266138691e-02
4.930973414666188492e-02
8.574239211272991282e-03
9.907516344014138249e-03
5.655043955935721428e-02
-1.896935284440495750e-02
-6.584228976962149329e-03
1.568930227964291518e-02
4.698557560424949930e-02
3.457599623071412609e-02
1.275350970549416277e-02
-2.536092595444135872e-02
4.489454097195968996e-02
-1.529291610876608136e-02
3.174177275573179802e-02
1.781058520263044051e-02
3.152765129218011719e-02
4.572018100182087194e-03
2.648607252088642366e-02
5.998326050319457980e-02
3.191612890441922201e-02
1.366619793100481289e-02
8.081147979949311611e-02
5.500726353995571277e-02
9.821252794399418229e-02
2.931374388730833419e-02
4.401623433250779344e-02
4.537944652295711201e-02
2.996559259917883772e-02
3.859349439555401218e-02
6.987555978298859438e-02
8.577959555848212181e-02
9.163599064678341899e-02
6.286848910282931413e-02
8.880535321778365576e-02
4.222261657732415130e-02
7.562804713627427344e-02
9.030814111328462623e-02
1.294602811953770860e-01
6.338272902404952502e-02
1.058325199017531443e-01
1.522903852594925389e-01
9.142897280205299071e-02
1.141451277989369295e-01
1.075049360844426982e-01
1.114025444103951407e-01
1.224355925618231811e-01
1.431260692526373501e-01
1.371697761408308680e-01
1.368540374847675434e-01
1.787097877643427923e-01
1.376890449932858806e-01
1.124460510726725815e-01
1.518345437763845840e-01
1.537041620873416392e-01
1.309624631886160961e-01
1.878733472858238052e-01
1.510767368216852646e-01
1.571151136634497125e-01
1.618251150944777506e-01
1.202329550320753726e-01
1.362185302524007435e-01
1.320396369805257319e-01
1.066124181232012413e-01
6.270636260957128394e-02
1.500044978896117043e-01
1.285550308528600194e-01
1.786859244145766190e-01
2.043015889218911252e-01
1.743076121227484510e-01
1.593654925425985469e-01
1.762758512691423030e-01
1.298827511284980085e-01
2.074893278078988879e-01
1.739172303271807052e-01
2.288921820723305023e-01
2.182880809168544212e-01
3.210632821766571388e-01
3.854986719883773949e-01
3.771431120583087493e-01
4.460877803151335752e-01
5.318476234154578819e-01
5.494879880723759769e-01
6.488590878933478967e-01
7.596395175067499617e-01
8.085667054922975883e-01
9.176869074585084496e-01
9.452673336850069274e-01
1.022104589573575639e+00
1.106857833810815261e+00
1.163202960036662237e+00
1.223982072854491676e+00
1.264374017854805965e+00
1.278454240922191953e+00
1.271295960719045270e+00
1.274871667425425681e+00
1.240529273804976462e+00
1.175545202125768185e+00
1.100894913905024808e+00
1.020764279996400958e+00
9.896346735671496253e-01
9.121531616309862533e-01
8.201708626767436616e-01
7.751088495880459339e-01
6.001948657611360094e-01
5.496757174936279799e-01
4.451454103052894795e-01
4.110466731033312060e-01
3.549624610431011407e-01
2.919155390448471832e-01
2.744435328785309602e-01
2.910785412769773539e-01
1.768835400157062754e-01
1.415134118824866727e-01
1.517589538411382166e-01
1.374666440424379132e-01
1.035261147291484385e-01
6.259175058592308938e-02
1.304888645453345375e-01
7.655789167757526270e-02
1.071047045300623085e-01
7.498403666328799788e-02
1.039437592581887310e-01
1.053329743100402810e-01
1.531267674165007198e-01
1.946415800469465940e-01
4.426069687121843288e-02
1.575418512657371095e-01
1.165242089285742771e-01
9.444088123777114041e-02
1.511917633536773165e-01
1.390189950414947584e-01
1.307058409629503759e-01
1.922688492029041851e-01
1.940809559460082434e-01
1.554066582053084122e-01
1.814848107754422901e-01
1.260294258966924708e-01
1.805485054062897499e-01
1.777724591077489980e-01
2.305596677582909260e-01
1.986617584340774068e-01
1.892714263326175650e-01
2.544548642041274955e-01
2.070997218119951244e-01
2.318347723874327471e-01
2.021349627038636632e-01
2.468359160604898239e-01
2.186424213763211444e-01
2.452325849842755812e-01
2.256271034580049073e-01
2.723900575032525695e-01
2.576630552808756858e-01
2.053120751579639580e-01
2.270785791405375842e-01
2.730300831647498594e-01
1.968047414830246811e-01
2.660585048779816608e-01
2.252431761497995510e-01
1.740687944193901604e-01
1.995857529201685854e-01
2.398330439627858468e-01
1.979508110305688851e-01
1.972357651925638333e-01
2.269736169353623323e-01
1.558472292262345626e-01
1.790302329719182794e-01
2.352160568768911775e-01
2.136639761583453145e-01
1.618621605719391399e-01
1.868962133899702560e-01
1.895832266831115887e-01
1.930043489209647134e-01
1.867818021788914540e-01
2.193068835233328018e-01
1.892437941000634505e-01
1.753445259507630805e-01
1.573984936636800835e-01
1.410055037120396815e-01
1.243790727542574137e-01
1.005551251183906813e-01
1.392812808576994743e-01
1.190760671694101325e-01
1.202720408161519483e-01
1.132748031167228053e-01
1.518173378785912242e-01
8.187676781784519742e-02
9.042357281456189777e-02
1.136666177290380081e-01
1.703713353063740499e-02
7.208678479723054644e-02
6.953073887969835054e-02
1.258676294797703155e-01
6.111432171618745579e-02
1.498768880105359400e-02
1.000383538424919755e-01
9.203076146237976207e-02
1.003139529041505856e-02
7.373481882993419834e-02
3.153393892715383728e-02
3.112987538944608779e-02
1.568999992048882020e-03
3.730374162733696153e-03
3.026237332500057720e-02
1.103895216543180485e-02
6.814135920027389326e-02
-2.940852362767823469e-02
-1.370737051044880819e-02
6.183335772213140180e-02
-5.865348098600946247e-03
1.218811780691600455e-02
-1.174379878920401785e-02
-5.396756335171984387e-02
-2.106375340571983723e-02
4.085601060948725743e-02
-2.235022100202992482e-02
-5.075762519283809338e-02
-1.467579885926337604e-02
-2.161293187540829983e-02
-2.213856173454841619e-02
-2.360032690285705781e-02
-8.217648187752760180e-02
-7.607716971501339576e-02
-1.661837707439786649e-02
-1.700020810861055387e-02
-3.328714312496238587e-02
-4.785832919148649833e-03
-6.383861481910865776e-02
-2.829804497679701616e-02
-8.893097572204751444e-03
-7.268309121901507519e-02
-1.177760641956271392e-02
-5.120108236502158433e-02
-6.925483037251520257e-02
1.069438267245698820e-02
-1.246324130091749915e-02
2.475450619245082862e-02
-7.842299330359085718e-02
1.540935448391823892e-02
1.697283167139351789e-02
-3.510062922322206708e-02
2.466088594722953137e-02
1.090997070351527182e-02
1.589713771778147183e-02
-3.010071552604738632e-02
-1.118813112303027602e-01
1.564124801197226688e-02
2.497811823229108275e-02
-7.906960262431317332e-03
1.604262309246324431e-02
-1.329318170736752680e-02
-1.431371035078433593e-02
1.670283613191772543e-02
-2.615646652910724734e-03
9.899833942453284408e-02
5.224334936874879681e-02
2.863322268424665223e-02
2.070290255347560782e-02
1.488349347808722023e-02
4.954442332585794195e-02
1.539646793504426681e-01
1.256880819699985607e-01
8.419092338098752015e-02
9.191567050505096426e-02
7.728710885502576566e-02
7.170640481605367045e-02
1.202657333855940147e-01
6.296517358260514396e-02
9.712177281892853120e-02
8.861185046574798774e-02
1.125345522296491707e-01
9.181564249362798857e-02
1.423028534236489562e-01
9.478801318677074206e-02
9.231502386421901185e-02
1.555906810197221490e-01
1.253387236272997529e-01
1.944797651657759752e-01
8.579521212884450021e-02
1.143853900320576239e-01
6.893582080016269487e-02
1.114259716623389740e-01
8.109260047678977512e-02
8.694092285140925247e-02
1.245102093599866899e-01
5.164450048164878626e-02
1.162518969367653254e-01
5.578895213479156956e-02
6.163093108989098345e-02
1.287992663108563640e-01
1.218866287511927021e-01
1.517320839944910904e-01
7.760579274754624002e-02
1.374500906294180425e-01
1.704898393645030708e-01
1.516713512267096886e-01
2.497338363093442593e-01
1.673917604019571626e-01
2.145735831165982710e-01
3.382958980389643155e-01
4.395278639339643689e-01
4.485419316081318830e-01
5.045623807777117609e-01
5.726776342051025370e-01
6.663547400375287033e-01
8.169328201728810468e-01
8.428412807548768537e-01
9.122282517091724330e-01
1.104447514211761572e+00
1.080994414047411700e+00
1.098047851663175534e+00
1.186451925756709214e+00
1.285230370884951956e+00
1.212123215168871004e+00
1.182969569411183253e+00
1.206882178935180683e+00
1.214069608818471480e+00
1.175753519440521977e+00
1.061114860102021051e+00
1.074136174058930138e+00
9.997974546841698062e-01
8.365314549814453216e-01
7.632090247811973427e-01
6.697686031234546533e-01
6.097138549118092943e-01
5.108696321718491085e-01
4.407211201909212450e-01
3.727204033228661562e-01
3.448438207032267222e-01
2.938403895887922723e-01
1.994525652818867345e-01
2.420393377632265586e-01
1.555786122648201708e-01
1.646770494785803896e-01
1.012067310772796769e-01
7.514199246875306881e-02
7.807137489433060851e-02
9.178842336009518377e-02
7.007403647938313662e-02
8.631519415909066906e-02
9.552071969635761439e-02
7.924794125698744751e-02
7.529021858304266179e-02
7.102654856722481758e-02
1.045461413497401904e-01
1.319196215702135300e-01
7.182650185676842103e-02
6.213487020015906470e-02
5.922554812421189363e-02
1.072882841573229995e-01
1.153587128658450089e-01
1.262287132582911864e-01
1.791126283566660815e-01
1.399260739486392902e-01
1.464789568227196914e-01
1.694428633997646372e-01
8.783092783536539105e-02
1.384727709126790385e-01
7.684142373076217891e-02
1.346381323315958001e-01
1.589552753767066451e-01
1.506120006934661970e-01
1.496892896095324277e-01
9.019803005971349652e-02
2.082215059332689910e-01
2.221769260248627198e-01
1.718638189838284369e-01
2.393546944355493256e-01
2.214303600743978973e-01
1.349179969736515605e-01
1.885708503652954726e-01
2.301454472171012011e-01
2.162413279211610195e-01
2.201481849531756185e-01
2.293665722006984486e-01
1.855839223434031238e-01
1.504208666334906630e-01
1.895084426672316580e-01
1.912203156878625465e-01
2.157463312518417831e-01
1.985327094708316809e-01
2.108660245461623783e-01
2.086937622580473939e-01
1.487495260094255367e-01
1.608610339080479568e-01
1.846955682718258995e-01
1.892844645107261692e-01
2.028619155673569707e-01
1.433613391329094655e-01
1.957073748528830037e-01
1.594978526784702200e-01
1.365961277122972328e-01
1.408183611772336752e-01
2.079894406226164560e-01
1.697808179014732299e-01
1.168868009445595268e-01
1.957125868529113466e-01
1.420689351055087202e-01
1.413687860655541972e-01
1.259343673304736955e-01
1.140588384210702300e-01
8.636112976819176890e-02
9.557779020120169000e-02
1.250676324051596122e-01
1.100180766163814661e-01
6.791192103872685515e-02
7.058604346131194807e-02
6.179421718326246621e-02
1.316580422101897851e-01
7.285974868440911467e-02
1.395615032623546969e-02
6.815920387158336258e-02
4.065854333805772602e-02
5.718371513904415421e-02
4.986386176135226139e-02
-1.017338597288525853e-02
4.498544878306278555e-02
4.520683952097468566e-02
8.118083040689652585e-02
4.668957383290210650e-02
2.326271515974127901e-02
-1.188622114630215332e-03
4.298727424520018547e-03
1.415137703021415727e-02
1.887042862407282973e-03
6.312006371825461259e-03
-8.071190698961117072e-03
-5.494744064189256705e-02
-8.869306450949680787e-03
-7.539915033412131207e-02
-1.669011121157517458e-02
1.940356992940523578e-02
-1.571881403442099839e-02
-4.379182880152460156e-02
-5.191253420818996156e-02
-1.451601734523649129e-02
2.640694484384707025e-02
-1.923262313892739467e-02
-4.789989008184460800e-02
-3.178738148626245735e-02
9.122179288761758653e-03
-4.500150721291242689e-02
-7.038051594828470536e-02
-2.529168737907367542e-02
-4.345935476793845453e-02
-6.113626519921305097e-02
-3.949167547178886878e-02
-7.701129089453639942e-02
1.660033474792987906e-03
-4.940886928238782255e-02
-4.614872473197688396e-02
-3.175282430036238668e-02
-7.620768246739678675e-02
-7.193108067227622915e-02
-3.094900719474220213e-02
-3.266679740808369620e-02
-7.264354852021499831e-02
-5.372852872362757215e-02
1.988320568787447368e-02
-1.579512573480208737e-02
-6.911768311492844097e-02
-4.629711897745748816e-02
-2.651050823109509652e-02
-3.980633529126387238e-02
2.992658371752068835e-03
-2.623295894765335576e-02
6.060511284596707682e-02
-4.079297744138333376e-02
1.994548091286314079e-02
-6.564813734124558264e-02
-7.878679832816877504e-03
1.535953320283410528e-02
7.416456058984666200e-03
-6.783605868659926819e-03
1.514219471435991615e-02
2.303112982228919248e-02
3.683469595803730290e-02
3.217216015346986702e-02
2.342199928252666069e-02
1.172946051040015675e-02
3.540369228490312936e-02
4.113268558929854962e-02
3.080699574479586755e-02
7.529047215729728348e-02
6.444247653605922332e-02
6.463293927281872631e-02
8.853540896396637494e-02
8.439611996724101506e-02
6.405718277115067527e-02
1.186747804153509139e-01
8.259829234326213077e-02
4.326481798816480401e-02
1.549990655762455982e-01
1.132035531715399057e-01
1.755069270782902147e-01
9.106773905243578660e-02
1.083523779976899026e-01
1.144792069075466212e-01
1.140019392459393349e-01
1.239513631276925043e-01
1.282564055530687752e-01
1.372073819683679030e-01
1.200221654380913827e-01
1.332212824833060583e-01
1.029877402294455679e-01
1.942620722937846711e-01
1.557430352810188767e-01
7.492181948105505751e-02
1.306992643379728536e-01
1.238537241242774756e-01
9.695364511116309758e-02
8.963822387451866880e-02
7.433838153365879275e-02
1.199062354619614967e-01
1.254120354269868953e-01
1.544613126779630363e-01
1.996950040739572940e-01
2.248586291664859682e-01
2.576612736661977321e-01
3.210871270749875439e-01
4.341339744806817502e-01
4.939060111619306692e-01
5.251877907584637795e-01
5.822814992851063076e-01
6.577170191811618771e-01
7.871886480359245875e-01
8.538914477625944022e-01
9.694903299077956005e-01
1.006049398676108542e+00
1.098904451585532627e+00
1.133365780933065503e+00
1.201831100216150361e+00
1.225381213204959074e+00
1.193918939448173733e+00
1.292361054406389709e+00
1.248423440406500218e+00
1.207606652700754957e+00
1.156739680431735584e+00
1.119081463571978352e+00
1.028198874975458477e+00
9.776033953467444526e-01
8.799104401149859811e-01
8.018936058323358207e-01
7.166498468106007325e-01
6.741330640883147485e-01
5.711637857076444780e-01
4.954828793367792028e-01
4.048250666909136153e-01
3.940836656220761958e-01
2.959816616636964381e-01
2.254209970742753755e-01
2.054247165811826648e-01
2.184940813362169498e-01
1.487583189571426989e-01
1.503287642791097389e-01
9.987874596650117565e-02
8.716649513627677814e-02
7.260139659505666920e-02
4.853677901821891461e-02
2.492590766538381117e-02
7.846338863175586487e-02
4.797236107903127267e-02
9.130783943590392582e-02
9.004242721354051293e-02
8.627436398978746701e-02
1.653794262456217412e-01
1.217687455315616951e-01
8.045761468862991372e-02
1.592774876879097246e-01
1.092504131939369127e-01
1.012981517220199468e-01
1.385662356684490837e-01
1.038761066219495571e-01
1.180174631090559617e-01
1.487516683884276270e-01
1.489971084436711724e-01
1.718899604226873379e-01
1.941129457238703337e-01
2.036273423911995339e-01
1.636667352622074023e-01
1.753057133655049060e-01
1.911735088284108042e-01
1.394888539918351933e-01
1.689251639682076145e-01
1.838119469631909753e-01
2.670331308069930354e-01
2.071169818522894945e-01
2.184570730283061646e-01
1.586583483169834441e-01
2.043610687820439364e-01
2.022493760671831842e-01
2.322792753521540909e-01
2.464900529348586500e-01
2.146397423113306779e-01
2.578982814190496353e-01
2.331113448317220227e-01
2.455978969824605951e-01
2.144358988355771767e-01
1.908411675346681213e-01
1.999443707409800930e-01
2.947480930655821396e-01
1.944375518881472920e-01
1.834830215488441607e-01
2.313872234806155503e-01
2.083950813652363787e-01
2.138575068114994537e-01
1.896138058632801104e-01
2.452835921413347164e-01
1.674126114165721269e-01
1.653080954035323069e-01
1.803867549170674323e-01
1.799055457655748258e-01
2.127537198521620709e-01
1.744612288561635527e-01
1.463046686703298183e-01
1.697350872854445081e-01
1.935235673897173769e-01
1.852444663570000649e-01
1.481730212864123541e-01
1.626387174435589000e-01
1.555294475628358486e-01
1.317764454701841059e-01
1.094400778890260578e-01
1.656571461597345640e-01
1.110218387287697922e-01
1.144401280080228900e-01
9.374858076908140769e-02
1.148565486142702485e-01
8.077182441951719083e-02
1.057917870990525006e-01
5.565079389452455561e-02
6.063441484609698867e-02
8.116386820874371688e-02
8.987634517617183738e-02
8.029362023847799734e-02
8.929135901745866022e-02
9.142669228794264580e-02
5.107321079783413292e-02
3.717462050563452580e-02
4.215679737287073708e-02
4.922246700239348016e-02
3.904539083550409573e-02
4.231859167260764581e-02
2.815999082943149157e-02
8.833761613530741186e-02
3.707164234637985722e-02
-3.624960876474277172e-02
-1.697527927822683330e-02
6.656823444919497679e-02
2.049985755921361619e-02
4.525336925317203357e-02
-3.578053968209617824e-02
3.963177653827854030e-02
1.566206945589872571e-02
8.730465204317956751e-02
-2.530289985322219104e-02
6.809488266847213422e-02
3.111494549538163998e-02
4.396888959787287332e-02
3.409042596193671143e-02
2.767768432506291509e-02
5.263768856483052282e-03
1.529964246519174148e-02
4.286079349832944835e-02
1.754097696863440511e-02
4.631625957292459170e-04
-2.391113233910427752e-03
-2.144794220947536523e-02
1.496669881475739053e-02
-7.395179959465233988e-02
-2.734217826597985096e-02
3.410705246921862284e-03
-4.432951422531761221e-02
-2.269186956246580997e-02
-4.387434517340774859e-02
4.871338304691203921e-03
7.990978936592257886e-03
2.779456977274189292e-02
4.320883081578975882e-02
4.124357499911331798e-02
4.199130162824519369e-02
-2.645710329354844081e-03
4.339244229798402269e-02
4.600539176594958118e-02
-1.231271667531354773e-03
-3.631667186926934750e-03
4.167482315987536268e-02
6.104015191883711833e-02
6.111549368933769100e-02
4.445283873682440851e-02
8.712520384574062859e-02
7.438487527954391887e-02
3.208078424130004352e-02
8.358988900249773868e-02
7.799488125154362128e-02
3.422616749336730019e-02
8.580505012335207238e-02
1.225124854024220306e-01
1.330386174891000917e-01
1.294282849682187597e-01
8.651182104182929267e-02
9.682761554513517888e-02
1.092986351557818092e-01
9.272956180496919054e-02
1.837600201329218363e-01
1.735393424099972715e-01
1.702206347793988328e-01
1.175850027852027163e-01
1.746105930695348030e-01
1.122200544411926099e-01
2.054917587238253296e-01
1.135329124019116148e-01
1.523969821702183536e-01
1.722325452110325950e-01
1.967520376360054335e-01
1.633768582231784616e-01
1.902240028684761830e-01
1.846223231637686424e-01
1.450347380053121360e-01
1.334767470001765877e-01
1.814622695866474344e-01
2.105618300093394790e-01
1.739173518837338894e-01
1.600973641076117449e-01
1.711295921476861104e-01
1.501726868165181028e-01
1.011225533098804030e-01
1.828817085768478512e-01
1.476465170307785513e-01
7.576071692708070959e-02
1.667768396573700018e-01
1.899822189938617512e-01
1.788061697311848219e-01
1.875155532934174862e-01
1.557806125718639578e-01
1.691086171041661090e-01
2.335164418438600842e-01
2.728837875371219468e-01
3.045318117100211941e-01
3.894461333990953400e-01
4.206345374806221282e-01
5.021129650904665453e-01
5.869773470319965547e-01
6.677350760542389851e-01
7.476975813256002690e-01
8.430390606893953809e-01
9.093407057272172578e-01
9.668615548091217260e-01
1.030359194860784866e+00
1.129383642020922007e+00
1.189695532789263765e+00
1.216994491858620631e+00
1.277321001032005077e+00
1.271086157154751817e+00
1.264887810600125340e+00
1.269340916603866276e+00
1.269305889593170367e+00
1.214402037742978058e+00
1.224053714371857948e+00
1.103686700662978915e+00
1.025588228521696177e+00
9.318998360023081906e-01
9.073843401454276814e-01
7.936719423439997367e-01
6.964151659232007407e-01
6.118662092179876222e-01
5.360926473573860429e-01
5.146804862056801877e-01
4.301424762010849778e-01
3.599555328443939661e-01
2.476624083247759289e-01
2.333466473929048657e-01
2.256694471682393066e-01
1.632235622162410971e-01
1.589139403535225481e-01
1.312009096208299197e-01
2.137622044939073152e-01
1.246085184469001572e-01
1.103487186114851387e-01
1.417444361012147325e-01
1.332049505934669587e-01
1.554506666306078588e-01
1.474575638453844983e-01
1.548565012460303980e-01
1.126842390982945030e-01
1.805755168356572016e-01
1.716508646402190030e-01
1.398725046524766924e-01
1.317899673814221795e-01
1.556183157058124711e-01
1.712691912471486222e-01
1.729602027973403400e-01
1.689417878105791415e-01
1.881110228206731572e-01
1.985933874523725662e-01
2.181936171470001407e-01
2.355365257609569052e-01
2.163029444343295415e-01
1.747386249452911877e-01
2.554531611725108231e-01
1.953175308918976005e-01
2.279192766356485378e-01
2.435458973841113928e-01
2.318568273239481337e-01
2.391430715717183797e-01
2.655693275209367599e-01
2.702109944242072070e-01
2.524939401497180436e-01
2.857789530549703083e-01
2.302775449744783320e-01
2.942157231240656312e-01
3.032561186323454727e-01
3.089893258305879131e-01
3.249982680442887739e-01
2.449454163113815031e-01
3.302739839882241069e-01
2.865037697683346374e-01
3.081186898347968994e-01
2.858055490004201560e-01
2.792329290292099309e-01
3.316785642383917043e-01
3.079896908453362281e-01
2.401037789562782132e-01
3.172057462471805089e-01
2.747023526354687162e-01
2.877443474488778907e-01
2.362583500738399955e-01
2.480837039148783008e-01
2.324573950341771167e-01
3.206932839278255898e-01
2.832108713618647911e-01
2.443959457649709510e-01
