1.233880484284030299e+00
1.220540940137573527e+00
1.205063089778561691e+00
1.203424949905639085e+00
1.106503586929715510e+00
1.042721853610542704e+00
9.440936724066907315e-01
9.280377116712069663e-01
8.319383627178442708e-01
7.531494502530619028e-01
6.996902428501520221e-01
6.245863253455249398e-01
4.740751810819782142e-01
4.650161310584036700e-01
3.954544210352322620e-01
3.545118591177241485e-01
2.751970074313879744e-01
2.316749850379643261e-01
3.420969112941898427e-01
2.104366336533917692e-01
1.876006543462062359e-01
1.936523944997440017e-01
1.562958914110492981e-01
1.822291505792293931e-01
1.820681890649478718e-01
9.740943350644072629e-02
1.680891392559666353e-01
1.644633389608545215e-01
1.124492432863891944e-01
1.794764282617973550e-01
1.724294458379153072e-01
1.730381894419171229e-01
1.840401925858348164e-01
1.027566806903905394e-01
1.521351781535537628e-01
1.811829681235387346e-01
1.386741559058937145e-01
1.853477174874498534e-01
2.447197636980094071e-01
2.198086811048138023e-01
1.620517327095878368e-01
2.390120893352056797e-01
2.317616245367695449e-01
2.668108876909252025e-01
2.317550952789637353e-01
1.999419777882092686e-01
2.507159197620008051e-01
2.155638783076434528e-01
2.056684599296333404e-01
2.595588337261183209e-01
2.353242633314282239e-01
2.858723465118895302e-01
3.500021862499202441e-01
3.293672518398547133e-01
2.798098261467428238e-01
2.259709404119250031e-01
2.578853668472245730e-01
2.837260986163410159e-01
2.788978651884187476e-01
2.718415848024596793e-01
3.011918360501922298e-01
3.240362061698813245e-01
2.795501427817417284e-01
2.989870303342826996e-01
3.091207419276619239e-01
2.800099030448959803e-01
3.346661576859963905e-01
2.974518443820411973e-01
2.864862967110742842e-01
2.429667582750028587e-01
2.368189400974150538e-01
2.737231708315859824e-01
3.051487443914547848e-01
2.612955645121597392e-01
2.420466043933561517e-01
2.049542798038640201e-01
2.879692210455721546e-01
2.823282477093397302e-01
2.763002680999397387e-01
2.767722102752080415e-01
2.151173801835206401e-01
2.216871635881110525e-01
2.267623346767657921e-01
2.181388233498320894e-01
2.416333179497232864e-01
2.199349649102587401e-01
1.513775553265550855e-01
2.398964787186602943e-01
2.491077331193822519e-01
1.413755320975240148e-01
1.968749327203846711e-01
1.861348023294486509e-01
1.596454649233106093e-01
1.685652805025828205e-01
1.834436086397387977e-01
1.707308293520113374e-01
1.582789964986017761e-01
1.281361504938283435e-01
1.688057386003918858e-01
1.036120171157074721e-01
1.112443009521968673e-01
1.511921562597760837e-01
1.453108911653306357e-01
9.400672852149317971e-02
9.880183529381156293e-02
9.324264149157705794e-02
1.346237625002130733e-01
1.090449752133275524e-01
9.665989729616145110e-02
1.309811794187154821e-01
1.245385461253551151e-01
9.047347275602325711e-02
1.331169055838994641e-02
9.431919633257801472e-02
5.605349275597935887e-02
1.204091032210804352e-01
4.258640186804230066e-02
9.807716502563844363e-02
3.410939477177318824e-02
8.780378568198696221e-02
6.381077892447935274e-02
1.165514701357857896e-01
7.474659082105064578e-02
1.166748499875275014e-01
8.535541397595935997e-03
1.058436922097512889e-01
1.233912066211277914e-01
7.551656773383082222e-02
7.028923454085204969e-02
4.286682732230628207e-02
2.938527042169550296e-02
2.153698608807927059e-02
5.768662097642007075e-02
8.389758340022641925e-02
1.085035241360789299e-01
5.280488168110429592e-02
9.858066469049206471e-02
1.186195617935286717e-01
4.428616498731789697e-02
8.854718873359868070e-02
8.717643591603871367e-02
1.944659211787512498e-02
2.193311700289169580e-02
8.777249178500251547e-02
1.126412487230443737e-03
6.958009662340658430e-02
4.831286150346982000e-02
8.180507926902867710e-02
8.380112940694926793e-02
1.108828907534002706e-01
2.198237181785804573e-02
5.290423415263752899e-02
9.534093791949269092e-02
7.788988850479068582e-02
1.250506665273025675e-01
7.161315231528553316e-02
7.027636121021624271e-02
1.115087598301432725e-01
9.805125252483662401e-02
1.119437552762791999e-01
7.039328862586473334e-02
8.573669229711841644e-02
9.200229290477932032e-02
1.194785825826834708e-01
1.456275578360197998e-01
1.327903198771375470e-01
1.067581497755920733e-01
1.651611432838515081e-01
9.447151529477784693e-02
1.391258888749273837e-01
1.571905853761935146e-01
1.867838719772859923e-01
1.775629139318251892e-01
2.156577583899839390e-01
1.404665085511941358e-01
1.735544000724142943e-01
1.640564384527908592e-01
2.261058309452032844e-01
1.434663080976335825e-01
2.283068023817824699e-01
1.701032943660655272e-01
1.678501390351702371e-01
2.229558207603399012e-01
1.788218145600681541e-01
1.817761224409715493e-01
2.224422767116388810e-01
2.147564926100566096e-01
1.952313637644245703e-01
2.012726729362611378e-01
2.108406614215687092e-01
2.253106907355556798e-01
1.894103712641178883e-01
1.696801338630090639e-01
2.600989817196911469e-01
2.228203475483347684e-01
1.837754751652912188e-01
1.745372234484806606e-01
1.973002801898596503e-01
1.471303372436577883e-01
1.040055528447609706e-01
2.325911452405363400e-01
1.900929010825333776e-01
2.140229280388926958e-01
1.515910555498801160e-01
1.935520773299179709e-01
1.750356614577062986e-01
2.669583192551668871e-01
1.960482296663082213e-01
3.056142955534969508e-01
2.978550153892196573e-01
3.798794632706507524e-01
4.039751313760543416e-01
4.224751330757465784e-01
5.619841915849791425e-01
6.124773109985810482e-01
6.821691302500283438e-01
7.256336578962654382e-01
8.115105520252967608e-01
8.336285410535662077e-01
1.001134406587776082e+00
1.045628151370845416e+00
1.100661270421520621e+00
1.172794618825470092e+00
1.213605488530422161e+00
1.250914865596621128e+00
1.207253048069618417e+00
1.214207469904839520e+00
1.236360162147521535e+00
1.175192767164379370e+00
1.201259954922016648e+00
1.095394683343997366e+00
1.006079230173161809e+00
9.913199068466452824e-01
8.848684003467193193e-01
8.002791209069075595e-01
7.825016732325418278e-01
6.284499292046984431e-01
5.701725476275762983e-01
5.117527894601391347e-01
4.486980020874765107e-01
3.527574271022803076e-01
3.110245634579824614e-01
3.113379926720716839e-01
3.172545505688636469e-01
2.640010740758018115e-01
2.431879274812889236e-01
1.907306342025326673e-01
9.625764895732674686e-02
1.601756611306584255e-01
1.808651910756743364e-01
7.424099234424244576e-02
1.480276316123189106e-01
1.858798902292042032e-01
1.165153386318203699e-01
1.718352133008020921e-01
1.669901346483555482e-01
1.664424269608280049e-01
1.918954095801519710e-01
1.854601250176283189e-01
2.279720492547171740e-01
1.602108759515305514e-01
1.891221290650668130e-01
1.837421567983865967e-01
1.698322254365329242e-01
2.859475678223678541e-01
2.035253755051267821e-01
2.260521098853520150e-01
2.118103032109523998e-01
2.546596883296418645e-01
2.535565435015358360e-01
2.253568147272118904e-01
2.749809378335478782e-01
2.193433344368850013e-01
2.079198233452745348e-01
2.679823008754946279e-01
2.567253725399286646e-01
3.176774238561070329e-01
2.631650410899424308e-01
2.907051331442775943e-01
2.768897321260319622e-01
3.105876497511909085e-01
2.231428656423971313e-01
2.828219432411838152e-01
2.164388500778610114e-01
3.323008890495190992e-01
2.520448546953092950e-01
3.252997923062352914e-01
2.902748196071411324e-01
3.171318104114130842e-01
2.791544265102858802e-01
3.380041239770600336e-01
2.816574265200887384e-01
3.069748868574566636e-01
2.964534387971865526e-01
2.646597438546930414e-01
2.777422395589561055e-01
2.711485479464046389e-01
2.814694836429296743e-01
2.449540389699368659e-01
2.126595517078453956e-01
2.422511817971139403e-01
2.859219485562088381e-01
2.578976285010202707e-01
2.315995429270506500e-01
2.177895467916717565e-01
2.096441706809568650e-01
2.307430983936549218e-01
1.740260613653810684e-01
2.356476480769545412e-01
2.267348096136577451e-01
2.773055909921502415e-01
1.869958846230921901e-01
2.468472374129665747e-01
2.191378868180979267e-01
1.953811657462612705e-01
1.711831638849857229e-01
1.833632378061313406e-01
1.558855966038235896e-01
2.226010067232701561e-01
1.202257924122049487e-01
1.694734367097894823e-01
1.746285289546847252e-01
1.369781812894256268e-01
1.440764890535015108e-01
1.409730961176148267e-01
1.152930687229559298e-01
1.227447478494499700e-01
8.191671526928184788e-02
6.678478425161431253e-02
1.240254916334492807e-01
1.091963649120347712e-01
1.064372878341237338e-01
1.264842203563210643e-01
9.340929120574742450e-02
7.827453220372972142e-02
9.276471541047190406e-02
7.478431367443688638e-02
1.310283490927577066e-01
1.062335621071103381e-01
9.366779154201554380e-02
-3.515203976013722698e-03
5.712783523731481544e-02
1.085770028363935297e-01
8.588346944984792675e-02
5.730313303450725038e-02
4.262369158056680818e-02
1.314768760307955253e-01
5.069863914518091264e-02
4.454432629932079946e-02
4.082967107727668299e-02
6.361815177446404623e-02
2.056127617240887523e-02
6.711567216591025897e-02
-1.431967150441703848e-02
3.231042164126031457e-02
6.295131539323775560e-02
2.956201171243937748e-02
3.447566208794529408e-02
2.576429848266782036e-02
2.014668720026525917e-02
6.067181543273529598e-02
7.084204236347231565e-02
7.102418270878904649e-02
7.391198321098597923e-02
4.679008026659670083e-02
6.262239649246498230e-02
6.495404863151951758e-02
-3.203038315553238813e-02
-4.608746471837084357e-02
8.326660890406081816e-02
6.810594322465034212e-02
3.067116191112796014e-02
1.359544673503966343e-02
-9.650663820443300400e-03
4.896518919653158886e-02
3.153266177637341350e-02
2.605435064830682185e-02
1.329002096374290801e-02
1.134697416339713189e-03
1.419614450533839348e-02
6.533200148276202546e-02
5.690544141960568458e-02
3.910411694041698860e-02
9.756919579265409259e-03
5.673215607770425856e-02
5.866820674274091096e-02
5.918093198107458874e-02
9.049100166440840476e-02
3.058187485731580016e-02
2.856876696553884917e-02
6.813059100722396177e-02
1.085325039179107359e-01
1.067258464302604376e-01
9.438853565777585719e-02
1.037782167533837646e-01
1.037900603629017399e-01
1.383357841863691595e-01
8.165535785795463575e-02
1.039071188293813619e-01
1.307461840937791941e-01
1.175742391518754537e-01
1.128692328045797083e-01
1.668847614648527322e-01
1.684905098719145511e-01
1.578486663597964412e-01
1.247264254318790899e-01
1.360541608583694106e-01
1.676168369721305618e-01
1.590162088242859373e-01
1.603173782843642925e-01
1.759116119943837375e-01
1.640536683245818195e-01
1.614016629757616950e-01
1.858560977695597471e-01
1.524732739217778688e-01
1.615305609416133881e-01
1.765729221843013175e-01
1.889303507159426632e-01
1.807790193696034997e-01
1.506944934322961560e-01
1.348816078125324724e-01
2.048487924736134558e-01
1.161444880971391896e-01
1.887364075859480628e-01
1.753195582063004909e-01
1.409887567531865893e-01
1.497235357113939069e-01
1.367717322237130828e-01
1.878836367623808734e-01
1.616930689824700729e-01
1.697255732842158915e-01
1.279848237399061894e-01
1.902110321725723474e-01
2.620834431035458101e-01
2.591899198113453706e-01
2.816877890870784773e-01
3.646452528672547433e-01
4.420160983723790404e-01
4.664156438276439998e-01
4.738900558773149196e-01
5.658848376186206286e-01
7.303224482207674173e-01
7.476977944986480384e-01
8.316677125732010456e-01
9.216693841820818855e-01
9.049740780352215630e-01
1.050253475618764698e+00
1.080460046802128815e+00
1.158331380794630272e+00
1.170420981232306534e+00
1.184082186275166038e+00
1.177706544922967336e+00
1.204847857703809533e+00
1.166732809981706698e+00
1.174603365738946081e+00
1.057413719124872920e+00
9.974083565720150979e-01
9.550981821095740898e-01
8.611060666307600586e-01
8.202062328366298560e-01
7.584516295743573000e-01
6.625983979044276495e-01
5.614235102201994287e-01
5.161019837267863952e-01
4.312786340080953518e-01
3.844543420793852251e-01
3.325694751427316631e-01
2.862268398316255569e-01
2.719118577953557048e-01
2.079302855506635905e-01
1.213607789968585149e-01
1.695671529365024299e-01
1.430184427043382778e-01
6.256121358585503556e-02
1.357272441486277736e-01
1.228230160282899885e-01
1.205674359939094137e-01
1.103573175049403360e-01
9.744912065765024001e-02
1.243543278887503656e-01
1.837321513010335139e-01
1.091879343244248346e-01
4.804754828548022522e-02
1.366714418103669171e-01
1.360109982520031624e-01
1.107095778400507269e-01
1.517897454564940130e-01
1.534347511520888774e-01
1.288026384490050524e-01
1.711332552449310873e-01
2.137150801754735263e-01
1.628647364982014623e-01
2.007982845612133194e-01
1.519732233192893356e-01
1.999535493933538299e-01
2.177309305866115263e-01
1.995579551812059760e-01
2.339312066313442295e-01
1.804842005088321821e-01
1.173368909278631328e-01
2.009293402321490896e-01
2.452580146853435006e-01
1.745839846554549379e-01
2.672095088188528589e-01
2.385107229280110097e-01
1.981701160405889839e-01
2.697042375929800673e-01
2.357774469560687813e-01
2.696440602653486507e-01
2.047168940092447265e-01
2.691633674174750412e-01
2.205705505102763253e-01
2.081179073423616299e-01
2.103899415321655308e-01
2.135485140869204934e-01
2.743089566020868175e-01
2.269876746002334467e-01
2.238796050383174974e-01
2.021492875169455250e-01
2.106954082791296368e-01
2.192965409697074652e-01
2.434623428012876456e-01
2.296600611586369634e-01
2.155150006658554940e-01
2.424065963193220430e-01
2.604201401615136580e-01
2.596441437757494031e-01
1.773279109779512253e-01
2.224903832623598143e-01
1.629592933045831971e-01
2.190508191592301090e-01
1.648122332895572140e-01
2.066622803970396549e-01
1.993845056839541052e-01
2.141673095104444924e-01
1.931537120978540356e-01
1.746973913437958881e-01
1.894446152429986596e-01
1.745297889697133287e-01
1.053837156891731519e-01
1.107979932043250404e-01
1.493695322650988311e-01
9.641386100429905071e-02
1.033004563283434901e-01
1.053394812463046004e-01
7.057977773382187459e-02
1.352983124815493321e-01
1.468490094037927518e-01
8.265888455838152349e-02
7.465160378059941537e-02
8.804751368575183812e-02
6.114314809826955355e-02
7.860058343491087285e-02
6.454704074397404900e-02
5.402032233253022120e-02
2.697181641666864665e-02
8.991883279726983758e-02
7.886312937731305983e-02
3.421070297491067558e-02
-3.149867745140581821e-03
5.111552873747042536e-02
2.277798386099322628e-02
-3.505563169673554802e-02
2.805317675464246568e-02
6.204948964427178804e-04
5.303195452367179263e-02
-1.063145186321775085e-02
-1.764064724450937344e-02
-4.087982065926898390e-02
1.374358284885019224e-02
5.921935047610872582e-02
-2.500317313760757124e-02
1.869752155128553972e-02
-2.067577038151371255e-02
-1.890155666111007632e-03
-4.249024961461018990e-03
3.533026531011525945e-02
1.409314432875941742e-03
2.075513856467162133e-04
2.163384686382627264e-02
-5.877606461475504140e-02
-5.118616441540416173e-02
-3.385239702681171192e-02
-5.298757123843794020e-03
-6.998473556172447874e-02
-4.672786280830473760e-02
1.315519159344979289e-03
-6.267144911259448642e-03
-2.551522528153949559e-02
-2.772815534433535276e-02
-4.839789567018248917e-05
-2.060389858334022578e-02
-2.120144356834619687e-02
-9.945391136680570981e-03
-1.921935855910436933e-02
-2.345697305934641916e-02
-1.398337818620219025e-02
1.925013637470276984e-02
-4.564529749982247642e-03
-1.058032959067562243e-02
-1.411584869721335851e-02
-5.039564161320059937e-02
-1.892376165201211172e-02
-1.825444507451461085e-02
-2.435810501800860645e-02
5.849548000731527586e-02
1.694083210765313929e-03
-5.705177995039416305e-02
-2.567855384879636632e-02
-2.751282349940275054e-02
1.040170433589822016e-02
-1.223745326000899927e-02
-4.072684441057872196e-02
3.210147413826612561e-02
3.945146399838787843e-02
3.767511895361841390e-02
7.206675014229868559e-02
8.262016974688161930e-02
2.623018866061825605e-02
7.860317647341859282e-02
8.479212455662940573e-02
5.027020069271961183e-02
5.568479768169886518e-02
3.261932879106526489e-02
1.138179219144926368e-01
1.062046819190911040e-01
9.951602725848218700e-02
3.533334746228725121e-02
1.075485886713879735e-01
6.302517384444061843e-02
9.986719982523359351e-02
9.402608755963097475e-02
6.565343732340292449e-02
6.189945126091775385e-02
1.143699192466718362e-01
9.427321887138478962e-02
1.330905953559620436e-01
1.397863908966165414e-01
1.281057715505331818e-01
8.990023816746865737e-02
9.192392154840114959e-02
9.941914867973883352e-02
7.988514920241113204e-02
1.008867436650943694e-01
1.380457703099552125e-01
4.445755951755081536e-02
1.256538348223412982e-01
9.152949186732473041e-02
1.266671884278976201e-01
7.268245226407410442e-02
6.230606296264985106e-02
1.342158661456449298e-01
7.975441893376120084e-02
8.882073650012817234e-02
1.293142002429270576e-01
1.319023665192526062e-01
1.283021736265333446e-01
1.876658454228762041e-01
1.354497162579244574e-01
2.291469000009615509e-01
2.426225346728395904e-01
2.700694989027419002e-01
3.085470662532164288e-01
3.845158542884216657e-01
3.975955838874081216e-01
4.864148451395159389e-01
6.005903193243541383e-01
6.620873270823522949e-01
7.438560902676895070e-01
8.441720277310508225e-01
8.980340254359753249e-01
9.420809455050972447e-01
9.881182787668832956e-01
1.118034917639395553e+00
1.115234664837227996e+00
1.120759207713301731e+00
1.155573108527622850e+00
1.173103551031164260e+00
1.133030728456770442e+00
1.083385682158834573e+00
1.063455000481518864e+00
9.829583463849609348e-01
9.194909181152755018e-01
8.345834900525669342e-01
7.909041513059922313e-01
7.512872750657348941e-01
6.601451197059949871e-01
5.080964112650911968e-01
4.973798084545579812e-01
4.289340479995732980e-01
3.858734295446960005e-01
3.323678689470752068e-01
2.198775757615168136e-01
2.468133513014056923e-01
1.740006498915191990e-01
1.472684065715197388e-01
7.737995498015821927e-02
1.203151004978517402e-01
8.897047104402726336e-02
8.465893088551817991e-02
4.319183526699200276e-02
3.518522024207415555e-02
7.413115502161730930e-02
1.148338569541560994e-01
6.428661503310859060e-02
2.829385232887311058e-02
7.800140298697932906e-02
1.123081228629959349e-01
1.331454389200566468e-01
1.188979793828137677e-02
7.471062258426448832e-02
7.573081039346257759e-02
7.141845737002586181e-02
7.209294669129255595e-02
6.260264992924524652e-02
1.118573079482221844e-01
1.232612009821968946e-01
1.149345603176253894e-01
1.304332889316555111e-01
9.213310099771962469e-02
1.793517193181412006e-01
1.699655649675430036e-01
1.137018076977109465e-01
1.814946765364574832e-01
2.083163458559710024e-01
2.043620085376048889e-01
1.917025987882748361e-01
1.825062639751124927e-01
1.622205393281476449e-01
1.897134725557807766e-01
2.077507811098960877e-01
1.540527211519907291e-01
1.985147903501184863e-01
1.853954759804650743e-01
2.492617761040333835e-01
1.703705250936780879e-01
1.946003357886880447e-01
1.513336187440814107e-01
2.210992568951791470e-01
1.662084725123713358e-01
1.776418918890624588e-01
2.313884646472880169e-01
2.162151403671060401e-01
2.079055260366359237e-01
1.896881936254521950e-01
1.767595620978557325e-01
2.325279710465100180e-01
1.908624175308360760e-01
2.479996915730915130e-01
1.860318145251860233e-01
1.541524763558610456e-01
1.988336841820037282e-01
1.793138465229573431e-01
1.713989289275642536e-01
1.400062250467263014e-01
1.420177564840503226e-01
1.750031835382990786e-01
1.366295572071616060e-01
1.331367199093018427e-01
1.579518149669092153e-01
1.263552957105025243e-01
1.489695544090763601e-01
8.584195543454375965e-02
8.866513151585628250e-02
4.488193577294934122e-02
1.295682289410459154e-01
6.421085696985082136e-02
1.183276243218495394e-01
9.471483901112939807e-02
7.352912364589242467e-02
9.772337382953914797e-02
8.719434265123846006e-02
1.209627062933037178e-02
9.266421620591597241e-02
4.958883247027055102e-02
1.692539771656673131e-02
4.881968369456629597e-02
-7.225839577526614599e-03
6.395320999645380533e-02
3.043340901477999128e-02
3.404373137125377147e-02
4.779744008240668918e-02
2.562056747959051695e-02
7.672048738359207865e-04
3.540644874118118596e-02
1.154171112609475580e-02
5.644940038429612644e-02
4.575985873643925728e-02
8.851110478390593339e-03
-6.008952954264928925e-03
-2.102832996191389067e-02
1.162024085546960184e-02
-8.035905623977793177e-02
-5.650037317002722104e-02
-2.485637247849088044e-02
-5.637002536704169980e-02
-5.090279312466790274e-02
-5.939176284814226547e-02
-3.571884334189684429e-02
-6.393195822053819588e-02
-1.475750598243354139e-02
-1.116364159711778353e-01
-4.895844232088303327e-04
-5.191516122817794315e-02
-1.621800526657904418e-02
-1.087236471282535116e-01
-9.875588546709876403e-03
-6.806695818872872394e-02
-6.820084932770474617e-02
-3.754325462234071181e-02
-4.231395747792318640e-02
8.351261466989383375e-03
-3.156095020364034498e-02
-2.900177257808275733e-02
-5.173926768674434046e-02
-2.518855800280949200e-02
-3.233825063470563421e-02
-1.607953086105069068e-02
-3.694792053576555213e-03
-6.269153846641394023e-02
-6.253778339156461363e-02
-2.091506094364049134e-02
-2.219035449198429252e-02
-2.580348554162745917e-02
-4.091698743309963443e-02
-1.246648267558971707e-02
-1.706400673910923871e-02
-2.707445022732260856e-02
-5.260616542672146012e-02
-5.753501860518309141e-02
-6.550845468930717452e-02
3.482989677737724499e-02
-6.123362871055365586e-02
1.239346459167151027e-03
-2.506261435032693802e-02
1.718385837106481406e-02
-1.165443375932975062e-02
1.585662524253868971e-02
-4.707111218308450418e-02
5.209164245459114995e-02
1.372516901277973100e-03
-3.884071568388483553e-02
-3.195978296719102774e-03
-3.946028032177979761e-03
6.500120520168212179e-02
2.359645055390229701e-02
9.807498139144876781e-02
1.097130299507394213e-01
1.319693436090651484e-01
7.638769518740969044e-02
6.509888457511751880e-02
1.500515218803963047e-01
1.068893890811011271e-01
6.180807262745662695e-02
6.321771328931770351e-02
8.533725603269123883e-02
7.875220356592196880e-02
7.191755361879337283e-02
1.248421170281116266e-01
4.615261268592255051e-02
9.374745286542748857e-02
1.356957481345429928e-01
1.026680023614208459e-01
1.136942956003562655e-01
1.192280918117471361e-01
1.634107741731592456e-01
1.349346252696034532e-01
9.964378729132028489e-02
1.246743570371341980e-01
3.371894695316167423e-02
1.041801894330453837e-01
3.969391866928526080e-02
6.950913838885855456e-02
7.474670527703947132e-02
3.893526651106078706e-02
1.241192367319420425e-01
6.246474684513668441e-02
7.944518082936798120e-02
7.828911593281041859e-02
3.718687923359133979e-02
9.221712455947303488e-02
7.351377778659989870e-02
1.703548852562919436e-01
1.603731452838221272e-01
1.780568203390686388e-01
2.081709102102620168e-01
2.775648391549884741e-01
2.862522407665779589e-01
3.666650261189123294e-01
4.513438447125772690e-01
5.111019216746649496e-01
5.511226842143717164e-01
6.765583661344034550e-01
7.338191785173755477e-01
7.985259185507818103e-01
8.516561686190123881e-01
8.993843310844125138e-01
1.027573848707924453e+00
1.006862958051869983e+00
1.125563730192464584e+00
1.153960634795867968e+00
1.126163847751599834e+00
1.155770747516375208e+00
1.143123098195470311e+00
1.117519996381336922e+00
1.074573110708465506e+00
1.060524240226151882e+00
9.428768886302161256e-01
9.612877623312677811e-01
7.711469115568483357e-01
8.008400873824798039e-01
6.842878680893641485e-01
6.467835691853628388e-01
5.256858486043846090e-01
4.235367834584253255e-01
3.832938178619000880e-01
3.377184399193632891e-01
3.002376401903534830e-01
1.836622966469881046e-01
1.533708078294455934e-01
1.384119859083966231e-01
1.448039442036710422e-01
1.114357471999589677e-01
1.058170930317905989e-01
9.424824058773131896e-02
8.214644526357692267e-02
6.795572914180281199e-02
1.013020205583390343e-01
4.612134406936336389e-02
8.422628028028884828e-02
9.812470875167433881e-02
7.711048308158544029e-02
1.038508662662843418e-01
9.185163037012966658e-02
7.778709444826681363e-02
1.264068513859802068e-01
5.882471035478625127e-02
9.773957174584904650e-02
6.209416239094626977e-02
1.624739165856939338e-01
1.152684414261152673e-01
1.303246693855492633e-01
9.901068921018191249e-02
1.186224169548509288e-01
1.391510847616302948e-01
1.825608905853590425e-01
2.083002210166867707e-01
1.659008077290808902e-01
1.580126626654402566e-01
1.968539218290101811e-01
1.892222286787102747e-01
1.823435735649767409e-01
1.538729553299312269e-01
1.988391670054414917e-01
1.738302817274680057e-01
1.346623765630813319e-01
2.113962449113523934e-01
1.851121013941526838e-01
1.589244697503086889e-01
2.485249739322062945e-01
1.577038246746278460e-01
2.013139300430156764e-01
2.477160008036639882e-01
2.008201903100101660e-01
2.021208611189619087e-01
2.358534040649131469e-01
1.876701954139111950e-01
2.491285504329347755e-01
2.018572090281628428e-01
2.318502895235244055e-01
2.168259210702385975e-01
2.294160202470785781e-01
1.946168720095404203e-01
1.910786469730304804e-01
1.844274581374654720e-01
2.270070532268000374e-01
1.331521563621000659e-01
1.582211194057892567e-01
2.447455281004276562e-01
1.714297788688196877e-01
1.989909713064964558e-01
1.345532281204795122e-01
1.482417195120645237e-01
1.801287082352123481e-01
1.840421324766367550e-01
2.033530908680415694e-01
1.255169723657152403e-01
1.229329865763878898e-01
1.685829864929828392e-01
1.621828325460784592e-01
1.118498198038461316e-01
1.320816818715734309e-01
9.917256771767231360e-02
1.455575212180620637e-01
8.887879034831516756e-02
1.079432989446898611e-01
9.606808496466175129e-02
1.114987130761752876e-01
1.267001905640942616e-01
7.150566793808975363e-02
8.805368676219071933e-02
3.685063104061571393e-02
9.694824111921088172e-02
7.198456054133367532e-02
1.668401358419567895e-02
4.345770304358513580e-02
5.164685885850341107e-02
7.960393278013129514e-02
7.368743594446086620e-03
-1.883098573724360097e-02
7.997250659555577013e-02
7.138106892416701266e-02
3.006046668265592234e-02
7.296433494227894112e-02
4.013302925514532216e-02
5.336083851550629809e-02
6.581323962357464585e-03
-9.909407015390517270e-04
1.686457662617182190e-03
4.084911946248320075e-02
2.705179834372133107e-02
-3.832671328442451009e-02
-5.081382712544695729e-02
-1.408848298331539899e-02
2.164699476024377345e-02
3.247378833835044831e-03
2.529384576049304237e-02
1.589291890245682348e-02
-7.842201549621875822e-03
-1.820613854496832065e-02
3.073373305814190368e-02
-6.750769690957886260e-02
-5.342845750855217124e-02
3.181750458523860403e-02
-1.387719790225266925e-02
5.258412378923656844e-03
-5.233603422053452470e-02
-5.700953332064191692e-02
-3.012199789089491445e-02
3.773739222953983313e-03
2.845351218362644763e-02
9.337391791350117820e-03
-2.962869353743936840e-02
2.094141091853319106e-02
1.607395733594613532e-02
-1.621544226081700693e-02
1.070480844842401635e-02
-1.111913848234058130e-02
-4.126777192798639776e-02
-4.961917110428939320e-02
-5.799439024913763396e-02
-1.840321524372575540e-02
2.074571213772285691e-02
2.890570564829305494e-02
-2.970847762121590560e-02
5.489039835944204554e-02
-5.772457906890515744e-03
1.422462221176866264e-02
-2.041234341402848804e-02
5.011314358833320048e-02
6.603386019415718317e-03
2.382857640682591732e-02
-4.275293384128527052e-04
3.512776360895930594e-02
2.173577405955762903e-02
7.484395225418985498e-02
1.677714022796212429e-02
1.943546546298438593e-02
3.405826798432147473e-02
9.613055526415512086e-02
9.893173102925467699e-02
1.048714054386641753e-01
1.149254312864708694e-01
1.064642948617284396e-01
9.078745690557078751e-02
9.944835346552471922e-02
1.473210442158167932e-01
8.503818236775814721e-02
1.378357922738951691e-01
1.499920942473799146e-01
1.194027652399764355e-01
1.385792809555625449e-01
1.140604817739215154e-01
1.175161364105607176e-01
1.753417639574841314e-01
1.530247413143421276e-01
1.438502707012687676e-01
1.941953376270796894e-01
1.298793452864107634e-01
1.688427422941330136e-01
1.611576656629203630e-01
1.441199653855458340e-01
1.424871683109924236e-01
1.375266327492761509e-01
1.435125387530196417e-01
1.151215316032530162e-01
1.506912529835126024e-01
1.466962000311346492e-01
1.787743534731853212e-01
1.579873363185191615e-01
1.167989776448173783e-01
1.900159213627611032e-01
9.503649588565613038e-02
1.465408967439239818e-01
9.367480703684107068e-02
8.509221064748284657e-02
1.703941943732832087e-01
1.829033878124343704e-01
2.021351095285808808e-01
2.291982028563135931e-01
3.117436798393246056e-01
2.797156428655931948e-01
3.441827821743832505e-01
3.228014403784775221e-01
4.369985525411513860e-01
5.439532838293648087e-01
5.579253738130962592e-01
6.100737609105514325e-01
6.743458103963703154e-01
7.563598502112867106e-01
8.449543831182739773e-01
9.330786348284973997e-01
9.783250204241169534e-01
1.099904629099111908e+00
1.085694100693376241e+00
1.209136179979192205e+00
1.208893482796545404e+00
1.182424190417156629e+00
1.171306570470447062e+00
1.185030507846145609e+00
1.163240159856591571e+00
1.132155891048455709e+00
1.033061493227290129e+00
1.003787564558252798e+00
9.462799457180091078e-01
8.266380660899652622e-01
7.506855119550961408e-01
6.730201063024757735e-01
5.878669233092970181e-01
5.775495601936609935e-01
4.259042373054375274e-01
3.885368777980765520e-01
3.742337302002221588e-01
2.565492274311916288e-01
2.386817205269177455e-01
2.087288800423886259e-01
1.718988721464558000e-01
1.928889582913743406e-01
1.774093178370385326e-01
1.461784023061444560e-01
1.121306117662808077e-01
8.487819556842207680e-02
7.749472976175554584e-02
1.187080683083775734e-01
1.285752859024906769e-01
1.510975573745254041e-01
1.272839050310427544e-01
1.136895630142869679e-01
1.555876906927128878e-01
1.409257826781757372e-01
1.182853709473516146e-01
1.466118885950061790e-01
1.593511768797064021e-01
1.555142899333891437e-01
1.348621166596564724e-01
1.525319450746647765e-01
1.899927987069419399e-01
1.973762877660605597e-01
2.032337722104256283e-01
2.510938442354953559e-01
2.082246512303152219e-01
2.022792436449686315e-01
1.786473350187325337e-01
2.128533740077876990e-01
2.208585547130235138e-01
2.324550502094696602e-01
2.617300325932497285e-01
2.507389805636727753e-01
1.910202403365104384e-01
2.500652014726021943e-01
1.934081022353688339e-01
2.663996802110247808e-01
2.446655707859062001e-01
2.440950752010541958e-01
2.378729966378060334e-01
2.468400989092070508e-01
3.336261281363450126e-01
2.527814850910921063e-01
2.750199656388838676e-01
2.638995617029708529e-01
2.495559940524676723e-01
2.941954907444257472e-01
2.687499497807508964e-01
2.558428233638627702e-01
3.203817930793204094e-01
2.961342298632853587e-01
2.758535623417777138e-01
2.989111659561303203e-01
2.918975856769618904e-01
3.126856836691388475e-01
2.339149036782383340e-01
2.079395745419986286e-01
2.614120008958960573e-01
1.966734443241099917e-01
2.399777909802998099e-01
2.297543528523397771e-01
1.569817673536327007e-01
1.566368038627626580e-01
1.938740439760946455e-01
1.931685889488508889e-01
1.860611242890238826e-01
2.359524324294361153e-01
2.141311679926132250e-01
1.630338377017875040e-01
1.287025984665767508e-01
1.699743265701659789e-01
1.867304101315426790e-01
1.984928056001627750e-01
1.928293211361132020e-01
1.630864565274003086e-01
1.018349938292685553e-01
7.380190712871191605e-02
2.039357165975307362e-01
1.261146250229634447e-01
1.693071599867668753e-01
1.366977975887824770e-01
5.251794487036558212e-02
1.509216904651879965e-01
1.354034998136935397e-01
9.131295880314731217e-02
1.168849592951895777e-01
1.118242645804428809e-01
1.228873079075281927e-01
7.400939262161257415e-02
4.578381711420285993e-02
2.424630550995363065e-02
8.052095186322835718e-02
7.503403573541229943e-02
9.752496562495671650e-02
8.949069280182120334e-02
3.398767406379609585e-02
5.690811496288323418e-02
8.253554500371959590e-02
5.730612689614203448e-02
6.960867616696700400e-02
4.380905835562411144e-02
9.208492033586783421e-02
5.449072306812700189e-02
1.122848769353595871e-01
2.817546304938287408e-02
2.977354475727354843e-02
5.785215238238801405e-02
6.174124091731390818e-02
6.415898770732755829e-02
8.049784000967875885e-02
2.337258952496624326e-02
3.494553355864556121e-02
3.129060081132737509e-02
7.627986547448488419e-02
6.588393219587990179e-02
4.543334940059983590e-02
3.421805756605857812e-02
1.491448270171944271e-02
4.493802844811158048e-02
1.180276868056619188e-01
2.770354071096409188e-03
5.230189838896219523e-03
4.883473323276489586e-02
8.295394632191113726e-02
5.468503329541631042e-02
3.596811950192426582e-02
7.843375277089703612e-02
1.145329060022885065e-02
7.734146896723617659e-02
5.817627771851285878e-02
9.113609549029530466e-02
9.857519400428822742e-02
1.338836996713888700e-02
6.884777629409177813e-02
4.338610164513373446e-02
1.950429046504905534e-02
6.599048005692315089e-02
5.511500881810524333e-02
1.001099259188028279e-01
8.296196856276695508e-02
7.109789102782536341e-02
6.045215273372103737e-02
6.972267862694930818e-02
1.074660154774787491e-01
7.860252370290664314e-02
1.134246520408271480e-01
9.906593654717522901e-02
9.624425362338070999e-02
1.074357153576128987e-01
1.566159626998700483e-01
1.251556971084114012e-01
9.601965518188884663e-02
1.683478674289203281e-01
1.402698802791020050e-01
1.000302419647327995e-01
1.134605402560216747e-01
1.440921603009048813e-01
1.731983861696416716e-01
1.488934194380852061e-01
1.799788617197725649e-01
2.043404132260438488e-01
1.328152579588608995e-01
1.989393783470441990e-01
1.941323720370123351e-01
1.514031640177632421e-01
1.708534497174667433e-01
1.761254776174865644e-01
1.625728631781372946e-01
2.516147786784310170e-01
1.692269311404867027e-01
1.949331810710788204e-01
1.736190475865397875e-01
1.565537709337852801e-01
1.463845843090447185e-01
1.980169238302526002e-01
2.075756285614263619e-01
1.332901920006766550e-01
2.359854009789972284e-01
1.441420784894542340e-01
1.729548330599725015e-01
1.824522763725262564e-01
1.427190810791608977e-01
1.770362267312989568e-01
1.574609570078728260e-01
1.715098743389140978e-01
2.109908491622785043e-01
1.978767366311623976e-01
2.111453113168456630e-01
2.206782970603520244e-01
2.569414507881608301e-01
2.537469329199185109e-01
2.472359139434222031e-01
3.067924796193456372e-01
3.796737873927049089e-01
3.932611159907348219e-01
5.210821475621469911e-01
5.419710176236449684e-01
6.113821601206097522e-01
6.662259377374097902e-01
8.154708093973755956e-01
9.291336287809484062e-01
9.744037534702053582e-01
1.075896267228902969e+00
1.102941850581583116e+00
1.156993123522578770e+00
1.164272404411859529e+00
1.208479031932071290e+00
1.264113066630111026e+00
1.224510522899468157e+00
1.172276909872560946e+00
1.196028381543072561e+00
1.134840755591047134e+00
1.079396359540567785e+00
1.086482793314884843e+00
9.692546267197512666e-01
8.324330327877664804e-01
8.589283878283850981e-01
7.131009551014104719e-01
6.446946719689651273e-01
5.322707625512532736e-01
4.663254342034134359e-01
4.780774134479408577e-01
4.512422221133599587e-01
3.489276776938208258e-01
2.979657137151390245e-01
2.610611517484563437e-01
2.129693404219793751e-01
2.525385325168341133e-01
1.359015980221601194e-01
1.758862729115130141e-01
1.524540995316077674e-01
1.600644975919723323e-01
1.540309371201029620e-01
1.503590289871646890e-01
9.583772913655595749e-02
1.642746602472670292e-01
1.302706320045145805e-01
1.549100783740168519e-01
2.157406042716940864e-01
1.413548079351973630e-01
1.926189261247196471e-01
1.989529360246944378e-01
1.467388478790688511e-01
2.780746828182161789e-01
1.894373423708398119e-01
2.030561991688065171e-01
2.230329687922720794e-01
2.103582072327188912e-01
2.636548917384906043e-01
2.657790464753166937e-01
2.978396263366258623e-01
2.784025629161505089e-01
2.520104164803221858e-01
2.507623307687563141e-01
2.277655241721761037e-01
2.530674028603295267e-01
2.610526672168970719e-01
2.910793827822800162e-01
2.470985601683930721e-01
3.053297574268112324e-01
3.255146672067239511e-01
3.294318467464368849e-01
3.216461680629627007e-01
2.739489593535264778e-01
2.889106515893463123e-01
3.118658499176481524e-01
3.010905585179715072e-01
3.032259016867734358e-01
3.219804788458102141e-01
3.212920270592231065e-01
2.659948808145888854e-01
2.670422376900464800e-01
2.318021147935232507e-01
3.017047784603024141e-01
3.064755950131582973e-01
3.139162242263491276e-01
3.148818997877903536e-01
3.155982909397480052e-01
2.672845740729133945e-01
3.135867884887809653e-01
2.761676987680908857e-01
2.689056077545187717e-01
3.055693685395554082e-01
2.823661515060355010e-01
2.867938472416579621e-01
2.791985977801616503e-01
2.781056725756683723e-01
3.312644073024379465e-01
2.548437551413655910e-01
1.989004490845867057e-01
2.338321841681748059e-01
2.235405227987386223e-01
2.036278811435437430e-01
2.290498665339930351e-01
1.520709096912321034e-01
2.123006972604511988e-01
2.067873495768115244e-01
2.416776384239862629e-01
2.023642911519028253e-01
1.774336754885438294e-01
1.433343458700312156e-01
1.298634566269027679e-01
1.759626260625207217e-01
1.659490054877585941e-01
1.476259976739623669e-01
1.383141615827055970e-01
1.611232644266540892e-01
1.652669095786716835e-01
1.995402846301230493e-01
1.646055517382460087e-01
1.096512377490811846e-01
8.987513977632453910e-02
9.101051091919586111e-02
9.121411390165697075e-02
1.152318481095932490e-01
8.442389116817163031e-02
1.575794159867200395e-01
4.719475783211958542e-02
6.774068718278888901e-02
9.930129248326190206e-02
8.652322132956002942e-02
7.681959008452782234e-02
8.905382511249168576e-02
3.853422919105563282e-02
5.855858073209253140e-02
2.193190760100705711e-02
7.259767100855614441e-02
6.238068640438210188e-02
7.623477703660444527e-02
9.843498857455430795e-02
7.166656959767184198e-02
1.012161062700624031e-01
9.556724148358891613e-02
9.029280238460191121e-02
4.112583654457582089e-02
1.139603368286971202e-02
9.700055080557282161e-02
6.699004795366578224e-02
5.981123545430031690e-02
7.022863032733889233e-02
8.277009927358082442e-02
6.160612488165238126e-02
5.632542201945307109e-02
6.566496696909619735e-02
1.037062392269354483e-01
7.385519505005713747e-02
9.668464072089272277e-02
7.353791278308403900e-02
7.373552907441380255e-02
6.652014010826978740e-02
4.982634584633754277e-02
5.980480790676311748e-02
1.263352079155969920e-01
7.566378272218840517e-02
5.787763582166933346e-02
7.582248829624003983e-02
6.694198545483945328e-02
2.781497679539494949e-02
4.353363716585359477e-02
5.219570813835731904e-02
1.222420432888902397e-01
6.856842917363550893e-02
1.835578783008955106e-02
6.770350387855986196e-02
8.624441968245256940e-02
5.722457502256263900e-02
7.485880856522995896e-02
5.417205496065137516e-02
5.695273287668609768e-02
1.130242647616009066e-01
1.152346550367020911e-01
9.085287817591111703e-02
1.029023087706532336e-01
1.047636698504761932e-01
1.093405386714207672e-01
6.519593918866148363e-02
1.072544257783912131e-01
6.609593139541944384e-02
1.513664687457602631e-01
1.511609030435945855e-01
1.987045781143163270e-01
1.610814606061402032e-01
1.175179848689895667e-01
1.571460353473684846e-01
1.628328781871615782e-01
1.925615061042992571e-01
1.510389727079031741e-01
1.557371775587234886e-01
2.084488769646026807e-01
1.820814219233764519e-01
2.143936567861839115e-01
1.641711708426033534e-01
1.584413420039990361e-01
1.654305204275214325e-01
2.183700121604471023e-01
1.816304554095875268e-01
2.423231654584440120e-01
1.744024783721080107e-01
1.385759964710288616e-01
1.997660637509300063e-01
2.042033714466142402e-01
2.173786152646897119e-01
1.264702063225062456e-01
2.153272004007247831e-01
2.304907830016833248e-01
1.822879093483781299e-01
1.484049565458996078e-01
1.421647068002548087e-01
1.079817214793342417e-01
1.973434261146287394e-01
1.504946159687501062e-01
2.054745241725581262e-01
1.585894722794062572e-01
1.977586865815261219e-01
2.203105340548282276e-01
2.451712676465303553e-01
3.080305518046286273e-01
2.939311281303428336e-01
4.056887728047463559e-01
4.003940681650712818e-01
4.491257796999673091e-01
5.197488892178491193e-01
6.353997100885944160e-01
6.861031389166222239e-01
7.800929977145469874e-01
8.379481397463666159e-01
8.956863783696620285e-01
9.964262009312812030e-01
9.985983061829777352e-01
1.146420926046769262e+00
1.173644877382678864e+00
1.229879358268159084e+00
1.154618073166939984e+00
1.236646509077170775e+00
1.215189589477634113e+00
1.240015355323576873e+00
1.131109986046891169e+00
1.088034005490648992e+00
1.100246745644384516e+00
9.875008409195763504e-01
9.440436141623962385e-01
8.512612053711234861e-01
8.045421992266037492e-01
6.883522037792906278e-01
6.187736903901241980e-01
5.591966763550045849e-01
4.732865833722943449e-01
4.197165086748567697e-01
4.043553388878955990e-01
3.201966335016261378e-01
2.180492744482021295e-01
2.440660681875553295e-01
2.109615129991413984e-01
2.451011884760901927e-01
2.053548926499651761e-01
1.632442573040847333e-01
1.126202054919661910e-01
1.491285916186427807e-01
1.172506353593940620e-01
1.098061519185030976e-01
1.936686588377995177e-01
1.058371003016441991e-01
1.455590487300039426e-01
1.334712979443694880e-01
1.428105173170581832e-01
1.426927523659299313e-01
1.824453272838010842e-01
1.273314303218201771e-01
1.757735780193964148e-01
1.713838744532808489e-01
1.578315436718412956e-01
2.343668729743046408e-01
1.802091628899591957e-01
2.495757639240629433e-01
1.981090702125846148e-01
1.635841380636173514e-01
2.207045552516301856e-01
2.121826064601562978e-01
1.559877046179753424e-01
2.573885210821303948e-01
2.123893265371073480e-01
1.837613301085738449e-01
1.916266597107816327e-01
2.225961813244798915e-01
2.555509440539799337e-01
2.602325879964897948e-01
2.660355716976649521e-01
2.458252305006610461e-01
2.873968841807467145e-01
2.987058783099206249e-01
2.795485920312591466e-01
2.650556089928257641e-01
3.338538637665899866e-01
3.023758115215148812e-01
2.629767743027078275e-01
2.913785223247887801e-01
2.686012521299593336e-01
2.502240041969254758e-01
2.708043606310895912e-01
3.002492781949618328e-01
2.725715301247408351e-01
2.966741574173386020e-01
2.165345526763884643e-01
2.631942883254936305e-01
2.803060432536166879e-01
3.166179762993973634e-01
2.119271948188928001e-01
2.915369527220944557e-01
2.309107981299696466e-01
1.989943252663653739e-01
2.117589038339852126e-01
1.818624713117573399e-01
2.212357292311518675e-01
1.725156238739114500e-01
1.784970846594221838e-01
1.823024113787297673e-01
1.936850781449158954e-01
1.834891124678641461e-01
1.586358114348485615e-01
1.971236631376260540e-01
2.081621267847778844e-01
1.370506463732293900e-01
2.063229166906511147e-01
1.447122779375851764e-01
1.504804192550464326e-01
1.142319901869752047e-01
1.135438445364926607e-01
1.086524663141715669e-01
7.326719438813886209e-02
1.659931500691431971e-01
1.573548792371067817e-01
1.016007961810102278e-01
1.266937993740115953e-01
1.237921458405883551e-01
7.602155731837222097e-02
7.850802332446174536e-02
3.490751253759420691e-02
1.297870329237723053e-01
1.088277956420623666e-01
5.051433271700134231e-02
2.575699225699459166e-02
6.573381649367165958e-02
1.041980845330491567e-01
6.186989892535467439e-02
9.073783449585169636e-02
1.028360263896858917e-01
8.772657515926701732e-02
5.146164516859396548e-02
1.022204619475219622e-01
1.066972728387550473e-01
2.457871219789493564e-02
6.568228213081522826e-02
7.884640219026416152e-02
3.231911410948839353e-02
6.539513550747229342e-02
3.611396971131580064e-02
2.745508768066898253e-02
5.245486238055120654e-02
3.704438725900944390e-02
8.023020553820736644e-02
1.907236779327821374e-02
5.560373096296954143e-02
4.667104900135052303e-02
1.394871262431548846e-02
4.262618915786210716e-02
2.061465026882028373e-02
6.748103464110020988e-02
3.012449609372284953e-02
5.287283685955250327e-03
-1.216388897986655539e-02
-2.072210180081098148e-03
1.657861774523926995e-02
3.149713714240696960e-02
6.145733117742606041e-03
7.016675527424311165e-02
5.803002350481059612e-02
2.180226218199138311e-02
5.745547760115204960e-02
-1.300355873747739352e-02
4.726430705846058899e-02
1.894771375994385235e-02
2.983301275769355623e-02
7.799568131480330742e-03
-4.577038055239063610e-03
-2.622682087239702406e-02
4.497966554102909333e-03
3.506122359243344505e-02
2.737718303059497385e-02
-4.005389974460599710e-03
4.480756018217783854e-02
-1.283711802699954996e-03
-3.413167380577133113e-03
4.186321173368268145e-02
3.561282104682668426e-02
6.566442673431537036e-02
5.612010538277403121e-02
4.392186856124635774e-02
9.618994846458665815e-02
8.087646345226254252e-02
8.045015708857378156e-02
8.143364225647313492e-02
8.867355051938916044e-02
6.137407828469435694e-02
1.144149704954655761e-01
8.070839369705325173e-02
8.029139938168565471e-02
2.818414117612863881e-02
9.923426748596089753e-02
1.252757156479716860e-01
9.539271414544620020e-02
1.409869346821947533e-01
8.484710503396949988e-02
1.050564333689266994e-01
7.569817238231253687e-02
1.246773620560764351e-01
1.335837235280663837e-01
1.321558808520398587e-01
1.335533457703431404e-01
1.887371455899078398e-01
1.411655690781144223e-01
1.646836920499736012e-01
1.457595974184731635e-01
7.393319383664165301e-02
1.283661090787015513e-01
1.560079647581368301e-01
1.187931420228719448e-01
1.668821387377685539e-01
1.669923588643159595e-01
1.883745858219635083e-01
1.226939025458211319e-01
1.165642666623860763e-01
9.556823736020271520e-02
1.557809431352038254e-01
1.422271403679192525e-01
1.315778700942606960e-01
8.145751692100029751e-02
1.321630118438091583e-01
9.606817872625611487e-02
1.442958245407779949e-01
2.130996961505338960e-01
1.817178256087833843e-01
2.308081615131463704e-01
2.021690194958682130e-01
3.302730367713733184e-01
3.598536558007854325e-01
4.217002865591457650e-01
4.529158550070794265e-01
5.686251079265354225e-01
5.793302375349022038e-01
6.480732283494503587e-01
7.172469769653486704e-01
8.193351872587737450e-01
8.478975074408316992e-01
9.277515306830247388e-01
9.998005475113957985e-01
1.106833370722279941e+00
1.111900009501029185e+00
1.139247407356750896e+00
1.134023241468563370e+00
1.199400602947849004e+00
1.181574772731650347e+00
1.166734953790295126e+00
1.147346570990617209e+00
9.997509297380144933e-01
9.219484352140726591e-01
8.741288230321653252e-01
8.298067615930349028e-01
7.507002046869618583e-01
6.565743854699909177e-01
5.785760016076805234e-01
5.099560641779554704e-01
4.829314479000205163e-01
4.046658389501033293e-01
2.954382330502738352e-01
2.626723521107275361e-01
2.285353976600821846e-01
1.983268853255311104e-01
1.914905238518659902e-01
1.827471306278940222e-01
1.672218392629289674e-01
1.046317347554088228e-01
1.250149298493124506e-01
9.923260351879704955e-02
4.309465113289024513e-02
6.907821270008505932e-02
7.314223683674382637e-02
7.933920655251604226e-02
3.968722942901262152e-02
6.888061070645647155e-02
7.325319944006977724e-02
1.307175209712652109e-01
1.160893855223202320e-01
6.610149323923628084e-02
1.059832433789710260e-01
1.627370839813157000e-01
1.964581160015794747e-01
1.467957520499024726e-01
1.327280413056797503e-01
1.120423577147350025e-01
2.422388237330485583e-01
8.903518230385057408e-02
2.128064813752187368e-01
1.510557512761648014e-01
2.119545725788606061e-01
1.904268559430611352e-01
1.654875547631821930e-01
1.650904667689153116e-01
2.325636007281604023e-01
2.461332005899036501e-01
1.509233255056258161e-01
2.628229140026205335e-01
2.153052044144617150e-01
2.455615607868001371e-01
2.178334092122334587e-01
2.697371277670678746e-01
2.119011404173583302e-01
2.216415654522082834e-01
2.480836907587190276e-01
2.066053044207861733e-01
2.093972725648097499e-01
2.392755167078425282e-01
2.104503080776095048e-01
2.102952877169675938e-01
2.326529598808573518e-01
2.237094280520374456e-01
1.786471187878249933e-01
2.741095211497883155e-01
2.596796622320053927e-01
2.213179699899594510e-01
1.400007572702943737e-01
2.051034585173626135e-01
2.072568667029026923e-01
2.017538496848958196e-01
1.826691715607457189e-01
1.816281341304150643e-01
2.198047896732240603e-01
1.725023907773895748e-01
1.796761270311163505e-01
2.162101582847333336e-01
1.867380750248528731e-01
1.617608111445575092e-01
1.568665777277993001e-01
1.377491828402381824e-01
1.064216875226327991e-01
1.356009798909950659e-01
1.468589378802541701e-01
1.007406490826979334e-01
9.156937700296927107e-02
9.913845250828290379e-02
6.513056659872659693e-02
9.616354996267578725e-02
7.273653425479797985e-02
7.896624036004140645e-02
6.818801716825417802e-02
5.506393096685571753e-02
7.820392257288741322e-02
8.174495407537932246e-02
5.501130024308639038e-02
6.766495068054781403e-02
1.058053445947995663e-02
6.452509298702499563e-02
6.023576939161250088e-02
6.110759973713869586e-02
3.523184916021290108e-02
7.329205213134520891e-02
1.067921080672878942e-02
4.081602742615823148e-02
2.350145622838730602e-02
4.939319612266664800e-02
-7.745877158509252569e-03
-2.982014584313455452e-02
4.120493715836094639e-03
2.035974539010388523e-02
-1.895829514029233678e-02
1.855355557080928808e-02
-4.801856043035752919e-02
2.027008749240604563e-02
-9.700061406597376701e-03
2.635150636584703693e-02
-1.737639364027861177e-02
6.904484854030078222e-03
-2.424695203080189793e-02
-4.214193810535585283e-02
-1.448023248552904318e-02
-4.213194926345500274e-02
-6.408326381675391592e-03
-5.547284461730411786e-02
-1.741354741867060310e-02
-1.364620689815446153e-02
-6.813193823539534510e-02
-4.824054878293031201e-02
-2.997907693147108116e-02
-1.051190271056926806e-01
-2.893763865501814553e-02
4.559108893338013890e-03
2.235142535390971519e-02
-8.862825181621708515e-03
-6.052720908732567295e-02
-1.196005511597718340e-02
-1.231367625855861458e-02
-7.192824105914763511e-02
-1.304499033815604767e-02
-5.331682076567692552e-02
-5.304604863960197397e-02
-3.363978521423416357e-02
1.025159140260467616e-04
-5.572736594554472678e-02
-5.385962122987965339e-02
-2.500861670980577406e-02
2.094033007819615100e-03
-7.004505087232104632e-03
-2.398126773269319140e-02
-1.919073596305266929e-02
-3.230437376824195350e-02
-6.948812402487947182e-02
5.529308032019196462e-03
1.784758203746780736e-02
4.613171136720960186e-03
-3.356468792549983926e-02
9.697734541592922808e-03
-1.491112352229160068e-02
-3.343435758390970319e-02
4.164916268118745712e-02
1.529878894145756535e-02
1.814773989410756877e-02
-2.941311634306185974e-02
7.000356305615515473e-02
-1.362149631979780312e-02
5.239171216528988595e-02
5.141943259418550738e-02
5.151887531670669429e-02
7.428281743601783393e-02
4.101542321458057083e-02
3.689275218812476664e-02
7.848461757470964750e-02
2.624270645367551141e-02
7.926992890556455729e-02
9.056042893770149815e-02
9.913142138538019732e-02
5.406605235292391565e-02
1.017784245428570711e-01
6.191412241299767971e-02
7.436100762676203790e-02
1.432293354431276589e-01
1.255593859956232738e-01
1.371877953651125248e-01
4.843528991690267127e-02
8.197351038475758633e-02
7.942340636745462423e-02
9.043726888215868065e-02
1.150667971102451448e-01
1.202203096831646056e-01
1.185024883650428462e-01
9.302867640591400145e-02
1.051185514266853860e-01
6.014627154398569098e-02
1.104321546235336182e-01
1.123743940349744286e-01
1.143387937011380029e-01
7.140533738029020139e-02
1.360247179203587509e-01
7.903105107171287669e-02
1.308824168263646170e-01
1.087907184773332370e-01
8.821390248025762215e-02
1.743425928762601107e-01
1.364394689913734360e-01
2.187629882771759404e-01
1.938580412203625702e-01
2.907607355651004033e-01
3.297700758034324831e-01
4.139537944640390710e-01
3.994981715567338387e-01
5.336860144408641649e-01
5.635336174866162340e-01
6.953072817966815533e-01
7.406876440553972207e-01
8.679011588549057077e-01
9.096333960940987673e-01
1.007905597424958666e+00
1.070693400289203456e+00
1.037912718319850658e+00
1.066645771520968955e+00
1.126173898232400106e+00
1.128913800039179627e+00
1.112742031717167457e+00
1.160383944625378305e+00
1.090831887867350192e+00
1.028753407872009751e+00
9.794423000600062101e-01
7.920279785289932040e-01
8.322759500009040412e-01
7.434821299491717328e-01
6.579024854175502535e-01
6.463626937221722546e-01
5.470936787585586325e-01
5.134695677580707329e-01
3.949948109217216174e-01
3.072506556883541906e-01
2.758011162567654551e-01
2.540609075788420879e-01
1.558718415723729656e-01
1.462367882273495900e-01
1.342206400221106488e-01
1.064343688483997963e-01
1.402389666184471750e-01
7.515197007606098933e-02
6.635556485876717425e-02
3.939896507572119427e-02
7.944258711942911444e-02
3.471990020912318897e-02
1.002981812856436894e-01
4.188046277562908204e-02
8.162627940749039857e-02
7.132714950549928767e-02
5.418774391260118561e-02
1.179188518336489189e-01
8.755755979553583868e-02
8.748773650205285413e-02
7.538403650634420416e-02
1.474159934378117265e-01
1.422307714516192756e-01
1.501280261711124275e-01
1.719947649866859496e-01
1.138473895637206468e-01
7.135574012014772594e-02
1.488146515373443002e-01
1.964779262080994515e-01
1.516210802219932208e-01
1.286392667979688320e-01
1.433184514923614983e-01
1.837861870000898068e-01
1.769706508942230083e-01
1.595132104236557657e-01
1.768913868264770928e-01
1.804715931933092987e-01
1.493041605788429094e-01
2.088450312994267755e-01
1.605426243703053646e-01
1.645595759306479333e-01
1.798582516069527348e-01
1.939029819130553001e-01
1.663140940585691729e-01
1.965766699937827877e-01
2.577711125052881136e-01
2.232856810949161441e-01
2.632586780462342624e-01
2.375993874867962652e-01
1.962735356888141713e-01
1.972264441641833344e-01
2.498072531013428299e-01
2.262463985934881627e-01
1.656128641378441513e-01
2.194814428962498232e-01
1.937350573776679130e-01
2.178054344826930444e-01
1.266466745853628006e-01
1.672450963013294989e-01
1.379721924949001144e-01
2.415083599090929456e-01
2.246248595919528579e-01
1.732913071818844852e-01
2.021922144543166211e-01
9.812970240875069916e-02
1.607168028330645815e-01
1.363828462840663835e-01
1.539999439302222606e-01
1.458481462371284954e-01
1.060960465663126490e-01
1.426681146905446895e-01
9.719486532573087811e-02
1.600921125893107200e-01
1.213639940809951578e-01
1.103525692734241559e-01
9.875170710956218678e-02
1.102657125943950767e-01
5.901451290713136816e-02
1.233497835829922978e-01
1.134059056744606553e-01
8.380828302073836666e-02
6.153407395294458598e-02
1.126093932243442952e-01
5.709453947885294312e-02
-1.811953713398074817e-03
1.943640269129343762e-02
6.716132845555677910e-02
6.402170380433236385e-02
5.463154162200674346e-02
8.625724540659329698e-02
5.015397526233458803e-02
-3.598310174248234294e-04
5.858850786483250223e-02
-5.505044892295865577e-02
1.810103407940015507e-02
-2.341567651725558891e-02
-3.799912899645405129e-02
-3.214703805202334674e-03
-7.386658671767160067e-03
1.899399285604676246e-02
-2.621136076385289365e-02
-4.729921925147644035e-02
-2.724998928066774823e-02
-1.169817919689505881e-02
3.344998968649061377e-02
-9.639707856035684141e-03
-4.141828326350172063e-02
-1.508881603401340810e-02
-3.630068131854380376e-02
-2.143626934781051735e-02
-1.130207529726061366e-02
2.717200816954176701e-02
-4.224993302319473426e-02
1.486855212875842769e-02
-4.531786504677581817e-02
4.266063087142717147e-03
-5.100593792065802323e-02
-6.586143098352509329e-02
-3.839979027315892912e-02
-5.559412993901842459e-02
-3.611799579526982912e-02
-2.938809252458582377e-02
-3.144151892283288813e-02
-1.367824277663084662e-02
-9.667863823406586121e-02
4.866948774961155078e-02
-1.121846450995772973e-02
-1.222787325670596920e-02
1.337496227126282189e-02
-2.516756668034826616e-02
-2.117760824050290286e-02
-2.313959308490961056e-02
-3.070436312346789404e-02
-7.758959825684966227e-02
-6.343300074334148886e-02
2.319634278892527407e-02
-3.859613272359014441e-02
-9.175146854367675908e-03
7.803438703089270179e-03
-2.543338920849012516e-02
3.971801194515144073e-02
-3.858268331627866254e-02
-2.686082013839966032e-02
-2.836774156901847657e-02
-4.845077591843482967e-02
4.775665967867818995e-03
2.564869989543973328e-02
-6.185811590265034160e-03
1.426105569168643200e-02
3.436280584653523401e-02
-1.199385488529602917e-03
7.488538848864847997e-02
1.945554282713950894e-02
6.413262987102243129e-02
7.919628402935792455e-02
3.023773088636316081e-02
4.801017090209642318e-02
6.116837907401521252e-02
9.086897504369143008e-02
6.947479791944910499e-02
1.231772354335380071e-01
6.918089549207503963e-02
1.063612930545301261e-01
1.020805987844383145e-01
1.024733080655262085e-01
1.515222829777414515e-01
1.269947385912178761e-01
1.251357697064263141e-01
8.721708260311857031e-02
1.574916374227328109e-01
1.188288612226867519e-01
1.379928216241045058e-01
9.500773001549869812e-02
1.174299944921521205e-01
9.890488019768484129e-02
1.139331962506075352e-01
6.205476496326925440e-02
1.297124752540690928e-01
6.530985444897995096e-02
9.275155147297931002e-02
1.331849368275801748e-01
6.936961774991279306e-02
1.201340771791711975e-01
1.419876135639515091e-01
1.281548443431068940e-01
1.573861144232832632e-01
1.253932679400606154e-01
1.509817432204146326e-01
1.181110797493835074e-01
1.435718476208856509e-01
1.731664188289573358e-01
1.793837035549043502e-01
2.102618852732567323e-01
2.652856349432912153e-01
2.487621495170261876e-01
2.732912734340035010e-01
3.727609714459070300e-01
3.461488364329977085e-01
4.522593049795378684e-01
5.022845317818065425e-01
5.778423111176470561e-01
6.744051206787199382e-01
7.522982201836844185e-01
7.623090063934958582e-01
8.632225451073171074e-01
1.007403198767750974e+00
1.022060048029350465e+00
1.087508772263785062e+00
1.075738104220183455e+00
1.119328302403282516e+00
1.153686217316765905e+00
1.166654553908512693e+00
1.112188430061282762e+00
1.123034153022655968e+00
1.088991616734338974e+00
9.777424114681029232e-01
9.071104564138124937e-01
9.294228775170177981e-01
8.026639128372402565e-01
7.362713099248135995e-01
6.968178316369704195e-01
5.756978574845600383e-01
5.350871729237851593e-01
4.202244783921882387e-01
3.363479261558139921e-01
3.766564163339810589e-01
3.167029861468110274e-01
2.737583277427633188e-01
1.991817390940933130e-01
1.935438520515772032e-01
1.394990144681590438e-01
1.507981333124321366e-01
8.385098496553347602e-02
1.097046617399180524e-01
6.261134011922640796e-02
6.406340262081662573e-02
8.114632013062068883e-02
8.394180947354039357e-02
9.083109210999286420e-02
1.153937546533132658e-01
1.429207397999563978e-01
1.286590934238857065e-01
9.861318812769388764e-02
1.497236748155268138e-01
1.013186050394809523e-01
1.208729239423893820e-01
1.807910621790813355e-01
1.243540002963402363e-01
1.659945416135676921e-01
1.114368227271317902e-01
1.789953808962046478e-01
1.693202326867868646e-01
1.962475951511726824e-01
1.981363708433187543e-01
1.763126754997770551e-01
1.708833116022767107e-01
2.173930764177105512e-01
2.185637763348339258e-01
1.956131600730142694e-01
2.041485833520788051e-01
1.557250280052689950e-01
2.023686079567529328e-01
2.115435683938146350e-01
1.947280799339559665e-01
1.454995893682597963e-01
2.591703350030906683e-01
2.434143338977741433e-01
2.500286582850080874e-01
2.069676492271956825e-01
2.355759398626351697e-01
2.948168986366530575e-01
2.234814171018922047e-01
2.278848328553575164e-01
2.413864243197415271e-01
2.222744877473476488e-01
2.482079007025199124e-01
2.315165161723396758e-01
2.753457510869726788e-01
2.500938091916947714e-01
2.410116256191885686e-01
2.783695378169884216e-01
2.276245886504281168e-01
2.909561556094319434e-01
1.677301508836717692e-01
2.022502905109131721e-01
2.171987074806163986e-01
2.332875940825303029e-01
2.288443169176181957e-01
2.672149133236377816e-01
2.102488574469071614e-01
2.346545227409496948e-01
1.558388634952853069e-01
1.973718051344814928e-01
2.398345157879103462e-01
1.760412100923876566e-01
1.657663760951857967e-01
1.422976465271613422e-01
1.069848103954698926e-01
1.490577871793244968e-01
1.891079813114630304e-01
1.277339815346285046e-01
8.335135038926352880e-02
1.095702677087721372e-01
1.354585931224786544e-01
1.046428555230358021e-01
8.147969370521736254e-02
1.493598704438613700e-01
1.610782880265411998e-01
1.142802728930787382e-01
6.087732187866984335e-02
1.506284557173700744e-01
7.970645150721994421e-02
8.380229942453913672e-02
5.854450708464795788e-02
7.525672109379952235e-02
7.861427379739162336e-02
4.185805487319694401e-02
4.184147868050969860e-02
3.789446813515964796e-02
4.843345096222171492e-02
5.026946447903681003e-02
2.339914016013905362e-02
8.403185971719083491e-02
2.379980852173722503e-02
1.601539684932407753e-02
6.473178260607813372e-02
6.573647261594386948e-02
-4.684216654903489672e-03
3.353585782205614069e-02
1.204780160462275498e-02
3.487258794518247051e-02
-2.633814073403011914e-03
2.735740385096019356e-02
4.928888745141016270e-02
2.099429474350681529e-02
-2.761185980925976585e-02
3.855394989927229260e-02
3.579382525767559053e-02
3.750402490994778765e-02
4.273614133844121782e-02
4.347841088937925980e-02
4.639416250138120312e-02
-1.101475062700723803e-02
7.751643080927209280e-03
-3.987150832578551657e-02
1.848453055203637396e-02
1.899329825531863997e-02
2.014409447714783294e-02
2.700727650067020341e-02
-5.543843789382160020e-03
-1.001414245489438103e-02
-8.397981803420674282e-03
2.221630803720230432e-02
2.402084174614647211e-02
-2.623798463751459559e-02
-1.680604788029187516e-03
4.129270237580059261e-02
4.073300553635357535e-02
2.314130034318379048e-02
3.321578066164379561e-02
6.766693468082046747e-02
4.320824101963344210e-02
-3.594439570175651105e-03
-1.823021912515805643e-02
2.772171923203506361e-02
2.630011508738921977e-02
2.226569681389838073e-02
1.144622048181821207e-02
4.111069202548277290e-02
-3.541457102555826963e-02
3.513681901573044442e-02
-1.376819095982726587e-02
1.039425803981782054e-01
1.675693020871850056e-03
9.502705445613016111e-02
7.834541354375078315e-02
5.889080946852705972e-02
6.668669330802493023e-02
1.534965966054576691e-01
6.755815354266152262e-02
4.977997495337577183e-02
6.227585884347987266e-02
1.019281726660581644e-01
1.306293197938898920e-01
1.362592413506606426e-01
9.086939223610204786e-02
1.243665611252943726e-01
1.196367909961174592e-01
1.313835962838096061e-01
1.793989699326397902e-01
2.274215619549039558e-01
1.326096674363806127e-01
1.477024722125091227e-01
1.318482701874538754e-01
1.625433683241485905e-01
1.935369945865172137e-01
1.926568950460458285e-01
1.261952623155888076e-01
1.602887715250604084e-01
1.492593918964777444e-01
1.582738754758824251e-01
2.145725436765262839e-01
1.696788901000493011e-01
1.671394345180167718e-01
1.998021745028955576e-01
1.340576917681692015e-01
1.380195623474010924e-01
1.531131200048183039e-01
1.552066540764575620e-01
1.628668630833304820e-01
1.462946099451333248e-01
1.749378855415830436e-01
1.750265830422520485e-01
1.751812665691213633e-01
1.903988954851858206e-01
1.626646858480437496e-01
2.138907165788375420e-01
1.818517585580116669e-01
2.596274172131075586e-01
3.324578197638305421e-01
2.928370216676696169e-01
3.780329348800776645e-01
4.250519717044538015e-01
5.226903754607505892e-01
5.495958003612143594e-01
7.090072166114060881e-01
6.673123308412720611e-01
7.213536690067106072e-01
7.987888771034692414e-01
8.889032997594683572e-01
9.757288307437155250e-01
1.039901411300260703e+00
1.103358720698661477e+00
1.220308674967865548e+00
1.214160178577640359e+00
1.180985334275972853e+00
1.218595928567352216e+00
1.285398467775386244e+00
1.162984582667238032e+00
1.151585404558246539e+00
1.134302930958193123e+00
1.048431356324578623e+00
9.553701532614879977e-01
9.640823530918628537e-01
8.329401582915593183e-01
7.511478622462485211e-01
6.991301631093596036e-01
5.673460845627822380e-01
4.994237958499029295e-01
4.735048058340246002e-01
3.328523311992694911e-01
3.196565368808407248e-01
3.028565270610016902e-01
2.443813276403150048e-01
2.488050856916660947e-01
2.215704308717244830e-01
