1.221125442276832285e+00
1.251909114727006722e+00
1.212651901457288295e+00
1.142694409558373758e+00
1.095446449284597223e+00
1.032311013573199210e+00
9.538234557403677538e-01
9.022817147449927466e-01
8.112819112572120517e-01
7.672749749401193142e-01
6.691443279425665080e-01
6.339408546409888157e-01
4.985118910617157284e-01
4.567308353966352263e-01
4.133868067437516669e-01
3.654280255117104415e-01
2.934021306310509170e-01
2.669254787845413701e-01
2.305456420753775326e-01
1.794063566482936301e-01
1.948176234245500293e-01
1.969026313934329753e-01
1.526554057153054755e-01
1.522526996809668853e-01
1.309457172379769052e-01
1.243942158710167056e-01
1.474648898042774936e-01
1.442306764388814888e-01
1.885896035984076791e-01
2.010001374207282809e-01
9.988844325601425878e-02
1.203797913450968954e-01
2.222428434431738542e-01
1.526575247683161773e-01
1.705080588331853997e-01
1.371268703446532899e-01
1.529717158843028058e-01
1.732980534095052427e-01
2.117142300472489302e-01
1.770806873630053624e-01
2.308367117085097786e-01
2.180805492952618829e-01
2.473504015392929134e-01
2.232597024345335801e-01
2.485749593808206925e-01
2.122689638308838389e-01
2.785497550461405458e-01
2.830904451378467579e-01
2.964143123189871276e-01
2.782847989885621764e-01
2.269623264536322904e-01
2.898256163269942731e-01
2.412802465209348823e-01
3.009673667141488096e-01
2.402404107613151096e-01
2.824996952497618730e-01
2.866943285522265406e-01
3.071412139642215600e-01
3.470454917980563270e-01
3.252060306851236593e-01
2.466828648534764579e-01
3.270341722977149757e-01
2.665086477025725986e-01
2.959562048084028452e-01
2.973317740036534595e-01
3.030596123004250519e-01
3.159262490623556685e-01
3.405800763112712959e-01
2.974895450275651387e-01
3.311116479588941397e-01
2.976301760028625121e-01
2.806406936139058117e-01
2.780463342572196961e-01
2.969119437161227837e-01
2.637626231147673361e-01
2.204969450144382281e-01
2.689343282086949505e-01
2.324458784553834756e-01
2.269651814318702221e-01
2.061156786746685121e-01
2.899494271201242257e-01
2.709151424068625413e-01
2.122326830150252364e-01
2.147903722126343340e-01
2.444854273502926056e-01
1.975081700762955084e-01
2.125911399876130869e-01
1.913471261711962024e-01
1.989319829265540351e-01
2.160283129862312912e-01
2.406508306946767151e-01
1.902538315694214666e-01
1.870443557450750804e-01
1.606241747875611359e-01
1.909708621416982832e-01
1.474840931223523333e-01
1.976782566582812872e-01
1.779401062197070726e-01
1.876282202100879037e-01
1.418216230602153960e-01
1.687135055604451761e-01
9.516942442164655347e-02
1.485943034701661114e-01
9.621945264134665332e-02
6.987516027996930335e-02
9.953934284918974917e-02
9.684220954940653270e-02
5.206397716710810947e-02
1.696896081524879307e-01
4.836906474938631323e-02
6.126285719018970816e-02
1.062086895431972600e-01
7.899112529825554063e-02
1.271521113667119229e-01
1.079666100013303431e-01
9.283684970399994074e-02
9.912098149531589630e-02
3.791020294582914119e-02
1.138292231147447764e-01
3.357484560945658836e-02
6.614488051259388712e-02
9.788674931714629046e-02
5.204032351144231849e-02
8.346130067720292089e-02
4.080686780727504903e-02
3.324032797016582969e-02
1.168072538709673397e-01
7.213375095378569968e-02
5.099495833220889229e-02
6.250027528530315013e-02
4.641363081682838704e-02
8.951862874930673064e-02
7.482520727701669205e-02
7.841509983607936052e-02
9.302940978008805706e-02
2.090122485113269507e-02
4.839919815630366884e-02
3.313079258540031768e-02
6.692903238669120625e-02
-2.002118584877615737e-03
6.438971520513379898e-02
9.554910961016899185e-02
1.482321384624949584e-02
7.705118274358921382e-04
2.200429778775071094e-02
5.495861954981837855e-02
3.919363791829141852e-02
6.273375722847754354e-02
5.640523191024328364e-02
4.115419744550190273e-02
3.142325264641861182e-02
8.521099950427445113e-02
1.038310091255972012e-01
8.815748079218402311e-02
8.201655115700703935e-02
3.528937490412595301e-02
6.014569713829345798e-02
1.446606116977558476e-01
1.050753068076445695e-01
1.062090712204724063e-01
7.742737829195607546e-02
4.077241350988020790e-02
1.189278726263044011e-01
1.137559110012443531e-01
5.140545858369883342e-02
1.165721263513170569e-01
1.408090783901064236e-01
1.515131460736148794e-01
1.422945562318976287e-01
1.008303110069662112e-01
1.768902124936994613e-01
1.528047235199804788e-01
1.880604955234965181e-01
1.935938435340892050e-01
1.460512855033974100e-01
1.323749919292006583e-01
1.712146550275261414e-01
1.715672164495498919e-01
1.532780859750492441e-01
1.353032221984348804e-01
1.832553667111720408e-01
2.533000136247283152e-01
2.449924914157936007e-01
1.425898282548242746e-01
1.727408513144649549e-01
2.016845821724915500e-01
2.038374080861412030e-01
2.173274155478235048e-01
2.237024640135633347e-01
2.236710573907085553e-01
2.787010340053318602e-01
1.677886570784244413e-01
2.411200555301931114e-01
1.768751056139729605e-01
2.177286256535767572e-01
1.933707460673453615e-01
2.063987847827327138e-01
1.891826449833046431e-01
1.745331415424067056e-01
2.139932966679951587e-01
2.015617190723450747e-01
1.548495712287918380e-01
1.453153286219005802e-01
1.647454490643635583e-01
1.614242538397674953e-01
2.155038297868999975e-01
2.016020070668574915e-01
2.312496069431171641e-01
2.461320810912074331e-01
3.465781501412177334e-01
3.377303275707179697e-01
3.738727526691564274e-01
4.109961487652830647e-01
5.057196580002002451e-01
6.153453018602687008e-01
6.353165993825896640e-01
7.643629816109943631e-01
7.686715881346292134e-01
9.286921977174434906e-01
9.709052748047857229e-01
1.048064472154538462e+00
1.070944585655232872e+00
1.080670751844902799e+00
1.211686699468123241e+00
1.200346981118311174e+00
1.176958034289341537e+00
1.262765745060942635e+00
1.215268896370462315e+00
1.212540798924257368e+00
1.183570665889209783e+00
1.105009808556971951e+00
1.136061785913590860e+00
1.003055122030604540e+00
9.304759980965469079e-01
8.350281745808452172e-01
7.536672324897395470e-01
7.296072304541931786e-01
6.267121825839322424e-01
5.291958654563158060e-01
4.772590917283140999e-01
3.884310361406538847e-01
3.652025230424459368e-01
2.662755048109229361e-01
3.340747144677458924e-01
1.836918888919784054e-01
2.658926561797599897e-01
2.453409195167915169e-01
2.139895796927236971e-01
1.959201840763190594e-01
2.093141778794554986e-01
2.177018684062489440e-01
1.716497314321181189e-01
1.415874610333359152e-01
1.387157175080763749e-01
1.520963938654520398e-01
1.420879938484179705e-01
1.563187728350571015e-01
2.148228531442273326e-01
1.714850549327846252e-01
1.387291950256882844e-01
1.490576037258326825e-01
1.898441394685675410e-01
1.810184603354073607e-01
2.352253873992090627e-01
2.045455383611316236e-01
2.161462058305311795e-01
2.241537822437347227e-01
2.021566208135797127e-01
2.539167547996675767e-01
2.385539877899019445e-01
2.093632061332406091e-01
2.363379214273808593e-01
2.083719289059092483e-01
2.373590481490267246e-01
2.027601946195854155e-01
2.887047322625212464e-01
2.687027251602218669e-01
2.314282853982718713e-01
2.992777553052001216e-01
2.812355198236888842e-01
2.512204291392163835e-01
3.038466118281812345e-01
2.653668491886413405e-01
3.193996839513933428e-01
3.156772832277737750e-01
2.597476281492950290e-01
3.012481507432969163e-01
3.191877422950533116e-01
2.735409681476193566e-01
2.745198073839086872e-01
3.285166770954163207e-01
2.487648685602967258e-01
3.107104554236392313e-01
3.432482475994909077e-01
2.682683391123322769e-01
2.975131098399605989e-01
2.788328102232626171e-01
3.015607499804653369e-01
2.849288709999645008e-01
2.517104959946092069e-01
2.446664196984202622e-01
2.417972642766008928e-01
2.710921003338249147e-01
2.858756243988418433e-01
2.745871755294798100e-01
2.305171509018069664e-01
2.396736130688263411e-01
2.338745906861985635e-01
2.217910634786173785e-01
2.175420912296455456e-01
2.433605015806791505e-01
2.077909359080094553e-01
1.903231883174273109e-01
1.859234760635001260e-01
1.098310538086978427e-01
1.449640511997822845e-01
2.250584217853123792e-01
1.555356232782980908e-01
2.120655194831550794e-01
2.460946948472698681e-01
2.257466216344640453e-01
1.928851250890808444e-01
1.416797744893867061e-01
1.715618980896711221e-01
1.174864404694465903e-01
1.319377394749914334e-01
9.459464978198180163e-02
1.095495900264003841e-01
1.325021157115858217e-01
1.165101919454561152e-01
6.911824527930607309e-02
8.558061974097330715e-02
1.004790620598523532e-01
8.707368133986326253e-02
8.186928772257608122e-02
8.353497751229180257e-02
7.767360851478319339e-02
5.221714186144401498e-02
5.514581669371673711e-02
7.185346550879720406e-02
4.350607862204704246e-02
7.855443014217132480e-02
1.575648018703623351e-02
9.968198350966084309e-02
1.296302509110440204e-01
4.245078802037311611e-02
-1.176755167355273551e-02
6.732987391822167766e-02
2.443072846389220468e-02
2.100336876470616093e-03
7.160680979285524717e-02
3.657963106595370217e-02
-1.190757363360323701e-02
3.858055405126915860e-02
4.089539113212603549e-02
2.509853609729918028e-02
7.626091700842126120e-02
6.104431171010606116e-02
6.508723518590675550e-02
8.485031903275590259e-03
2.472276109647787712e-02
-4.898992646447705712e-03
4.716749517575253431e-02
7.480850697308873143e-02
2.580168554652509383e-02
3.762750321565978828e-02
3.611768213025214752e-02
2.915376534405404035e-02
2.990634332797760531e-02
-2.321626248534534170e-02
3.600588199031407033e-02
1.816582835195614670e-03
4.255047069840507679e-02
1.243374765709857888e-02
-2.292919911446990658e-02
8.169544196401667957e-02
1.299065254900395525e-02
2.160659504395292391e-02
5.575760240498578435e-02
1.756793936075638426e-02
8.816638632463094649e-02
1.709793913337259372e-02
6.170278398514346396e-02
5.232557294972789430e-02
6.403232608573580786e-02
3.611190345764149490e-02
1.329454314081418564e-01
4.663936397536810885e-02
1.012149653805185928e-01
7.358433218482324234e-02
7.118693355161639924e-02
6.747779539108163249e-02
1.017692278898316149e-01
9.271049540879705564e-02
1.270404526258712141e-01
9.398191177822212694e-02
1.258075674265489996e-01
1.298006555242265381e-01
1.048923467414168975e-01
1.261417799060216005e-01
9.033392509228649336e-02
1.006232656679426490e-01
2.192899478489793719e-01
1.453743143236237712e-01
1.039314320992639901e-01
1.865640929739751375e-01
1.627334566091541979e-01
2.231652089448264153e-01
1.084981514354477206e-01
1.474808790816681536e-01
1.854887483999263231e-01
1.755024810470194874e-01
2.402249537453417239e-01
1.580376378621899947e-01
1.130111208813946860e-01
1.104681671447808877e-01
1.822011159913543010e-01
1.616572589015803085e-01
1.374959792232919309e-01
1.557074935444968944e-01
1.734137739940734002e-01
1.388624877279050762e-01
1.123631375273994870e-01
1.393452744491262552e-01
1.184908218994764756e-01
1.183783840834300716e-01
1.004405260780421583e-01
1.632012471562508393e-01
1.845329670926115773e-01
1.564099259182871460e-01
1.459960005557508211e-01
1.334381688349344508e-01
1.917701796240441903e-01
2.440056390378516349e-01
2.115117190563701455e-01
2.308779684869060878e-01
3.478149760892182418e-01
3.946033654261859591e-01
4.598367371996564534e-01
4.185955691852587535e-01
5.420516867509029835e-01
6.135278919303246425e-01
6.587943259435423693e-01
7.680054999687372375e-01
8.031931884116692011e-01
8.950458772372125171e-01
9.697711617793712824e-01
1.086810103618521373e+00
1.081417403912030339e+00
1.124672378164840003e+00
1.190932280698749901e+00
1.211895154958926968e+00
1.220629091898605356e+00
1.190960704707611839e+00
1.220327265473101441e+00
1.122994664866012737e+00
1.081435880804457739e+00
9.721268959424306244e-01
9.188972996012930716e-01
8.595672558480886849e-01
7.835403366604893893e-01
7.166298375749106109e-01
5.981424227400559124e-01
5.878049243181587835e-01
4.726171280409812714e-01
4.002377901237256785e-01
3.588551602228014503e-01
2.653094020910438111e-01
2.647266240851753327e-01
2.741032088889467366e-01
1.738951380846232853e-01
2.089411242574125971e-01
1.139552191016569710e-01
9.290656909612479697e-02
1.061427097827660065e-01
1.257595166551865873e-01
1.476033407771706885e-01
1.128491003840646767e-01
6.205102691573240181e-02
5.066788110009946833e-02
1.308893096403320466e-01
7.014265048208727371e-02
8.277137978234108684e-02
1.218429921238954744e-01
1.073521296019708665e-01
1.059697013715889119e-01
1.513966304514166028e-01
1.472298732629124807e-01
1.847690594487862159e-01
1.832952911875360968e-01
1.643245196528257679e-01
1.927379489541514723e-01
1.751411297330620620e-01
1.660903329895737357e-01
1.669621626379794999e-01
1.543143857546616093e-01
2.040968675941690902e-01
2.376438199257233652e-01
2.061138454852741997e-01
2.480659789936781601e-01
2.300537291667280049e-01
1.974595863296261522e-01
2.430653181262506790e-01
2.049258202544132212e-01
2.088752675328039987e-01
2.148856494188961797e-01
2.529478389381311643e-01
2.819908685038838847e-01
2.716881174409185862e-01
1.957818506611023190e-01
2.580139693252204713e-01
2.172444976586662690e-01
2.913864539810331333e-01
2.168494719290529060e-01
2.270071668226788519e-01
1.594511337243941229e-01
2.849227590876809435e-01
2.043481170373565858e-01
1.689102355603546712e-01
2.378964042420911584e-01
1.724974605685420381e-01
2.551729493351939659e-01
2.186579103484058151e-01
1.692530414563394037e-01
2.190224836429432165e-01
2.136377647548398651e-01
2.094905826570096496e-01
2.483337585138883641e-01
1.641767233778139712e-01
2.080137226882869395e-01
1.898813245224590107e-01
2.275921038384176309e-01
1.717066468517817190e-01
1.750234886392860734e-01
2.141530714959016535e-01
1.176588134121272639e-01
1.763702810467265569e-01
1.523872845724632830e-01
1.504810044236735145e-01
1.002240530627322435e-01
1.389812120169998944e-01
1.393653965267048767e-01
1.282189950067763040e-01
1.013253222991331720e-01
9.664370504008910900e-02
1.405865931802167124e-01
8.561802466203065343e-02
8.250364956945407946e-02
9.384347569795467581e-02
1.498381633542958946e-01
1.246398160461595073e-01
9.993372694453810101e-02
1.151766967652173151e-01
5.953221318831483644e-02
5.630154865819012033e-02
1.051867222033244509e-01
4.134713157070411815e-02
1.017692124308338802e-01
8.043843549824816752e-02
6.281866045743206284e-02
5.802353635320468828e-02
2.407648652869360043e-02
-8.167461298764926853e-03
4.790374594412154241e-02
1.637161309647378743e-03
-3.580748749526976860e-03
7.423028018744733114e-03
-2.048653630641888296e-02
-7.821748052702581777e-03
-7.055508940378811544e-03
1.409998031397358131e-02
-3.092095980782219242e-02
-3.150203440401036503e-02
-1.740805271313171712e-02
7.880000993909057339e-04
2.308298282085469513e-02
2.579557952502007506e-03
-2.891970292167665713e-02
9.344709429430733683e-03
-4.753405483474970605e-05
1.049373489979143689e-02
-2.313657160649419675e-02
-7.270844446721689419e-03
-3.484577845712497762e-02
-5.003203533466672737e-02
-1.555595857751117250e-02
-3.518553658556447528e-02
5.192064118360262270e-03
1.726176289079914272e-02
-1.583346416371388121e-02
-6.420891283041990638e-04
-2.870448353595687896e-02
1.117168950100256089e-02
-4.606401751838661018e-02
3.124459986322070115e-02
-1.006025883568768542e-01
4.658959609538496777e-03
3.970947536837327041e-03
-1.211750789820878818e-02
-4.475518219279801813e-02
-3.597889947695050161e-02
3.248394763725868939e-03
-5.804848473039213308e-03
2.762612037952642471e-02
-1.211148840350327605e-02
-5.540806850755070762e-02
3.152255998175992890e-02
3.858317161911507809e-02
1.532733563455559306e-02
-1.678521372328116087e-02
-2.666538155570940746e-02
3.744610529987989211e-02
-1.440811414438676955e-02
2.686650024697793959e-02
5.797031652750524178e-02
9.065707774503407868e-02
-7.804626807484438961e-03
1.827774792955427774e-03
-2.562181698766029248e-02
7.926738311321145092e-03
7.583533187541904863e-02
7.960879161731443387e-02
2.428767357617454825e-02
1.088872746159221250e-01
9.139019704834316915e-02
1.160185803506678659e-01
1.179315687974581695e-01
8.750892776134179540e-02
5.199829663065932972e-02
4.514894199327005447e-02
1.303128137668274622e-01
4.721581685207910939e-02
7.080973802189394206e-02
9.413437850870494394e-02
5.040530494125602945e-02
9.419209654536520038e-02
9.240193225533380184e-02
9.523714502101889023e-02
1.110605815650651806e-01
8.867944327866310317e-02
1.445878365466709836e-01
7.231456048565645944e-02
3.760485605048573959e-02
8.038645447322112503e-02
1.050917781603860346e-01
1.469742630210892631e-01
1.064231643162046881e-01
3.515635684515639597e-02
7.944992574331821711e-02
6.838032624253032044e-02
7.524983609208105162e-02
8.028669458912918167e-02
8.340903712294341077e-02
7.691811042773979978e-02
7.966144601501189138e-02
1.256701786208476446e-01
8.758602383443223061e-02
2.119797311035729603e-01
1.572812658100806171e-01
1.278098387102419575e-01
2.191898861152037081e-01
2.527355576883951183e-01
2.532946352134130552e-01
3.193820404226173082e-01
3.814454139052839698e-01
4.008279232542143466e-01
5.249751581572339454e-01
5.599538499717421347e-01
6.143853915568543433e-01
7.081448420343644523e-01
7.941137837271496913e-01
8.833304924805772673e-01
9.679539540203602188e-01
9.529882536198742704e-01
1.074471613802435943e+00
1.128790723240945315e+00
1.138736620851283465e+00
1.155234242637682485e+00
1.152800772073036439e+00
1.127183706148695563e+00
1.090775459294707206e+00
1.078832714319727826e+00
9.273472035268752744e-01
9.170183496603596662e-01
8.841211541907783023e-01
8.483578604277230983e-01
7.513207077728707439e-01
6.624859745641225039e-01
5.872078371505422556e-01
4.969753283271138855e-01
3.918456747959024322e-01
3.549629279418317629e-01
3.039622188286327797e-01
2.760577047766550884e-01
1.588116628280243636e-01
1.758750776903850732e-01
1.434340645384834523e-01
3.408366838032948765e-02
1.150838614130818421e-01
7.860744909037931105e-02
9.509157540022702970e-02
4.965852143330978796e-02
7.618968168704060018e-02
3.401914051682877749e-02
3.101293288902434719e-02
5.985857482766495513e-02
8.100517845070284717e-02
9.336670484998435549e-02
7.223043306293927546e-02
1.174174374942326543e-01
8.848851514268098184e-02
1.367411054732461662e-01
5.767594280275153279e-02
1.304496706048769994e-01
9.993946905287631743e-02
1.434451068827856113e-01
9.534374151976574008e-02
9.023755175158690300e-02
1.178479791602797394e-01
1.343546583811637551e-01
1.743067243419659518e-01
1.366898216464556559e-01
1.148597774321256232e-01
1.284634604464173213e-01
1.259780819424106135e-01
1.612585577702288220e-01
1.909795886677685128e-01
1.694068803516964594e-01
2.293574325876965303e-01
1.635612461760223291e-01
1.901705794082619305e-01
2.297755646828858744e-01
1.693318066502287056e-01
1.886052609027795701e-01
2.151239496924969852e-01
2.042684998972213450e-01
2.154616135631383933e-01
2.361083422089525485e-01
1.905861856654283426e-01
2.083244033987120825e-01
1.968251433675677342e-01
2.117995663864481459e-01
1.813006561687123264e-01
2.349369701375784714e-01
2.254636554148738981e-01
1.520826719187079179e-01
2.133488537999855827e-01
1.892240353702460132e-01
2.528533149095885113e-01
2.224790334795404001e-01
1.624416380641047764e-01
2.126055759102127574e-01
1.606724953762751484e-01
1.768105854585314551e-01
1.925980560528513241e-01
1.369557839528952881e-01
1.816405202724848678e-01
2.133466062923483897e-01
1.338074275875683894e-01
1.451440354650231357e-01
1.504556482108876658e-01
1.374624798938072490e-01
9.715289204224361597e-02
1.141400034420025911e-01
6.139434604311981569e-02
1.173090779823278279e-01
1.227959552133738030e-01
1.173770389970957284e-01
8.966099119643938797e-02
1.145801459262082433e-01
7.892702733795704806e-02
7.853791825458830700e-02
6.916068799315724935e-02
1.044119035048156618e-01
4.708452516973783003e-02
5.879912111271595743e-02
8.324616426052570961e-02
5.210895615450573254e-02
1.963059208465901817e-02
3.189099154242051870e-02
4.895126400235594311e-04
4.406758742328814593e-02
1.766502516358138541e-02
6.046496645031461392e-02
-9.165128719211969310e-03
-7.772168701926769618e-03
2.944708764289539343e-02
-1.431536322228788016e-02
-2.240155369214400297e-02
2.076872229851219054e-02
6.537515879143016018e-03
-4.223051766457436990e-02
1.574125321132043009e-02
-2.516963906282447191e-02
6.134145625188415496e-03
-2.831701389187611662e-02
-2.807164646338944011e-02
5.949050572864530984e-03
1.537560054733813630e-02
-8.022945340822365545e-02
-2.695439406994162845e-02
-8.266303898284386997e-02
5.745670693769716619e-03
-7.544972730630991609e-02
-6.038737561107301172e-02
-4.700182608863343742e-02
-1.850512583212299972e-02
-3.210003246162350388e-03
-4.369310093040162241e-02
-5.941811456605857605e-02
-2.888850150160927541e-02
-8.900307470017837508e-02
-5.023221452264431397e-02
-9.278441961184838438e-03
-3.278819646285510009e-02
-1.050243842036216457e-01
-2.247529493243585058e-02
-4.420857881880642382e-02
-6.701093286603213017e-02
-6.265920483341791414e-04
-7.210438619636258539e-02
-4.348512020204446660e-02
-2.010964788131239939e-02
-3.827006743353380397e-02
-3.234726531625299606e-02
-4.626360001480229328e-02
6.890559515603869589e-04
-2.043313820765093117e-02
-8.261058667968325386e-02
-2.295613575141370807e-02
-7.510931230799211544e-02
2.741590519472161813e-02
6.621976204638710395e-03
1.060161725366187691e-03
7.513346172022886127e-04
-7.015616197534763065e-02
-9.431665761420932048e-03
-5.386494034678890319e-03
-1.680755634891915873e-02
1.440629254936645620e-02
-1.566485232321765397e-03
-2.896101802626103311e-02
1.998954899686906234e-02
4.770150984289803914e-02
1.528888798783222674e-02
1.171350993449997435e-02
4.757180235439602972e-02
4.909705675432240318e-02
4.717953916763885369e-02
7.701267172877060418e-02
3.873093674442086576e-02
5.600245248373568463e-02
5.107498099069014003e-02
6.100314836996151985e-02
6.904174084030263725e-02
9.615989046916223471e-02
7.352290684806878085e-02
7.047326222708842625e-02
8.401459002020264522e-02
5.512957955466173121e-02
8.818888085966161694e-02
3.822375492622918924e-02
8.530238422122357611e-02
5.904930534588136853e-02
1.142481000793956897e-01
8.967770027625879270e-02
5.277792670880251946e-02
9.570753899440906376e-02
9.600785870683462009e-02
8.538768330227435033e-02
9.510350730763425520e-02
1.444006594876729999e-01
9.535108728633620578e-02
5.544829628933788113e-02
1.042694946549220375e-01
1.013161490111790658e-01
4.691671354198512223e-02
1.017690435510451991e-01
1.197897906868152368e-01
8.821479694257469695e-02
1.007216510812072030e-01
7.156656072501241250e-02
1.340260629506674073e-01
1.490343945429371542e-01
1.810914357974212352e-01
1.601343530815456384e-01
1.419877944654960866e-01
2.843110900859281420e-01
2.770211252583246742e-01
2.617579617543800974e-01
3.802554900092275925e-01
4.545671512892604516e-01
5.218515023584722190e-01
6.053620595534908722e-01
7.085063675387204274e-01
7.385520739672256640e-01
7.725359471100361475e-01
8.297260469576189790e-01
9.322930248016324528e-01
1.013598751384205743e+00
1.079529814192160986e+00
1.086827508050477897e+00
1.155790543175946761e+00
1.100602010552728327e+00
1.147494418209581424e+00
1.150442088707067212e+00
1.027594227393100246e+00
1.021696384561242565e+00
9.991057285094678830e-01
8.733611779819994148e-01
8.643999618531064133e-01
7.315023272585822189e-01
7.207617298410006201e-01
6.192088145420823198e-01
5.282591107152407872e-01
5.155652715194747326e-01
4.033103458316149026e-01
3.295902229710615527e-01
2.525356395926026121e-01
2.056934507210949614e-01
2.099476711506458315e-01
2.000928601338549107e-01
1.539158781440627122e-01
8.355888216661847001e-02
8.511470016376329606e-02
8.058981329825870565e-02
1.038631586409970997e-01
7.647678667907367722e-02
8.725202233738973967e-02
1.031900172343734462e-01
1.029644082761079771e-01
9.762009808081831275e-02
1.345927978862735408e-01
1.062716646986334446e-01
8.766852925792589790e-02
1.056213036798006322e-01
5.519456773205941996e-02
9.500243418772916226e-02
1.402010304131854346e-01
6.777407769414715843e-02
1.273342935153324307e-01
1.320277242862460954e-01
1.273359319947273693e-01
1.318411800655153177e-01
1.222060088059462313e-01
1.743686736629127265e-01
1.345491543436189708e-01
1.382255335567438848e-01
1.517681352387587057e-01
9.837513538750065900e-02
1.623820842184800772e-01
1.802083287139963075e-01
1.891427224546296249e-01
1.298294392646865691e-01
1.278591361358722700e-01
2.086867369386749549e-01
2.433458472445511056e-01
2.744424391405725361e-01
2.669957869534248518e-01
1.934211063383071694e-01
2.291586373995353199e-01
1.780630258834532964e-01
2.818794716582447846e-01
1.975567525457448403e-01
2.132253946999505267e-01
1.893078156911528753e-01
1.872993381432308813e-01
2.436205934755868163e-01
2.307289918682427221e-01
1.933316126375385913e-01
2.034929444587011138e-01
2.389176394494706979e-01
2.598028443491665618e-01
2.292578156387377886e-01
1.844581744637686094e-01
2.427222943480314976e-01
2.122515929854340844e-01
2.455923768122283968e-01
1.957818873918336922e-01
2.277778287000992719e-01
1.761357351499096280e-01
1.872659887098256370e-01
1.983931763317715313e-01
1.664483359936016205e-01
1.707529724837063001e-01
1.291148356521399643e-01
2.257830478876056701e-01
1.149164905822962351e-01
1.522646308491194811e-01
1.339744422424253567e-01
1.119075765850650467e-01
1.338204880953812737e-01
7.227047940757987121e-02
7.327652846613338933e-02
1.483148328202889832e-01
8.625957868413898499e-02
7.164445614032445564e-02
3.921026000513526399e-02
8.121401737702141355e-02
1.361069530844485342e-01
1.003310990366340638e-01
9.755699678407979414e-02
3.796600447034127745e-02
2.883611843779464862e-02
3.481573385030901913e-02
7.608103618025351123e-02
6.024296953062713289e-02
2.694804628705483110e-02
6.536225849874152671e-02
6.737055210756420776e-02
5.047458627997862546e-02
3.824748233990425683e-02
3.555242606871626687e-02
-2.039140723520030396e-03
8.166685807888605930e-02
-5.661674260618365651e-03
1.273922990769661354e-02
-5.257217997750834870e-02
5.442077883193764676e-02
2.671041639926779315e-02
7.200707750703066318e-03
1.710018787956686659e-02
2.457185333837308763e-02
6.393857540562191549e-03
-1.962902544654691536e-02
3.816629685859011800e-02
-5.131584756489915647e-03
-8.917868007422228432e-03
-4.101211781352533114e-02
2.777056568499118583e-02
-1.025687962612143594e-03
-5.170259233871581789e-03
-8.445624416721780880e-02
-2.401786860155261799e-02
-1.185585956196612972e-02
2.690215965606406606e-03
-5.112443698278686111e-03
1.851053971109424545e-02
8.823479181460983783e-03
-1.032700092988465129e-02
2.949190191660717303e-02
-5.172832248408086586e-02
-2.970687517221794888e-02
2.715181426368489317e-02
8.533397177415965457e-03
-4.658314287739304116e-02
-3.349444053816467981e-02
-2.348312555666223767e-02
-2.010038810237427254e-02
1.045480164453164301e-02
-3.273433495070420668e-02
4.184631118016949800e-03
1.955820732188047126e-02
2.536166487384836077e-02
-2.407058787636086675e-02
4.223393550687871284e-02
1.636041781002132642e-02
6.811920725550771327e-04
3.538650759370860072e-02
-1.920003023350445523e-02
-7.263875380387065095e-03
7.418009801766081712e-02
7.275423179714228528e-02
4.356063430488434779e-02
-1.331558064274567486e-02
5.106718880255264187e-02
2.500262080630537981e-02
9.465659131842686647e-02
9.354218216422796606e-02
6.194482849169438698e-02
7.148213770137482048e-02
7.393498406877511975e-02
9.710601602005504429e-02
9.588764126890354789e-02
7.749347303040092505e-02
8.979420291917498964e-02
7.085306584787585960e-02
1.001124213733624035e-01
1.026484883512662899e-01
8.013741592646557443e-02
1.040222332943758210e-01
1.157654986177129031e-01
1.193025268953142592e-01
1.105415093707412116e-01
1.117296348271156065e-01
1.215460164044797342e-01
1.778109837235361257e-01
1.245309988245584115e-01
1.921796994943289483e-01
1.937325423373384425e-01
9.854414608409250986e-02
2.147640298905329204e-01
1.657511023819127072e-01
1.492688065963935218e-01
1.470352176669209865e-01
1.071382254312999716e-01
1.301150135339160518e-01
1.904350551385287360e-01
9.366181811951418412e-02
1.361064412396920109e-01
1.923148058875941979e-01
1.385816649531528832e-01
1.264751576769261310e-01
1.026931125918843501e-01
9.558091610559511786e-02
1.335125602996775906e-01
1.197610329069045271e-01
1.614874325692381984e-01
1.923782050517970077e-01
2.223089277739538627e-01
1.674871699869449615e-01
2.201555530312447884e-01
2.963577574402933568e-01
3.237042108141974794e-01
3.227319821866966865e-01
3.910074639260955887e-01
4.445920826210130183e-01
4.884072366264212151e-01
5.306593782097656087e-01
7.062315140148649473e-01
7.131363340097885972e-01
7.789336273253762988e-01
8.543116067550657888e-01
9.526245013239195147e-01
1.005048728011160408e+00
1.044127526815474827e+00
1.105011598896190828e+00
1.165109528952164242e+00
1.140708522099067812e+00
1.140898715850727108e+00
1.202580406876814223e+00
1.151000312008133797e+00
1.165335876095372258e+00
1.042205532036175164e+00
1.028080699533796993e+00
9.337541416096054592e-01
8.996834750429342220e-01
8.434867365243063908e-01
7.397823479074397968e-01
6.717472194358200532e-01
5.629568349389162396e-01
5.102494131565170621e-01
4.901279966939298127e-01
3.600461003753676614e-01
3.541637161690381341e-01
2.909636885595640043e-01
2.864055893984865930e-01
2.170811629529800224e-01
2.058683765647360275e-01
1.991218842572319292e-01
1.564932815553677359e-01
1.168446279417890560e-01
1.069793034565903467e-01
1.337694801315853221e-01
8.864806106924170981e-02
5.119061884455516215e-02
1.498160588232884116e-01
1.576111375907302548e-01
9.831841987534981064e-02
1.395726760118193022e-01
1.848774263658122530e-01
1.199028489857194568e-01
1.616677292591920112e-01
2.308661625501733650e-01
1.409812784924977525e-01
2.127078729669921175e-01
1.996209904401742008e-01
1.391826300554609985e-01
1.543475637604943274e-01
2.278407896513000575e-01
2.114441669895488762e-01
1.621851539468277259e-01
1.991904844598624547e-01
2.070049402578562070e-01
2.300535186065814919e-01
2.154924843369819265e-01
2.790787324386060364e-01
2.666890834383957576e-01
1.685816128148226456e-01
2.424900661586657236e-01
2.470736403601310471e-01
2.554001442423672330e-01
1.710759871290425949e-01
2.312869139198719948e-01
2.226191098512972366e-01
2.718519983357554626e-01
2.349142899586261768e-01
2.790557705817052758e-01
3.199131331475983386e-01
2.687609405918170435e-01
2.482329606996968308e-01
3.014615158744572421e-01
2.451788759849657939e-01
2.169053189266594017e-01
3.162070185710700865e-01
2.909984295178614788e-01
2.850627616170418044e-01
2.462216760760742307e-01
2.090708624877988808e-01
2.556836835525183038e-01
2.303231033070227973e-01
2.600710403868009557e-01
2.866427085185863088e-01
2.551015851327222417e-01
2.274934837913239194e-01
2.209091745162633791e-01
2.509931642811328856e-01
2.653032683607899345e-01
2.170651937189617686e-01
2.323717022043608749e-01
2.221799920070557377e-01
2.567910416396240181e-01
1.369777847242331648e-01
2.362328492487194009e-01
1.934672143547335188e-01
2.066787995474950179e-01
2.177234105908708583e-01
2.206676765247050087e-01
1.614577795171072139e-01
2.066294151713563843e-01
1.576524835672240277e-01
1.293313179241798172e-01
1.929181568181725370e-01
1.442856259645974304e-01
1.590346078274471608e-01
1.849707598064716241e-01
1.146667313064435589e-01
1.462009654090297150e-01
1.816156910564836191e-01
9.781222426731339681e-02
1.626221994993247710e-01
1.627573454402958530e-01
1.133867725340832605e-01
1.352924360944384174e-01
5.960640808625722320e-02
1.510719303870921293e-01
1.271094927411189901e-01
9.513474373262312267e-02
9.728040965893566816e-02
1.933639771393876744e-02
6.633433218434149625e-02
5.408479031478548305e-02
5.769901636374565046e-02
4.419459402267328363e-02
7.137499247577558381e-02
8.573612268994326713e-02
3.665352839895545667e-02
4.231321916635555347e-02
8.434366802353234632e-03
3.004029793685849062e-02
5.004896288098042295e-02
7.391502295972240955e-02
1.587029226772236623e-03
5.738887312300921389e-02
-9.868612375942997783e-03
-7.134959105789928646e-03
3.077866322635077270e-02
6.925975378124532567e-02
3.468889187069842950e-02
3.821207041755074474e-02
-3.046803022770334934e-03
1.120327207382677825e-02
1.636111655428370767e-02
2.330100903294853032e-02
5.520005830777703626e-02
1.419028190315590673e-02
8.760807705984174909e-02
6.167328399069935824e-02
2.199645159980813391e-02
6.425265552387414425e-02
4.297364433652563903e-02
7.644777085695815544e-02
3.978906196503046583e-02
5.764291763847469163e-02
-3.727189934299079965e-02
6.406681454452989311e-02
6.775201819102587286e-02
4.262373380777098597e-02
9.716110428991313330e-02
4.002937093495651660e-02
7.321969240663389611e-02
3.243633624278640520e-02
8.273996662587632112e-02
2.033751818988032214e-02
7.701751409583117158e-02
6.954175594486375345e-02
7.199931002737358643e-02
5.025940316358362692e-02
5.588310955673600477e-02
1.198134975155190629e-01
9.647915666796320899e-02
5.861664408249721292e-02
1.085060219210486065e-01
9.098128516777884145e-02
1.095331022101420915e-01
7.452640421855157016e-02
1.039444923048180314e-01
9.014529228344608791e-02
7.166327692523344339e-02
1.523881572106530191e-01
1.147339664859022557e-01
1.311021394335875334e-01
1.676672768620708631e-01
1.345974052957381595e-01
1.056237336099018764e-01
1.996070775308023126e-01
1.720447256470684083e-01
1.607099412550861417e-01
1.260823188418943863e-01
1.768816070416641406e-01
1.466150140502522348e-01
2.050875237390295813e-01
1.701858437360318221e-01
2.034892085250708527e-01
1.384827712664346011e-01
2.161943151253515327e-01
1.635487240506441897e-01
2.320021202737878874e-01
2.454113689033505796e-01
1.737954492320082922e-01
2.167852773930509236e-01
1.972785511029565564e-01
1.714589282788272495e-01
1.989799212419251229e-01
2.327763189016936463e-01
1.883787217248163448e-01
1.644589254499690123e-01
1.619018845651361838e-01
9.724051273317127486e-02
1.965439114775569818e-01
1.684525502574302780e-01
1.694673034928116939e-01
2.045717545349844957e-01
1.686654395428713871e-01
2.115534295314773772e-01
2.058643396027149963e-01
2.783044042978511934e-01
2.790119667521211433e-01
3.330188528401600290e-01
2.945025155376560511e-01
3.827765333179031781e-01
4.918236774913133380e-01
5.063975264380753405e-01
4.797108666040187375e-01
6.278498632614482045e-01
7.013190591245801464e-01
7.488997257548739572e-01
8.428513674775893749e-01
9.689090167717938629e-01
1.028043129149337265e+00
1.075752580538407166e+00
1.110329732256642998e+00
1.176086597923135857e+00
1.159040805554260256e+00
1.269754079728675711e+00
1.184027172270625039e+00
1.213654370095851309e+00
1.222426232816866687e+00
1.150438211316785697e+00
1.112860654456983678e+00
1.070581744281425607e+00
9.890808489862258357e-01
9.894895627770743385e-01
8.481362366019992161e-01
8.012165176500006813e-01
7.190976012835514908e-01
5.848983236104745576e-01
5.491233425703232474e-01
5.186646664535302653e-01
4.310028928037329954e-01
3.226425217309807914e-01
2.563146501181587933e-01
3.001541471803714223e-01
2.286301062409372142e-01
1.298761922595551566e-01
1.741726890332676581e-01
1.618609164388765675e-01
2.104857276233884356e-01
1.666410202060558121e-01
1.912181282929462378e-01
1.315545317961086258e-01
1.468768363677913358e-01
1.558196811995199993e-01
1.060822175844244458e-01
1.927697451496253878e-01
1.712128628241966488e-01
1.978098024735773508e-01
1.355585575298715872e-01
2.467873395804361381e-01
1.558721027428403016e-01
1.766398548150359682e-01
2.137662349051362431e-01
2.083701949894315730e-01
2.273217220842357333e-01
2.246445197322708143e-01
1.932540946551368211e-01
1.729702774286811240e-01
2.004283771341288933e-01
2.629792736789175467e-01
2.779834689166212347e-01
2.336260964311424049e-01
2.550579703531069553e-01
1.812359245352823667e-01
2.621391952788224566e-01
2.562108957095147188e-01
2.930809194459147449e-01
2.694002592880861968e-01
2.671194667851607418e-01
3.304932981849789675e-01
3.165602887720563863e-01
2.728190636274043235e-01
3.388401558553600368e-01
2.812721435989856134e-01
2.974920330142844516e-01
2.845134704007630244e-01
2.590226156245868383e-01
3.565742664329575318e-01
3.101687777488758013e-01
3.170455637390758308e-01
2.814323321066142247e-01
3.178493797729562420e-01
3.108834053604825343e-01
2.219375679889359909e-01
2.668331096279711878e-01
2.804533063462855691e-01
2.955619501884082512e-01
2.731756055236506664e-01
2.966078051595875120e-01
2.071673333732541311e-01
2.494303519405191849e-01
2.415013680650394401e-01
2.913515102168559578e-01
3.254286373201951688e-01
2.647207936012980767e-01
2.152006587434289464e-01
2.653824776514291939e-01
2.414222624135240469e-01
2.267068564926832952e-01
2.078737895153114912e-01
2.476826972555364603e-01
2.600244770141794115e-01
2.566111871226724461e-01
2.090225603324103731e-01
2.484451375434518772e-01
2.335343266144704055e-01
1.618920265958476157e-01
2.042853092890511424e-01
1.072530524898813176e-01
2.354760437918146931e-01
2.170181706845788761e-01
1.313522988724485918e-01
1.307620370766782725e-01
1.165914884889546477e-01
1.271372767574117102e-01
1.303806395766971549e-01
1.367814987023108220e-01
1.429598776154040185e-01
1.368883892365470034e-01
2.045261503894169053e-01
1.286822788797358230e-01
7.207348224137755111e-02
9.744167603929651533e-02
8.291957573721842056e-02
1.144240068148573986e-01
1.076187615614971893e-01
1.155354615748494240e-01
5.393139415425636518e-02
7.204531290868285143e-02
5.699373693275093522e-02
7.997360490804104882e-02
1.175094501443845196e-01
1.039285418674922440e-01
1.010172816709914712e-01
4.237240107775967768e-02
9.851381917670704036e-02
6.522551882949575996e-02
8.581258760549391462e-02
1.339804057266728576e-01
8.216598310299441654e-02
4.705663574234672519e-03
5.198412975757557564e-02
9.199674568729546142e-02
4.411334004099445177e-02
2.583301870974798187e-02
7.875988839121898788e-02
8.622208987118076817e-02
5.027732450781707135e-02
5.242720112939643767e-02
7.594380410841158890e-02
3.968215680888449726e-02
9.374356183177205704e-02
3.603274740402179904e-02
6.918341243872541679e-02
6.775271162280691040e-02
9.699664845156416582e-02
1.019960754777078649e-01
3.848674864137137386e-02
6.564849608517442370e-02
7.413644439471805958e-02
2.245583395982629626e-02
3.049540561891445761e-02
6.301692466606138854e-02
5.032993334462253915e-02
6.364479541244662253e-02
5.058495951032535021e-02
1.347602097927914633e-01
1.923218291984476330e-02
6.054149924044219255e-02
1.028148315042452243e-01
1.145664949689580714e-01
1.159093019017260751e-01
7.593527770144475886e-02
4.497292769704142740e-02
6.658677815031759095e-02
1.344039826909947805e-02
4.624174705391828621e-02
5.788861877076269258e-02
9.514631763173633794e-02
8.419275333466953726e-02
1.434144394103851750e-01
7.002466137713889149e-02
1.245027700104883589e-01
1.195058020087852169e-01
1.141389066909371947e-01
1.963736127860548908e-01
1.861307559773400788e-01
1.527522328296216370e-01
9.420358903527761840e-02
1.569442916244285779e-01
1.435916129775446359e-01
1.696609020277114743e-01
2.278087895363505866e-01
1.967637696120581869e-01
1.752684045926529710e-01
1.568116720828247601e-01
1.311916837500215482e-01
1.685236173070378263e-01
1.576875147803653288e-01
1.727711592743545188e-01
2.091356474302704105e-01
1.548006718739922960e-01
1.762866168922345156e-01
1.861821091147837504e-01
1.589340463973440143e-01
1.563074253488790089e-01
1.947534714122074462e-01
1.965325210752608687e-01
2.495539607180779773e-01
1.620286714766392688e-01
1.788043826321798757e-01
1.971482738495908549e-01
1.659257859487937581e-01
1.371820232556799912e-01
2.033271689734700016e-01
1.289227409378707334e-01
1.873339683517120657e-01
1.784619376867966900e-01
1.992759478393172357e-01
1.681601937919849077e-01
2.372892352799376436e-01
2.280318439121605256e-01
2.657093056226690897e-01
2.665672890561526232e-01
2.844469561778087963e-01
3.669127161774865531e-01
3.689522508101846232e-01
3.164355013570125941e-01
4.644587876351750633e-01
4.315858817796630609e-01
5.158390614244053873e-01
6.441290291766320619e-01
6.908994656947672341e-01
7.916342532127040865e-01
8.963226303956228769e-01
9.466360722929199056e-01
1.005791311893393436e+00
1.072614995003046801e+00
1.155457641509354483e+00
1.148183215564935189e+00
1.174368285174580695e+00
1.189897115751811230e+00
1.237234053759071362e+00
1.195158916762136592e+00
1.175869516282285643e+00
1.136968238472944925e+00
1.106991715594333625e+00
1.005367905542677853e+00
9.851524424133224489e-01
9.230985277687314694e-01
8.038647352355103859e-01
6.815210357988991108e-01
6.576069205187622391e-01
6.024951076413962436e-01
4.248793617909797371e-01
4.590220809136303926e-01
4.200211034111857034e-01
3.131911424905317043e-01
2.194250169197341505e-01
2.482108939950332660e-01
2.420577099145801714e-01
2.240278737254032260e-01
1.870443740817355760e-01
1.579155698453762746e-01
1.971089360656749223e-01
1.724383181559097644e-01
1.026809259350098813e-01
1.302162110156484809e-01
1.994265750970900808e-01
1.315531347320102462e-01
1.603888559343588094e-01
1.206437917238390445e-01
1.415053810035526438e-01
1.406903157490800305e-01
1.758955592926179923e-01
1.800921176743462138e-01
1.772489042212392896e-01
2.592966221016478889e-01
1.852028048474313460e-01
1.653153009702852672e-01
2.342559758104866829e-01
1.828277868132291151e-01
1.669487128722328129e-01
1.622435052509565989e-01
1.476942749523013076e-01
2.008457932484112030e-01
1.570249355018389914e-01
2.103516267752024438e-01
2.068899436286718019e-01
2.138817388956839038e-01
2.450684707536693041e-01
3.089520313007106944e-01
2.582145393023967395e-01
2.663431856540435794e-01
2.080601743805000070e-01
2.216530143334163871e-01
2.833205563341457123e-01
2.256052107463822620e-01
2.930341164377330831e-01
3.125512035918506237e-01
2.371226263457466565e-01
2.256954462069523937e-01
2.457939461470376730e-01
2.835934649260729579e-01
2.826297485352771144e-01
2.717747501830402035e-01
2.847326233312853505e-01
2.691974460628209220e-01
2.404050713795296002e-01
3.227533787805436094e-01
2.838038464253176407e-01
3.050926707043691843e-01
3.039596393370306293e-01
2.537395443619712698e-01
2.413874711423332486e-01
1.717953989412938642e-01
2.695605392658245725e-01
2.420640216140952927e-01
2.497166613360712883e-01
2.333617767105776175e-01
2.276257593645487354e-01
2.679263556056196705e-01
2.285748496185596168e-01
2.283988854903191701e-01
1.675702970290602889e-01
1.840208066902787598e-01
2.360190876473234056e-01
2.348287890965684577e-01
1.747175694840009119e-01
1.625887887773470319e-01
1.277260893141508036e-01
1.450952701486630247e-01
1.847048682174460277e-01
6.030220467293256198e-02
1.213204470422949571e-01
1.497110090015343620e-01
9.337965119842173145e-02
1.020957464807653453e-01
8.213441221392932257e-02
1.413299689402800763e-01
1.555894078995913310e-01
1.128040815143746961e-01
7.609300855742807956e-02
2.397329890977266398e-02
8.500408017353010270e-02
8.601950201643814020e-02
9.693294384759597315e-02
8.760432896423933635e-02
1.210825615565110785e-01
3.542696736540770774e-03
9.184239834791205204e-02
7.185835713262947455e-02
7.243713993646547222e-02
3.214971246946890515e-02
-1.570825719639741547e-03
7.567057915226639564e-03
8.187499036247118667e-02
2.847988269731025618e-02
2.472521687444846628e-02
4.693816416231485003e-03
7.886285523564653954e-02
2.099606306371906705e-02
2.491559284850551614e-02
4.267470987976695190e-02
2.718488085474389526e-04
3.363554872096656545e-02
4.986694479029281368e-02
2.579134573167271571e-02
-1.852296947161315849e-02
-6.735330577451868750e-03
5.429114656054997989e-02
-2.423406119657028901e-02
1.824867808570567254e-02
2.273100870968328135e-02
-5.628050395238325121e-02
6.046439315836229372e-02
-1.113472980410777982e-02
2.264738915330942633e-03
5.813458170559861887e-02
-2.712681609632266663e-02
5.738935200885299237e-02
5.032267895194384583e-02
-1.363172027141805465e-02
-4.649535837087345053e-02
5.542248707680326458e-02
-1.977930944744073563e-02
3.467761623581589337e-03
2.833212016015552656e-02
1.686765539106584166e-02
2.141693126454168039e-02
2.443889757943354391e-02
1.378641588167344584e-02
4.674695037418043209e-02
-1.974858745653543246e-02
2.911189832039776451e-02
-3.913915627644225931e-02
5.896726421976000720e-02
6.646049057933113569e-02
3.153114202890942852e-02
4.305934903302349043e-02
-3.144081969457349079e-02
2.021279321820971045e-02
-4.408833176485101729e-03
9.560196100799746299e-02
2.262062256852820363e-02
2.041599212587923151e-02
5.750976971012339983e-02
5.333496216201985551e-02
9.059573282101091030e-02
3.704121039895538758e-02
6.132619440688680951e-02
9.333087403918466363e-02
4.939917984037946186e-02
7.445154403820576638e-02
6.625020813172366463e-02
1.313609123273561941e-01
1.265197498987321312e-01
9.151896320862989986e-02
1.371157784758278986e-01
1.265770207498844169e-01
1.780885602699515124e-01
1.108544801548352748e-01
1.594246848566473751e-01
9.151444227500546424e-02
9.803015556768251981e-02
1.303639789860559228e-01
1.416562792758915557e-01
1.801713622227500700e-01
1.751150348113700295e-01
1.692406313581965582e-01
1.637831156805103772e-01
1.491711499245937933e-01
1.473371749072275305e-01
1.517146499852997932e-01
1.561448424216714259e-01
1.496199377014860166e-01
1.510473912737302637e-01
8.909288208969563805e-02
1.974444298492844252e-01
1.811934841729421208e-01
1.814626696292350183e-01
1.056678779589016598e-01
1.164814323962919673e-01
1.409050891472609091e-01
1.180927338374856139e-01
1.271436291994506307e-01
1.560611979541672301e-01
1.028799515994684305e-01
1.506481481940183109e-01
2.623205400629857742e-01
2.699181010523166169e-01
2.794053647537182439e-01
3.201403467019994231e-01
3.057504461201768220e-01
3.570181810588133886e-01
4.043635918026318721e-01
4.853400242862274672e-01
5.886492702220368356e-01
6.945143594293297085e-01
7.719421981835739022e-01
7.918961984378984909e-01
8.672283319528291123e-01
9.252317865694168475e-01
1.019710720891148448e+00
1.075240631576076744e+00
1.116728980335089050e+00
1.170840954977112824e+00
1.167102747604890078e+00
1.166017885177515367e+00
1.188429044015740121e+00
1.096992943135018272e+00
1.041025089823935490e+00
1.055865091906240893e+00
9.704302460475279224e-01
8.580708239014597227e-01
8.106128933811754811e-01
7.428111252336557779e-01
6.988710143290005616e-01
5.850655260085765308e-01
5.463144149321612630e-01
4.582812516103108025e-01
3.729279632109877007e-01
3.171776873808122010e-01
2.686751712210798670e-01
2.243015986283873886e-01
1.585290852448587029e-01
1.459287666859226396e-01
1.502742681725837970e-01
1.578343456548245705e-01
8.414982048737110198e-02
1.802233877575714349e-01
8.507521392623898504e-02
1.228084010789071423e-01
9.000019942596329536e-02
7.378152970528505106e-02
5.820776330490237682e-02
5.685836284459931667e-02
2.859328951309219810e-02
6.555790797725793984e-02
7.456204497250962238e-02
9.983206776938496896e-02
6.564236072830442748e-02
1.289219475540995530e-01
9.775571246551480187e-02
1.447367184116596373e-01
1.636028231226870355e-01
1.235277179062148900e-01
1.388184778816036746e-01
1.084346129382833812e-01
1.419093348674743682e-01
1.434760324973665679e-01
1.365565049841681311e-01
1.968191078914265368e-01
1.999859056510450983e-01
2.083794700759757645e-01
2.153726937508111394e-01
1.275661780238431520e-01
1.858851042489708949e-01
1.672059518895409602e-01
1.853919406246624380e-01
1.679920982415242792e-01
1.823331022971149962e-01
2.387515938676650629e-01
2.329958760995480549e-01
2.485442326226088017e-01
2.354240650600128437e-01
2.407623636733126626e-01
2.462683901163644218e-01
1.901981627029819821e-01
2.115668498343017956e-01
2.163945256741925116e-01
2.096812774258728640e-01
2.792112457023950833e-01
1.774816169363646057e-01
2.104438988678227762e-01
2.167974911175044594e-01
1.875569508742297442e-01
1.695064402396131154e-01
1.849277020462140042e-01
2.775068692269586079e-01
1.625885087374442928e-01
1.684700853350242500e-01
1.677859254857557991e-01
1.751606923060148313e-01
1.434382298660218380e-01
1.586548872101384011e-01
1.704435806838785206e-01
1.561323862984279331e-01
1.779507144638274863e-01
1.966170637729171000e-01
1.066570277261491562e-01
1.124665026452423416e-01
1.217149040703858071e-01
1.309189138415426390e-01
1.413698081275632235e-01
6.986897163327965288e-02
1.033102413884917636e-01
1.354360145585885855e-01
9.460654968144752153e-02
1.525508054586789120e-01
8.237243314327435950e-02
9.226043505390613131e-02
3.858051521101139164e-02
1.044794005871709786e-01
1.197633635137092534e-01
4.650168478144132977e-02
8.182145406262295029e-02
1.022058921792773911e-01
5.493626284330782594e-02
5.807693328177260944e-02
8.112420196089814572e-02
3.947226481421796385e-03
-2.020619732795901624e-03
5.189573261064967663e-02
2.351980673806541161e-02
2.854615932194180805e-03
-2.541821907156079086e-03
-1.585573989959597474e-02
-4.019552705088917655e-02
-6.400006003929016585e-03
4.624202593298838704e-02
-7.020766455447559340e-03
-1.893615380517797014e-02
-1.364414429029593701e-02
2.001583784859019971e-02
1.568858638140913780e-02
-4.637285640445216323e-02
-1.650009973727892959e-02
-1.792192934717757105e-02
2.218695262693803905e-03
-1.678182940042833096e-02
2.510440823589524251e-02
-8.840803805255928460e-02
-3.794708938216925787e-02
-3.492324054810030248e-02
-2.666982638482370480e-02
-4.654742899791159544e-02
-2.091372725875525335e-02
-6.650803881848518784e-02
-1.787393530064493308e-02
-3.970032184839174250e-02
-5.127121030447948785e-02
-1.128125371455550308e-02
-9.232821348640851689e-02
-3.214371402312157788e-02
-8.177361944466973731e-02
-3.338253091335322692e-02
-3.252688712609594357e-02
-6.555023641437793258e-02
-8.893407757022947502e-02
-8.806790408641872181e-02
-3.465571478793012805e-02
-9.047674148000572902e-02
-6.374975235905099014e-02
-6.286170722597525518e-02
-4.788064093805888266e-02
-2.802303360161589527e-02
1.169159073362169982e-02
-7.365105565614296634e-02
-2.663066312267821714e-02
3.945147031284903377e-02
-4.270456851634546469e-02
-8.272768177775675913e-03
-2.790139384716077559e-02
1.855827595156010063e-02
-2.897355285652689072e-02
1.826029779332330460e-02
-1.264881861682615183e-02
-1.495090534435970786e-02
-8.035773496621372025e-03
9.158998551834322821e-03
2.082189977124435099e-02
-1.834799682889194650e-03
-3.379526628795301302e-03
1.795230134873679328e-02
2.437756032378880777e-02
1.038431562312537859e-01
3.598146016410900400e-02
3.992585111298266320e-02
8.742226912284489782e-02
7.266703493080084453e-02
6.545183811912272387e-02
5.463388010047225130e-02
9.429464452222793835e-02
7.568919300451390497e-02
7.961584582137254396e-02
1.089437215623331456e-01
9.428493732277792860e-02
8.204735069278185078e-02
5.692271763322757222e-02
5.359243212935277390e-02
7.080034254824942030e-02
8.260084727416901196e-02
6.057286455893052396e-02
6.522044407183016923e-02
1.440144824668309065e-01
8.119767931227866997e-02
1.142737389231887613e-01
8.078477685312765444e-02
6.564218275612226927e-02
1.381716959897174302e-01
9.012589472862149453e-02
7.713897057658439249e-02
6.799270949268487740e-02
1.121228166157698936e-01
4.102576389656081846e-02
1.228751630324870225e-01
6.743468222070685136e-02
8.615355892920173453e-02
8.855690210017094777e-02
1.359761821051529429e-01
1.395979388900940588e-01
2.818830093893515826e-02
1.312570571573050404e-01
1.486226024398403234e-01
1.684458733928749230e-01
1.615190455832026806e-01
2.286956577455617756e-01
2.610705284490720812e-01
3.498998197054015158e-01
3.648704412751608839e-01
4.690695785337705148e-01
4.868573642316595951e-01
5.592154926726456976e-01
6.413475618623271091e-01
7.270611334599730302e-01
7.994805261234717575e-01
8.436002201556078717e-01
9.189937647300424617e-01
1.074519310742451772e+00
1.049214435198087880e+00
1.059527904437233214e+00
1.106405793938107340e+00
1.104545633059579535e+00
1.116510373757211960e+00
1.056896245478235574e+00
1.051762610723798952e+00
1.088318385202278860e+00
1.039678512623900764e+00
9.533816119523956800e-01
8.226735986982632864e-01
7.888231449270122209e-01
7.189289081781736757e-01
6.393568520780327225e-01
5.788107432677567221e-01
4.059922979634086881e-01
3.376552417202530187e-01
3.036667179111421366e-01
3.297260283323552033e-01
2.538138971971611868e-01
2.252329976167712910e-01
1.982052668088707947e-01
1.594442662145795775e-01
1.171106921278356194e-01
6.420829998270194405e-02
6.937281922176208315e-02
4.867290030524745736e-03
-1.917175408399421355e-02
-2.168644144568770971e-03
3.104715770333778269e-02
5.145574279874888524e-02
6.912811817346282972e-02
2.094961762105269909e-02
8.694135311329409532e-02
7.053699657852954830e-02
9.881919581853923495e-02
1.315846760970016682e-01
1.149733371741904903e-01
6.544354792363163420e-02
1.353542806520199870e-01
8.810614681616171784e-02
1.059890889673473224e-01
1.013075640238474268e-01
1.108668261939107225e-01
1.647506995017622433e-01
1.075065335940367517e-01
1.357656878935724343e-01
1.460049366456444841e-01
1.631664063426505329e-01
1.683033845328272271e-01
1.433935372345061521e-01
1.768756855848242493e-01
1.828357531913680500e-01
1.820847329464812536e-01
1.208963811205026884e-01
1.661351461541251961e-01
2.116057129492479871e-01
2.080723051404695656e-01
1.740792068626501043e-01
1.748706829725669154e-01
2.231169308278876939e-01
2.461776401749428689e-01
1.709030050996168393e-01
2.147931470058591086e-01
1.815377756909757057e-01
1.899798520183834105e-01
1.515644847979308318e-01
2.043506773014764910e-01
2.407286645937741221e-01
1.552866526429443894e-01
1.848184104878651812e-01
2.112982426773321876e-01
1.760479201350554079e-01
1.759808226941981246e-01
1.768641025062645533e-01
1.778309007293662203e-01
2.034493693951126281e-01
1.647154325747977044e-01
1.610601769150836193e-01
1.828233921934795947e-01
1.867861695337687256e-01
1.713393382157664679e-01
1.353396591479235633e-01
1.689126520466865400e-01
9.658276281652690420e-02
9.119724995548411650e-02
1.102039211969643995e-01
1.963030932475627321e-01
9.132430690029566533e-02
1.075361599000716206e-01
1.524244369119471254e-01
9.766964971696756592e-02
6.759064014080826133e-02
7.832283813596531419e-02
1.696153784689286570e-01
7.089758281594599199e-02
1.231563623791935569e-01
7.894542401683665722e-02
5.876160835241962810e-02
6.758019156763643565e-02
1.124172529504358642e-01
6.591159429510487500e-02
3.520411069247686431e-02
5.978204512163295958e-02
8.736751394051632535e-03
3.391985443350080398e-02
2.087162886212363955e-03
3.244763350854857481e-02
5.887224384314870135e-02
4.052486770139240857e-02
-1.634983854068684794e-02
1.142816556483117890e-02
1.400470570456062436e-02
1.978295790520123720e-02
2.963942117532661347e-03
1.254043163409981898e-02
1.251444513268942793e-02
2.274435632306912730e-02
-2.805108430835695152e-02
-8.029457759232618008e-03
-5.256088236698096272e-02
-4.443909513166371950e-02
-9.833797713630590409e-03
-1.226125382100616557e-03
-6.741956928342493494e-03
-2.454569454193347711e-02
-6.486217834929769444e-02
1.429330335939880958e-02
-2.257590432362538424e-04
-7.327397468857509144e-02
-1.964418393532216256e-02
3.935310492755306200e-02
-3.287976269596697143e-02
-5.733172645030447379e-03
-2.087817328713689746e-02
-4.040450297418801684e-02
-4.579600508390958835e-02
-2.911754696175408025e-02
-3.803139460533092736e-02
-3.052422751235729995e-02
-3.851144359124984706e-02
-4.197990825588227698e-02
1.522823665783922670e-02
-6.817540415150200039e-02
-3.274878855697459235e-03
-3.570473718386119044e-03
3.702692601478711765e-02
-3.457239869928111636e-02
-2.196008881490472964e-02
-2.012205241292641666e-03
-5.008210497152126156e-02
-4.746605555543410154e-02
-3.011037678766446610e-02
-2.094021544827625106e-02
-1.440551154304758885e-02
-8.131447254471617370e-02
-1.954853087458269245e-03
-4.742069245157519430e-02
-9.919624870382373616e-02
-1.394713051378813212e-02
-2.245433001772397658e-02
-2.567493766914013056e-02
-1.297686440712297884e-02
1.159393994763821545e-03
3.771525805686738037e-02
2.747313583101198414e-02
5.788896041890608662e-02
3.368352335380945389e-02
1.003536437840887863e-03
2.386061106070154481e-02
4.276218972542127766e-02
1.114385887259133900e-02
4.359696664005608541e-02
2.452097999213104229e-02
9.744528410082320402e-02
2.888297169775310563e-02
7.989294819772807532e-02
1.243507451396433094e-01
3.432217217891129352e-02
8.980322918555067035e-02
1.029544760267191716e-01
7.750814233673175568e-02
1.285786550474697920e-01
1.032540428851859426e-01
9.203584988268563583e-02
2.705815316545581717e-02
6.459011838938696903e-02
8.229480224818291889e-02
6.340881739048838395e-02
9.217188650194796384e-02
1.092888555465971051e-01
1.543349224991035773e-01
1.523270476522996797e-01
1.742656889680238852e-01
9.531486285019294402e-02
6.786131470845724323e-02
1.406141357453797869e-01
1.489530335071395095e-01
7.152402335580529402e-02
1.890982846159558473e-01
1.351717190711743122e-01
1.016661336215728823e-01
5.446335783071748482e-02
1.695811506215985642e-01
1.236605023826951449e-01
1.125534202751344581e-01
9.291570130405163441e-02
6.228871040307665252e-02
1.111263246004832173e-01
1.336714547448902557e-01
6.995342048707327287e-02
2.354073796031106447e-01
2.250339064655660914e-01
3.093189059303881328e-01
3.413191838963178237e-01
3.802501841589993048e-01
3.840672709743040425e-01
4.234245900628307302e-01
5.257902938676578541e-01
6.186374942443478853e-01
6.936598223467219659e-01
7.048716432103037111e-01
7.927796282606063283e-01
8.605970349097652461e-01
9.936994465521202802e-01
1.010426387532785464e+00
1.109079973987195711e+00
1.165876126330019913e+00
1.130561031110036252e+00
1.125179019728634211e+00
1.157614629983196419e+00
1.165668086372527945e+00
1.129777088248498762e+00
1.048064859220746436e+00
1.024606695877197549e+00
9.448090307080669881e-01
8.981546873994716851e-01
7.657981092280550239e-01
7.450987708539829057e-01
5.827680814192099934e-01
5.879070601305401711e-01
5.754527315388539010e-01
5.195646609416656458e-01
3.610260550426925841e-01
3.618743004169915900e-01
3.119838559682840962e-01
2.675489483871452689e-01
1.882217157361822657e-01
1.432497056542860747e-01
1.752822225071185569e-01
1.194532104195173972e-01
1.107760164728334579e-01
4.560850818492198644e-02
8.730443767448843595e-02
6.777236325482438595e-02
9.255496734476346965e-02
4.265244383222355912e-02
9.317027729156777960e-02
1.176935575968584974e-01
5.059058272017724622e-02
9.795077113335393104e-02
9.994640562378745430e-02
8.118077131822347414e-02
1.131537643229606344e-01
1.318629205311927233e-01
6.340956904361370883e-02
1.522401532054021844e-01
9.826126677910398954e-02
1.432250178843198773e-01
1.820394662495486704e-01
1.716570753193576437e-01
1.156054139508662093e-01
1.901565298174309748e-01
1.834973360280017229e-01
2.171590280410671259e-01
2.132458282808489813e-01
2.140162747615146910e-01
1.939245823713418859e-01
2.123021250650412861e-01
2.310547725327047053e-01
2.228402132974686423e-01
2.269658801986284280e-01
2.603684273109385661e-01
2.394937266686068822e-01
2.331924217305230695e-01
1.905664215750005885e-01
2.565744812648327322e-01
2.406758471535223043e-01
2.502274327732473269e-01
2.502623986857737126e-01
2.165097998289381431e-01
2.440603332148838234e-01
2.445542949333447125e-01
2.546185942897749022e-01
2.170047583307067873e-01
2.836303060440384383e-01
2.542489221261122201e-01
2.667804707232451222e-01
2.504246463232845388e-01
2.195996936841522473e-01
2.697899970628668265e-01
2.230993571375367579e-01
2.178263545127540057e-01
2.354174519538549948e-01
2.164951856951647657e-01
2.098829913503393874e-01
1.771134461462053888e-01
1.867719902575161739e-01
2.076040147866255459e-01
1.818654792429320044e-01
2.090419387409673257e-01
1.999013697353577423e-01
1.766361783297575316e-01
1.777045770452916340e-01
1.724866242540565031e-01
1.548351764716316692e-01
1.580768270686641608e-01
1.355225113784419566e-01
1.426069580552766503e-01
1.492039653373762043e-01
1.226358557091285773e-01
1.400711123825200410e-01
1.250266937809512702e-01
1.324916142910474437e-01
1.509256942721120820e-01
8.566820872960023703e-02
5.661555057462445972e-02
6.796734013892802295e-02
1.429444044148920068e-01
9.692686559671341573e-02
6.698158232849958649e-02
8.753281106195788530e-02
6.403563832259968891e-02
4.380164088731691024e-02
8.980475285694278220e-02
6.689746896568035672e-02
5.760194641759137923e-02
4.082736769928492493e-02
1.642222811834986862e-03
2.802089358797103802e-02
8.309203476602959604e-02
5.241144568175627738e-02
-7.520550703978628841e-03
3.944420685463656540e-02
2.027856292999272170e-02
7.957497180427870742e-02
-3.021462795938299056e-02
7.792410289206956608e-02
2.821414107837334068e-03
6.072722248059334027e-02
-5.947551703864599124e-04
5.250291749056074098e-02
1.014777557723353825e-02
2.488155181272290808e-02
5.511177913951265800e-02
-1.883605379020783857e-02
-2.887364497711665187e-02
-7.382049970701564170e-03
1.467966486232033518e-02
1.024200891781715597e-02
9.570634639372440147e-03
3.268016383898937616e-02
1.702238142636411378e-02
2.797719716296038703e-02
3.382020479751157022e-02
1.704846458665201098e-02
-2.661077048214485763e-02
1.062704268345963238e-02
-1.304349241540520878e-02
-3.846876128325284194e-02
1.134361684077023896e-02
-8.802096020294331025e-04
8.232701790594886687e-04
4.376097880169375204e-02
2.014757899361928339e-02
-4.494251897253359607e-02
4.977699549947779689e-02
4.035437305772200667e-02
6.031956367173500755e-02
3.891158844976915290e-03
5.520703266001797394e-02
-2.550901509608133333e-02
5.983054804718882652e-02
4.931112101187676983e-02
9.516647462239369304e-02
5.437770514722056747e-02
8.657837082977873355e-02
7.122240704319719728e-02
1.086628521369459865e-01
6.164317420319105623e-02
3.454289104993232828e-02
8.882111582743322520e-02
6.108001725023580464e-02
7.256609297310567808e-02
1.268417937738552104e-01
7.143428019390056505e-02
6.360479895115100923e-02
9.823944163558367970e-02
4.339296383898005871e-02
1.011579600125354778e-01
1.043374188279644482e-01
1.098943182244583178e-01
1.136628263051235876e-01
1.770065927984161291e-01
1.388111505476644636e-01
9.829559979914691270e-02
1.310985811378122534e-01
8.680042813327248918e-02
1.841724413362688662e-01
1.980853173701274395e-01
1.212966799254406869e-01
1.439220187237629234e-01
1.262995113253848889e-01
1.755283626835940358e-01
2.091608219414727299e-01
1.830612858882405547e-01
1.633579730735950086e-01
2.067953459342318778e-01
1.286414716062340147e-01
1.474538937363370772e-01
1.995448167031246278e-01
1.385364377478624232e-01
1.246068033011680509e-01
1.345267828484778827e-01
1.418378022833472196e-01
1.993203428112820808e-01
1.537188242540014071e-01
1.266215714526310598e-01
7.916329387674798934e-02
1.624710982433897610e-01
1.751679215874253071e-01
2.206776546008439310e-01
1.612510868920815077e-01
2.074236373757098739e-01
1.880544277421866139e-01
1.763343400310043163e-01
2.321152565076957386e-01
2.505110472072580863e-01
3.113202776754534495e-01
3.214263674756897005e-01
2.984137567852385153e-01
4.168920983893936727e-01
4.275063101795948950e-01
5.135753406493751561e-01
5.751839876308809663e-01
6.784010050899188515e-01
6.840633848506030290e-01
8.163963480930543914e-01
9.349376422257881236e-01
1.009081359380550991e+00
1.018730239916248115e+00
1.092016893442292469e+00
1.109597026008972254e+00
1.206185101021745920e+00
1.235096945996391637e+00
1.225577857213418387e+00
1.196983771615375058e+00
1.139369457457541701e+00
1.145077550280960699e+00
1.104532371270611435e+00
1.054748901555180085e+00
9.670174709416901049e-01
9.320424585077832225e-01
8.094843739709220998e-01
7.921049320429731644e-01
7.042484514667302076e-01
6.282192984551473458e-01
5.763288006894862203e-01
4.884943115109701695e-01
4.265217548918652235e-01
3.574766472343423596e-01
