1.278341279465529556e+00
1.306384195300634321e+00
1.202714258393138724e+00
1.218674823681882291e+00
1.148766410996701515e+00
1.093783400999785549e+00
1.042146160130975607e+00
1.006501973655852700e+00
7.946628956892363149e-01
8.044293668347346493e-01
7.330304644287247706e-01
6.626501832747782039e-01
5.010272267265194479e-01
5.154244975006960772e-01
4.480340583933460352e-01
4.213928103098378841e-01
3.413153659506137916e-01
2.632543153125492252e-01
2.319831593916389378e-01
2.353853240719346318e-01
2.098493226449877902e-01
1.934996332227190974e-01
1.892768482430583765e-01
1.471198197007008712e-01
1.317481167728231650e-01
1.988835517518760532e-01
1.062891625073193874e-01
2.026934416504785896e-01
1.325881385279723823e-01
1.615535971266854609e-01
1.626423822288211307e-01
2.152766753026129631e-01
1.733361042234393135e-01
1.871601072441029245e-01
1.322149610354474147e-01
1.900496088550450158e-01
2.007981840994689238e-01
2.303342274674751167e-01
1.804881668346117185e-01
2.824845758437862231e-01
1.904015468680425593e-01
1.863665635146928568e-01
2.177309646467478765e-01
2.323201177678121399e-01
2.192624608618305437e-01
2.525242659606456996e-01
2.636471395748105628e-01
2.897487022743764906e-01
2.861949051424547696e-01
3.032398022542193150e-01
2.840625130550382127e-01
2.743409506817126586e-01
2.715268735676125700e-01
3.038523613132525503e-01
2.521342323867369339e-01
3.293459147961978473e-01
3.098140969822270052e-01
2.852442278930106268e-01
2.963014839656855082e-01
2.839820500135350478e-01
2.597402128169900570e-01
2.832207628517973141e-01
2.974152026177107055e-01
2.961691516662955936e-01
3.263457260005481197e-01
2.863039373331088822e-01
2.711096976151786131e-01
3.188953693909706288e-01
2.340378145023863654e-01
2.571629371800112640e-01
2.432178848958935768e-01
2.934686952838399532e-01
2.771765405292664908e-01
2.804952149205810485e-01
2.960237302798544579e-01
2.765817656801170532e-01
2.593902102283227595e-01
2.801720652538935430e-01
2.803004439885198873e-01
2.627032718227931829e-01
2.438382827202636438e-01
2.334166678812044371e-01
1.914046436200607104e-01
2.375857068838611585e-01
2.743476892971058456e-01
2.092178041411455747e-01
1.988429604883899249e-01
2.108025080435146636e-01
2.429151655676424770e-01
1.975324836623942315e-01
1.765388594354337926e-01
1.875244944445575435e-01
1.439783913545670813e-01
1.481467422862820515e-01
2.239008668115188005e-01
1.980100944729114576e-01
1.359747851906781269e-01
2.030340501546672449e-01
1.134488338761824311e-01
2.009163302483841507e-01
1.399527039759201341e-01
1.408705677227378716e-01
1.145460340122631954e-01
1.607140648597028543e-01
1.180072281473744655e-01
9.026109707943590077e-02
6.619055075688026757e-02
1.046396155376149578e-01
5.617856604051046227e-02
1.291088722993163074e-01
1.599782481693821090e-01
1.234448447448214248e-01
1.016747576999455366e-01
9.149691899737587286e-02
9.953973545894664876e-02
9.691066468890945085e-02
1.053907738721117093e-01
9.988769584492300513e-02
1.042204667742239743e-01
9.624995174571929213e-02
7.530361778727565070e-02
7.644443746789451877e-02
6.646213315926430276e-02
1.391288425049894695e-01
2.826341618260367825e-02
8.066421995930489475e-02
5.479677271948254352e-02
1.027132382291918167e-01
4.665701465002613374e-02
8.597418344955826131e-02
8.526799662671766256e-02
5.063011936428472859e-02
5.701501480901515623e-02
-1.562459954661196693e-02
7.929311789341457473e-02
1.005461212743806454e-02
-1.028020611964815256e-02
7.405203745886539124e-02
7.897969113506769778e-02
1.108621605358429546e-01
1.891412960632885693e-02
4.482339032872500323e-02
7.527357887758656663e-02
3.107251009656872981e-02
1.068847023751148956e-01
3.462162045242468678e-02
4.081914505688251371e-02
3.827287761277008149e-02
5.633056366245133006e-02
9.460883766741839951e-02
3.744743416265466918e-02
6.287683580935619909e-02
1.448531863685919296e-01
2.967929334009215131e-02
6.727747064411507272e-02
5.086438865324750813e-02
1.078083172767566045e-01
5.358741473571146385e-02
9.229932616954092395e-02
1.478839518558882071e-01
4.888580975656063587e-02
3.744465590378569936e-02
5.706739614304265351e-02
1.410474006159015969e-01
8.214722231022536514e-02
1.075332323209209073e-01
1.305935050715510415e-01
1.491461471786918458e-01
1.450718902982387482e-01
1.580430393423555846e-01
1.311036111032768958e-01
1.857495277535523570e-01
1.668023319039840247e-01
1.622497902006206083e-01
1.383293094305884374e-01
8.361869256463398681e-02
1.231630334831267382e-01
1.332575188140099065e-01
1.751416025438896629e-01
1.966592830049362917e-01
1.478310647981470605e-01
1.555511489490684907e-01
2.264696015409888574e-01
1.919501122838145057e-01
1.969189655160161201e-01
1.732414889259785429e-01
1.732165874714656217e-01
2.384436871550980053e-01
1.738321674686492402e-01
2.442877915871271843e-01
2.397202960774093283e-01
1.963314890069888241e-01
2.178743773196246958e-01
2.077603215435666062e-01
2.281437811578017338e-01
2.208582569391698280e-01
1.479394707305927148e-01
2.176852754080686736e-01
1.609670283774327637e-01
2.019544677512433439e-01
2.306694484542338996e-01
1.826271768773963800e-01
2.113577451184133205e-01
1.214438233867762285e-01
1.862240618028454531e-01
1.707059186875577173e-01
1.709760905456201296e-01
2.307258235546184311e-01
2.406946118974098714e-01
2.602705045719708732e-01
2.806160703183077088e-01
3.432668723089580265e-01
3.363611437914794111e-01
3.601817408239772478e-01
4.157561220752911124e-01
4.732674054003570552e-01
5.171194825347157353e-01
6.024689472147128910e-01
6.645781280980546102e-01
7.366833101080005886e-01
7.990198464813352830e-01
9.132976512401570490e-01
9.724229056040456509e-01
1.091599779506448709e+00
1.162099666839096157e+00
1.085939483729226662e+00
1.207978532608926070e+00
1.233891841255625454e+00
1.247713949891396057e+00
1.234767026501153886e+00
1.256917783122970311e+00
1.206698955359687631e+00
1.182043246991392182e+00
1.159085768298717678e+00
1.063252324910578972e+00
9.690838579414983167e-01
9.271961426823838170e-01
8.771961629686269024e-01
7.318719699411675439e-01
6.576352644256447944e-01
5.862799809790389949e-01
5.803862113121093236e-01
4.789669323351671282e-01
4.571463449150567904e-01
3.680694619196129835e-01
3.296474836685054921e-01
3.079315390537086805e-01
2.613474019835090867e-01
2.402697900707126966e-01
2.254352575515436163e-01
2.171337194800127546e-01
1.793866080742897440e-01
1.343318557132898716e-01
1.733181429196407330e-01
1.464844095002399982e-01
1.647303187923020995e-01
1.463571821631324821e-01
1.652611754000767597e-01
1.447449949529248103e-01
1.389621057457899878e-01
2.040962508526536212e-01
1.787344849158218063e-01
1.672146621699931168e-01
1.816404078866210026e-01
1.578675516959800462e-01
1.907047095438970385e-01
1.686401535101995086e-01
1.700815643007371758e-01
2.030227688923145202e-01
2.498564736793441043e-01
2.069314068037062526e-01
2.650101218290113470e-01
2.522442658721657516e-01
2.212665092783179244e-01
2.685655011178652574e-01
2.434397189606299639e-01
2.401651764345972551e-01
3.126572035314157394e-01
2.960588433412156273e-01
2.629806706543749151e-01
2.274241001698825426e-01
2.754978454222076767e-01
2.850212698519599130e-01
2.907073173657769849e-01
2.785849282987591935e-01
2.975904558680336764e-01
2.959198313020119375e-01
2.713252799592247300e-01
2.932979270457276577e-01
3.305363184934116960e-01
2.996524956520196237e-01
2.540633157717490098e-01
3.161898124527258713e-01
3.006542374327348943e-01
2.791343381098836396e-01
2.698226634999067453e-01
3.185062243832018081e-01
3.137989088728522780e-01
2.942138483495269630e-01
2.693530135720458296e-01
2.542991522637454982e-01
2.818606628298673256e-01
2.137387680001222034e-01
2.647008525258229827e-01
2.825982471154702691e-01
2.917149547555326072e-01
2.238556948343174979e-01
2.615301257592104189e-01
2.434901758240583802e-01
2.674497721336641654e-01
2.251548121564068139e-01
2.302108757923230775e-01
2.441511479527466444e-01
1.887838670483172332e-01
1.810895819344995050e-01
1.540858422949810957e-01
2.469052281537394145e-01
2.215679575500353604e-01
1.728548815973272035e-01
1.693386860594234822e-01
1.476570812111010211e-01
1.370734667555403574e-01
1.770923212555861881e-01
1.899578375488922277e-01
1.705386429908241352e-01
1.584475381533977933e-01
1.642814884089262295e-01
1.094106238265414588e-01
1.953508718347970741e-01
6.348166103626115553e-02
5.124991146691127569e-02
1.881525628023490437e-01
1.212550433569920122e-01
7.898141402293093472e-02
1.022693116313042189e-01
8.580582636276988528e-02
6.215392036253489239e-02
4.436237423689395193e-02
5.723585098802078802e-02
4.624910091244469057e-02
7.566525779811930641e-02
7.238028305962571074e-02
4.628472763753140734e-02
8.015166297254029681e-02
8.822409718155017899e-02
4.583073375022256313e-02
6.722417951074061149e-02
7.142581122907067093e-02
2.314488557892652870e-02
4.024894435164834416e-02
5.366401512652378691e-02
4.588523438365929574e-02
6.063477050723271866e-02
4.627573466306844630e-02
4.914636488351363519e-02
7.886630224020757529e-02
7.316618505558820929e-02
-3.302836017372449973e-02
7.090074683835406733e-02
2.316059721949575989e-02
9.012249079468634405e-02
3.102567823045615861e-02
4.131194006983372052e-02
5.147137548053482003e-02
4.354479103084067659e-02
2.889916536125936714e-02
3.255699628868219397e-02
1.250261400181097021e-02
4.443912320826491624e-02
9.663790698696153592e-02
1.207286946784967979e-01
-3.708123891455063215e-03
-1.724399202562719099e-02
6.946856782389239371e-02
2.171321303583370610e-04
5.987640830367495226e-02
2.206274448759041121e-02
6.121889116423907817e-02
5.280293512640329284e-02
9.239446119932154255e-02
5.870895514445847313e-02
5.452025512894351222e-02
5.016584858238697098e-02
7.447156614873529090e-02
5.911949157899385604e-02
2.363118615775490136e-02
-1.414294096247366295e-02
4.881559447997750600e-02
4.120697455104265633e-02
1.072347738482740259e-01
1.996568702339236029e-03
2.879962202427020779e-02
6.962289363860744984e-02
5.273157782574058872e-02
9.012001864899754633e-02
3.407715998017391001e-02
1.236086625919484983e-01
1.048720512495711216e-01
1.267160120501102383e-01
9.794380922022910552e-02
9.304700261639996250e-02
1.231323571456402338e-01
1.497527633643213063e-01
1.398898723169738345e-01
9.796615900199953653e-02
1.601198115778912356e-01
1.065261358170276479e-01
1.165991214707393642e-01
1.620095848177745546e-01
1.675147455041711142e-01
1.124222483218481061e-01
1.066129365815505492e-01
1.794830349691246829e-01
1.782127675858964921e-01
1.816079353120272355e-01
1.475568347742317321e-01
1.296052648468550283e-01
1.970444618653998670e-01
1.790452156945333828e-01
1.893047663575605499e-01
1.867340322277141196e-01
2.004262023632555068e-01
1.736407785401805071e-01
1.266417725447131493e-01
1.815896732807599223e-01
1.700919096837340272e-01
1.615165254050877630e-01
1.122401265918932384e-01
1.577939045961412878e-01
1.696779285543178195e-01
9.603903857670344213e-02
1.246052970713697056e-01
1.212328369265765898e-01
1.723796661992220147e-01
1.465765887808527512e-01
1.718721051784339593e-01
1.669568005593012605e-01
2.019744143206795295e-01
2.153336940838009583e-01
2.919496293860880387e-01
2.337505281090571652e-01
2.847115516124401613e-01
3.066694486464925373e-01
3.341765005396818422e-01
4.348884110054017094e-01
4.963149493595436779e-01
5.609311975037276632e-01
6.732216739748283496e-01
7.120621038652995560e-01
7.664383667773458919e-01
8.686313714038230716e-01
9.769921003110458857e-01
1.083718031637166401e+00
1.075286379457185637e+00
1.184013096199328041e+00
1.179378293007401490e+00
1.243682197246479548e+00
1.262307498930905991e+00
1.262907930093278397e+00
1.220992639624558285e+00
1.154694061192206744e+00
1.136404835967472104e+00
1.064527738707680804e+00
1.022936385626526778e+00
9.080293313672813671e-01
8.491043113578233825e-01
7.698414546628414845e-01
7.092010750776671646e-01
6.480960877561374733e-01
5.513721088464381692e-01
4.730174865027952924e-01
3.805635505358693216e-01
3.969471211804916910e-01
3.094294919584765768e-01
2.476455875449031230e-01
2.412862036488741257e-01
2.313103362484143499e-01
1.122715650457882103e-01
1.349778925394378715e-01
1.388635344983239484e-01
9.131584664145922514e-02
9.374780747347158383e-02
1.433470200508009107e-01
1.493442591312066081e-01
1.460972988276133255e-01
9.297095275107904178e-02
1.126552562140726022e-01
1.846047371505632195e-01
1.314775560428840528e-01
1.342237159837601224e-01
1.065915279293731671e-01
1.144468923570933494e-01
1.344690435748177038e-01
8.266823338805683041e-02
1.245737684523828825e-01
1.687530490533084016e-01
1.717894916565996799e-01
1.869100238206521658e-01
2.192959928755160992e-01
1.700764125958587059e-01
1.160958298340476758e-01
2.384315151529237953e-01
2.004576369680781955e-01
2.365501105932103221e-01
1.806090441724854667e-01
2.060972282092824737e-01
1.539536706658551912e-01
2.228460943720289023e-01
2.324364518936218316e-01
2.140528772923059042e-01
2.229263807212378823e-01
2.768488014490114169e-01
2.066809957609629378e-01
2.515500513289014584e-01
2.360762676659316495e-01
2.094859556080357343e-01
2.832453437022673937e-01
2.108838704651977147e-01
2.727965608419761212e-01
2.307575629771014269e-01
2.281424767007786403e-01
2.060478741287172511e-01
2.952682383775604991e-01
2.238673844485516429e-01
2.213684830993809527e-01
2.319043153891590658e-01
2.420214450453702926e-01
2.323763049086912391e-01
2.816370063936774470e-01
2.219271638191119833e-01
2.246015099693100536e-01
2.162880787138616034e-01
2.418027175677048835e-01
2.026597589147419165e-01
1.722932274944346809e-01
2.142698551531119211e-01
1.673285182592832154e-01
1.989630364158287701e-01
1.771079111421857699e-01
1.975844157310434612e-01
1.714168492704246927e-01
1.705023766617349001e-01
1.648767560055519055e-01
1.394548493054547089e-01
1.639332613408781003e-01
1.210157385877850544e-01
1.322121384871320915e-01
1.778756708797995245e-01
8.706781805503902016e-02
1.091875858309828001e-01
1.303249397337525595e-01
1.323603584612689232e-01
1.175718914116550690e-01
1.431279646067873390e-01
1.186006191662824366e-01
1.193909494456949771e-01
9.910780728021000019e-02
2.201682250313683961e-02
7.498932139235348071e-02
8.012300355092624726e-02
4.762594659229839322e-02
3.692787712638709308e-02
6.698419281254637536e-02
4.157398675566261609e-02
3.469066706459857097e-02
1.863688538073216341e-02
4.470006445705890230e-02
2.695773183229310116e-02
6.370459357247781895e-02
4.220847046335347852e-02
4.856307267329222632e-02
3.096308323372284205e-02
-3.874920750135174563e-02
-4.687975634959856003e-02
-4.108413250712077830e-03
-1.024971632853647480e-03
-5.724838381516120234e-02
1.248015967181013292e-02
2.401073718783058170e-02
-3.947314218099201577e-02
-2.414663543089912504e-02
-1.131246667910083131e-02
-5.267546129465586896e-02
-5.006860416474662179e-02
-2.276486349151293082e-02
-2.395963906524090775e-02
-3.128295745115153292e-02
-1.856321166823380470e-02
4.348106565934400924e-05
-6.282237210487170986e-02
2.960117186528658448e-02
-1.453278877946749190e-02
-4.143726418984272630e-02
-2.090892051256098422e-02
-3.831704046721420148e-03
-9.593127327783033259e-03
1.745404672525756318e-03
-5.208605774570519015e-02
-2.134821864898555493e-02
1.705008677062251968e-02
-4.624130952113498366e-02
7.441756579578052977e-03
7.406286978382017883e-02
-1.744662799256740254e-02
-3.641654392501145199e-02
-8.861322304259948435e-03
-4.072673846854005936e-03
1.349787061706080038e-02
-6.341913309510983920e-03
3.269393453027461677e-03
-8.382510611930278632e-02
-1.930965741762718374e-02
-5.372836760509114296e-02
4.378437705117380063e-02
-5.790693476440322146e-02
3.463295765818280580e-02
9.038147850024529778e-03
1.348431092410582594e-02
2.375945204622111062e-02
-1.305719604358849747e-02
-2.232622691567142867e-02
-3.504554493750937361e-02
-3.935386783451044063e-02
1.281174359370127608e-02
-6.257616761712877368e-03
1.717588253594988512e-02
6.787456557553425696e-02
2.967893091210126177e-02
1.127192967958058345e-01
2.565113267574384293e-02
4.268098524522812715e-02
-6.592052955471550124e-03
4.410094872021694257e-02
6.660235766648488209e-02
5.256667058070256526e-02
1.478399086248288197e-01
7.999047421147062464e-02
5.162673984491840395e-02
4.820818291440562980e-02
7.892124350192733506e-02
1.327548189829918235e-01
1.265168636161507487e-01
6.176336053804815790e-02
6.022050857335104618e-02
6.679485621832428888e-02
9.722201260499957476e-02
8.105635417642606533e-02
1.037164390077525422e-01
9.604756872391001510e-02
7.644161608695859700e-02
1.300538367686552843e-01
1.055064808737243565e-01
9.125716760906349423e-02
1.108590057588341171e-01
1.167068848338869147e-01
8.893040718233380382e-02
1.016314592179785870e-01
4.996701831031068880e-02
4.447838613624197079e-02
9.465634409542675320e-02
8.673377098980597499e-02
1.338743182504322227e-01
9.891754540558699016e-02
1.147566146355843558e-01
1.006137903898875197e-01
1.091925316144166103e-01
1.950591063424642058e-01
1.527159415339167381e-01
2.161338554335813789e-01
2.604697689127045690e-01
2.450681055383108486e-01
3.294041603915501271e-01
3.331297864843544287e-01
4.622708394805709609e-01
4.849049487502899991e-01
5.402098173710011553e-01
6.150648871259656314e-01
7.377033255449519933e-01
7.611489087600794567e-01
8.921047428670378920e-01
9.340253454222922080e-01
9.436797887191599177e-01
1.002576365628855104e+00
1.102012109674033846e+00
1.122115407854629821e+00
1.137222803771516411e+00
1.191453664027726678e+00
1.178244520222468283e+00
1.197456459524196104e+00
1.124540020693961972e+00
1.086282812750602789e+00
1.010116230117167113e+00
9.265452739406295768e-01
8.922013136466548922e-01
8.421502395449305123e-01
7.241092245191296239e-01
6.455506654674745270e-01
5.609075794690294714e-01
4.682902904452702630e-01
4.278987316958998699e-01
3.238086469003719770e-01
2.844779307085497644e-01
2.207350808070963899e-01
2.078399365884300576e-01
1.404871660048890858e-01
1.447258174901454308e-01
1.099231467794677120e-01
5.567993056333684493e-02
1.359914125832776266e-01
3.886196633467410566e-02
4.285574775112634127e-02
7.855278416014452314e-02
7.842563033281343965e-02
3.260294890615508812e-02
1.083509166798524714e-01
7.464499581239521231e-03
3.396848141523079595e-02
9.694364648229347736e-02
8.166842654701526871e-02
2.764865017098381422e-02
8.523551845541454952e-02
1.088341265376016193e-01
1.148512644758841045e-01
1.041176814785410298e-01
6.607801361741122426e-02
1.361044330853884154e-01
3.540933618737913263e-02
1.360715399872046982e-01
1.242752931633460955e-01
1.640534135020166595e-01
1.925859452221395651e-01
1.931169052299973876e-01
1.485846052710701193e-01
1.304365051340126702e-01
1.933749435357477175e-01
1.482379497691309056e-01
1.109287109440652841e-01
1.570049012693770785e-01
1.642185805360405482e-01
1.997890479365539429e-01
1.759150680877054895e-01
1.902824965789010614e-01
1.356954924150399755e-01
1.600021395368221022e-01
1.905144533185622047e-01
1.828171471221949895e-01
1.607558655145202020e-01
2.427115798357128429e-01
1.945841415953338538e-01
1.606665182458792418e-01
2.545917397368698265e-01
2.224811894753332131e-01
2.436468837402013532e-01
2.133897940696903306e-01
1.973340062067799328e-01
1.491296102721145489e-01
1.607073980268583502e-01
1.197207744591698708e-01
2.016887959270509678e-01
1.430817293079239272e-01
1.424075464948373060e-01
1.309303178154240799e-01
2.170956428717073505e-01
2.097500668881628616e-01
2.030797377230676437e-01
1.032139348484733127e-01
1.601115863984503285e-01
1.551438297178882875e-01
1.508956546195040771e-01
1.688328210251807127e-01
1.391794651467586075e-01
1.198181737421303572e-01
1.471228295974263411e-01
8.988981021946390593e-02
1.150132521410792141e-01
1.066282142953949019e-01
7.696592577800746848e-02
1.385262432118122555e-01
9.886847232930331963e-02
3.940181084283159163e-02
1.075026765306125037e-01
9.827110801096469728e-02
7.124078514241828641e-02
3.569200184690335398e-02
-2.271475682334090501e-02
2.308806625119325800e-02
3.997902758563665754e-02
4.892734435013479377e-02
7.346536372654036140e-02
8.483035047050116462e-02
4.929414882664954339e-02
2.840549705123438656e-02
1.754099590171656620e-02
-3.838707289081532553e-02
6.308171058736468384e-03
-6.863770874381031062e-03
-4.523407080407603614e-02
-1.217881693798209680e-02
-3.098941471650124013e-02
1.779067791552453592e-02
-1.175075468011387014e-02
-4.587101791249950655e-02
-6.345384309827722946e-02
-5.375148516213579253e-02
-5.589259803822275996e-02
-6.332713521901708886e-02
-7.156026556309824649e-02
-8.956857302948893762e-03
-2.247308787376158662e-02
-5.155504309642346128e-02
-5.998715352494199404e-02
-2.622110900182014759e-02
-2.872732613685146513e-02
-4.661727788713964510e-02
-2.098172863528434406e-02
-5.623645351553910321e-02
-6.871340045470786251e-02
-3.501592748845819975e-02
-4.088175603591230611e-02
-2.768670114691343387e-02
-2.882474842200815485e-02
-4.434823100553020314e-02
-3.639106017711592894e-02
4.315244481236150953e-03
-6.226280171510086697e-02
-5.159371994856258581e-02
-1.105262321235193218e-02
-2.867158528776459631e-02
-7.108500173458719151e-02
-3.059353650053154433e-02
-7.301264049980643600e-02
-5.915533766715844882e-02
-1.516982360825917808e-03
-3.000157922231541652e-02
-5.780369574967767626e-02
-4.296333850219490741e-02
-6.944920666530644826e-02
-6.222130117734922528e-02
-9.009537122177224688e-02
-2.470425530683636670e-02
-9.675602472809859134e-02
-1.113000048736372538e-01
1.012339743836430939e-03
-3.061647114826971869e-02
-5.576239012065900558e-02
-2.683692423879556477e-02
4.632906346278308635e-02
-2.403025178235622394e-02
-4.148601718760108747e-02
-5.018135361758482849e-02
4.213794664265793632e-02
1.925521146134202832e-02
3.088207460902239049e-02
-3.415461746358511297e-03
5.620505005512439756e-02
4.946062453822260008e-02
-1.994141359663861857e-02
5.393049057233768873e-02
4.171248161389565917e-02
5.107942943152155024e-02
3.481672847030622270e-02
3.594835722269633382e-02
4.818095875202837997e-02
2.746025961245882746e-02
8.646467161266586932e-02
5.772418216260366552e-02
6.894618352892448176e-02
8.267555040441210146e-02
1.011803754654806986e-01
9.798513517323241551e-02
4.403790693564876846e-02
8.583106157332287545e-02
1.245346297541890246e-01
1.535981925849036756e-01
1.616494743124883282e-01
1.528125445723274023e-01
1.364099963277538574e-01
1.015091026135187396e-01
8.922138500994124255e-02
1.488568667021258340e-01
1.037156210615776397e-01
9.642188303644896874e-02
1.402258618759749109e-01
7.659028504250847691e-02
1.078871044454919326e-01
6.231010672343220702e-02
1.210235831531245587e-01
1.243985673989333046e-01
1.125748471091086444e-01
6.364826292503994454e-02
9.025309048988008898e-02
9.977551653853707070e-02
1.252863946600549228e-01
1.377451588798749293e-01
1.706235720163217229e-01
1.245645646007217944e-01
1.470832089110155061e-01
1.425199457404801584e-01
2.339194104725894341e-01
2.757060981300188951e-01
3.134720573260464938e-01
3.359309829398277603e-01
4.042493006126197663e-01
4.862576598812268780e-01
5.190509070677465919e-01
6.233353990047434401e-01
7.079586556042022361e-01
8.253016068481866530e-01
8.862031063510831252e-01
9.533576626373783114e-01
9.660923595421495591e-01
1.049365940284184395e+00
1.054770671292362350e+00
1.171384210078001420e+00
1.125341319181155653e+00
1.195684771745396890e+00
1.161874047078387706e+00
1.209836222552762575e+00
1.142474823535671646e+00
1.065598731447193748e+00
1.014705218883135585e+00
9.090610903250710972e-01
8.755557891604847098e-01
8.064012915961688011e-01
6.913655269151002258e-01
6.061978083905689152e-01
4.813262810868452202e-01
5.421991151903274853e-01
3.549138017609396734e-01
3.580494760611550031e-01
2.905785337585499173e-01
1.882614696847541014e-01
2.082878881155619810e-01
1.492489376717870964e-01
1.302819671231112975e-01
7.449241197936967707e-02
1.268537116485760896e-01
1.294546933229715202e-01
5.570235990275257398e-02
6.520644810013516424e-02
3.515073050632290530e-02
5.961567555510309535e-02
5.246180121302874283e-02
7.835900781082615063e-02
7.796907626711746531e-02
7.541609071931876240e-02
6.838742691311047728e-02
8.173523826558867778e-02
1.192424492457079821e-01
3.499826601757512201e-02
9.638326979648476067e-02
8.517342302330768722e-02
1.279278958744679562e-01
1.259243018824150462e-01
1.571879916953105027e-01
1.503869723009254589e-01
1.651958222106147955e-01
1.375929525766735606e-01
1.637178405998459818e-01
1.684379226100232996e-01
1.685119087607236388e-01
1.482201511478297151e-01
1.931494648097059064e-01
2.067562294189159156e-01
1.652905539070409491e-01
1.620243474335621992e-01
1.882272338255241984e-01
1.593673618506872836e-01
2.148173530116974927e-01
2.261689708919898678e-01
1.915992506121844963e-01
2.306443340389378593e-01
2.152137577412448211e-01
2.460861886695897838e-01
2.411499151185275691e-01
1.862331546409602967e-01
1.856830906085856769e-01
2.264507777407691047e-01
1.916988605327460404e-01
2.017714470220648149e-01
2.087834695249992378e-01
2.451739374840519459e-01
1.999353811035121109e-01
2.504948027013816358e-01
2.141312549770601481e-01
2.348472958939139821e-01
2.015169587376157700e-01
1.898758548866498197e-01
2.209257825251577101e-01
2.045976852127014689e-01
1.426887885746424001e-01
1.730447205767307040e-01
1.929112525363810837e-01
1.880111457017177579e-01
2.130713777083900473e-01
1.432116709129607479e-01
1.549472779718649995e-01
1.487154760165549650e-01
1.573064089120581044e-01
1.335537369510273187e-01
1.472044280828631035e-01
1.372264956597082086e-01
1.157765096835795676e-01
1.260503626447742886e-01
8.511759216410547113e-02
6.900517601806072099e-02
1.432620800338353928e-01
1.509111856338003765e-01
1.167404555408211031e-01
3.519390895135460218e-02
1.092765357528717451e-01
1.111458765252741343e-01
2.355300839238536406e-02
3.543877163594222335e-02
4.926822860461006759e-02
5.470293759649877408e-02
8.667094300610243829e-02
1.203868357986653537e-01
8.790861424421811399e-02
2.053063954175143868e-02
5.529494641208997086e-02
5.770305775339668042e-02
2.690161040180747906e-02
3.702579374618414354e-02
3.768846339377543431e-02
-6.407662213879940227e-02
5.244875955803876555e-02
7.458991375705967958e-03
2.642301624399822843e-02
4.576092826448657780e-02
-3.810310924605192495e-02
4.473588001626456478e-03
-6.792976374531341233e-02
6.352801849847697357e-02
1.507957907060127403e-02
1.007656251943042300e-02
-4.487159542682625513e-03
1.504460626237665716e-02
-2.348837142001164099e-02
-1.467682399047024258e-02
2.470124308902005295e-03
-2.150320985621861219e-02
-2.010629778814403482e-02
1.129111411963731534e-02
4.373428331607664976e-02
-9.599187226516156871e-03
3.280243900631894804e-02
-2.267477656792189419e-02
-2.004385052666528624e-02
-3.932481506488493678e-02
4.527164145003647472e-02
-1.605614775663417176e-02
-2.184108052700810959e-02
5.250593524691836433e-03
-1.488556830464459607e-02
1.082429797755351565e-02
2.464477851179800935e-02
-3.510763072066810930e-02
1.172186420008857616e-02
9.308682583949293848e-03
5.900878964252741915e-03
-2.982590440930285580e-03
7.622580932128579512e-03
-9.599895067436770013e-02
-4.885324407752127118e-03
-1.928219691341095249e-02
-1.026155249562304278e-02
1.846210052778018973e-04
5.720456503893561750e-02
-3.076898931122243330e-02
2.187069022189233602e-02
-1.613862505429333044e-02
-6.750004355266004535e-03
4.525967750480343332e-02
6.676855279869792215e-02
1.209413398194556823e-02
3.754530242644343874e-02
3.600312786469283405e-02
-2.755581982604319094e-03
4.487225917798354224e-02
6.584830012037583280e-02
7.521965325658919177e-02
7.999555171908231954e-02
1.107390355398031045e-01
6.057673902306323632e-02
7.700935054318722162e-02
6.373576434255402712e-02
1.007685896184260105e-01
9.573145206065154789e-02
5.335197098839582902e-02
1.080985554691687583e-01
8.363884762119733196e-02
1.058037737246053100e-01
8.889685744515643528e-02
9.782730439941207667e-02
1.062295647912996771e-01
1.102047718532797038e-01
1.552918252990264092e-01
1.415099876050190109e-01
1.080677432659587073e-01
1.896730941231040690e-01
1.555185582324545290e-01
1.801282627316880269e-01
1.822514879929830189e-01
1.097640274936354382e-01
1.289622528028619708e-01
1.622742769969842125e-01
1.345836473065442629e-01
1.688970638808529046e-01
1.583156525209669374e-01
1.518943407597748430e-01
1.466258571788157383e-01
1.639754666323411936e-01
1.508408601389205905e-01
1.396021596283528177e-01
1.019501571659242600e-01
1.408671470396015979e-01
1.335035269557470761e-01
1.945172678721396320e-01
1.366686456556376328e-01
1.389150973387557608e-01
1.487010691472398782e-01
1.712049300631633686e-01
1.363820232110314057e-01
2.089076332272208625e-01
2.122345507635586548e-01
2.534290845558330729e-01
2.680382020892196904e-01
3.640093177486700693e-01
3.515015446995867210e-01
4.277572777621681532e-01
4.528495640565585734e-01
5.276602977287407903e-01
6.183572873273230908e-01
7.448515911862173544e-01
7.661924731351327233e-01
8.528554890848049075e-01
9.355537851944867311e-01
1.033217586737614102e+00
1.153984188395895005e+00
1.175715554191685941e+00
1.107481085764959294e+00
1.221609801632542291e+00
1.288267534896048838e+00
1.237210845699726613e+00
1.207218688512049054e+00
1.189081997563314452e+00
1.145063202355795617e+00
1.106717616412597804e+00
1.005207573095778351e+00
9.709094640306594748e-01
8.392123817319294687e-01
7.648445162318153745e-01
7.369111044972239677e-01
6.222823956267565793e-01
6.132659535353711666e-01
4.651771460019561988e-01
3.933267698097483445e-01
3.122949602962690752e-01
3.421391411871171351e-01
2.809259902835669620e-01
3.164627625064118099e-01
1.802762032985542051e-01
1.230547848253650267e-01
2.018335459401209564e-01
2.203232373849483561e-01
1.327502058494394177e-01
1.091132681113213820e-01
9.924824206512834757e-02
1.128624583027582340e-01
6.439203536500731628e-02
1.314839813166697735e-01
1.262464321895393760e-01
1.927074249536348538e-01
1.585268941674842225e-01
1.165766531516049809e-01
1.381621551293350236e-01
1.273054329408546959e-01
1.569280329916598882e-01
1.965721639683651600e-01
2.056910640478355756e-01
1.615242331934457765e-01
1.931056961940938177e-01
2.204000839722968230e-01
1.556162454496501923e-01
2.119525335426106216e-01
2.020546778841577351e-01
2.117761854835554514e-01
2.025861479765355133e-01
1.972126449759004918e-01
2.069469242369506579e-01
2.041256362798230251e-01
2.577876575428136863e-01
2.263695485341318814e-01
2.061714063331543390e-01
2.745416871819028604e-01
2.026957285248232876e-01
2.709687539852015381e-01
2.222924832094014536e-01
2.274312950043761994e-01
2.525990667053892302e-01
2.852453024681827487e-01
2.695608594590206408e-01
2.670571755500530942e-01
2.664927010738299407e-01
2.593349329802361325e-01
2.523585269839609402e-01
3.057751118571592763e-01
2.660017457671622898e-01
2.363714122552032504e-01
2.234327016948543798e-01
2.951559319413289417e-01
2.360741752022471607e-01
2.865435477153487343e-01
2.466135045968946282e-01
2.654124224152706879e-01
2.171052866873003917e-01
2.870826211718014997e-01
2.298226782351753816e-01
2.670129692922710851e-01
2.063611596736971976e-01
2.972020368652820155e-01
2.179803509790560201e-01
1.958315118449425185e-01
2.408858018102399412e-01
2.338819504727890353e-01
2.004754308401333618e-01
2.425437836921845725e-01
1.875897698258019997e-01
2.221992151907756508e-01
1.987173590773173570e-01
1.513906448442115527e-01
1.443958661654013709e-01
2.452828401065016151e-01
1.910458175781821200e-01
1.486305573389609391e-01
1.739364643893076545e-01
1.835683674850651370e-01
8.471706973945493380e-02
1.364094143485623523e-01
1.542404185839877651e-01
1.321789737664774422e-01
1.202242031058458893e-01
1.559987277883202739e-01
1.187864290035070547e-01
9.991716460266453215e-02
9.379327386378147335e-02
1.363331576456053296e-01
1.430972299345604770e-01
8.095711816959091922e-02
8.015182867797367161e-02
1.149012809254329748e-01
9.857022696659464844e-02
8.172890628233664412e-02
8.256088764874114361e-02
1.058209459482777337e-01
5.000162969749029351e-02
7.164900882399669046e-02
5.544244260601095126e-02
2.337118351608605260e-02
7.759712094912778191e-02
5.143607304008904202e-02
9.178162085343710697e-02
4.724022628575423599e-02
3.737986165118602211e-02
7.853842918414177809e-02
7.313973524760371964e-03
8.691105296754897402e-02
4.529081996980941632e-02
3.456986180050910379e-02
1.213195441559260235e-01
4.037956044635682834e-02
-5.117625167629100136e-02
7.571760596286855605e-02
6.338395361823945251e-02
-9.804699117862664126e-03
9.045162034024019360e-02
7.303834864170785646e-02
5.403488191445063316e-02
5.239044140789233389e-02
3.264836930515509217e-02
5.671743468807080579e-02
7.795388637995892545e-02
3.837254547299419338e-03
3.632375754754061520e-02
-2.340196687933464303e-02
3.305572517785279607e-03
4.452002816262988494e-02
7.930748361637197930e-02
3.861261732498032923e-02
4.995999780639708010e-02
6.299747738448707723e-02
3.796907810220019608e-02
5.235277796834422737e-02
3.110328085767343972e-02
6.201718110798364048e-02
3.895055931335573984e-02
7.214503261296009717e-04
6.722105504233460982e-02
1.018948740515032564e-01
2.013458227889823593e-02
4.511875590955601034e-02
8.944508326574483748e-02
5.717858509366918751e-02
1.118301489545437122e-01
2.844201302562414380e-02
5.007891530947219255e-02
7.155368376599104130e-02
1.126286027697697978e-01
1.241452619023817594e-01
1.002792926900272635e-01
1.041193358637020061e-01
8.159290482688608126e-02
1.303799497328631540e-01
1.177610270604648596e-01
8.138183205695956324e-02
1.502707262465358129e-01
1.014784841830970730e-01
1.413356088612341965e-01
1.215823749173288032e-01
1.303283951574534527e-01
1.700383304241288585e-01
1.502470069725400093e-01
1.573970522641328085e-01
1.643787563012975295e-01
2.025063731553428115e-01
1.628500413102132449e-01
1.538615775551112064e-01
1.614513383936029001e-01
1.592001708747632360e-01
1.667053826511340486e-01
1.218800329590537940e-01
2.026236979780186576e-01
2.132279366139384347e-01
1.996976623838332410e-01
1.899419547463178093e-01
2.240624059913008947e-01
1.925960935448664257e-01
1.996752258663061219e-01
2.467748618555751783e-01
2.133326424251828501e-01
1.848648786473931493e-01
1.856158784281813634e-01
1.934478288486114472e-01
1.817520729035446980e-01
1.054118802251109988e-01
2.110588316240378792e-01
1.971321090818191069e-01
1.768952288882437718e-01
2.358231851905307486e-01
2.017492370892103315e-01
2.084166178210984377e-01
1.747973700514700857e-01
2.556623154041625101e-01
2.497555442339403076e-01
2.786695441178455579e-01
3.182545410751711490e-01
3.895193090609209707e-01
4.668590899769978209e-01
4.981499764000526520e-01
5.744008206293584884e-01
5.834240580689843414e-01
7.319176168597268939e-01
7.848317560254836067e-01
8.420355573982615249e-01
9.386886668330709504e-01
9.873433843610978089e-01
1.100505746964121512e+00
1.150475430320632153e+00
1.197494874724909675e+00
1.240791804692373601e+00
1.342691255641193848e+00
1.308429331780038618e+00
1.276018850854753417e+00
1.246055586494875245e+00
1.238722794107829150e+00
1.168546473659364704e+00
1.084455263356451260e+00
1.050006035898879198e+00
9.921279728216604310e-01
9.115095317447972079e-01
8.035101655735714665e-01
7.197533146740491272e-01
6.549433490333482766e-01
5.884544929780270994e-01
4.801343348591218807e-01
5.735983135690780887e-01
4.352012548840670236e-01
3.514836968317810451e-01
3.041738409094578155e-01
2.289281902972414851e-01
2.109144798769807261e-01
2.349944369293802682e-01
2.101804184427144284e-01
1.953658397247685918e-01
1.781618427418217299e-01
1.578549563214979301e-01
2.149164437805677341e-01
1.158993187096505617e-01
1.503587941587488097e-01
2.021434868727570167e-01
1.564255372434424918e-01
1.936909211285954835e-01
1.789650294372472361e-01
1.867475234003420637e-01
2.053022403186606226e-01
2.556238975739351105e-01
2.307166948107604032e-01
2.176309541279813076e-01
2.252979282458699717e-01
1.939250243077956237e-01
1.723992012473444524e-01
1.883309887135803662e-01
1.886294378862376775e-01
1.971326146863884021e-01
2.543482929580418439e-01
1.863633342447716945e-01
2.584112562190095108e-01
2.648674317036210368e-01
2.606143081129197459e-01
2.497946785855124363e-01
2.729452536754117808e-01
2.874768607991746161e-01
2.168893110776249356e-01
3.377481471665549351e-01
2.554262931626695710e-01
2.589372605572996533e-01
3.158845408398965882e-01
2.927364420880592677e-01
2.703973632348198874e-01
3.375939830390144447e-01
2.965254302876784709e-01
2.996353467006799831e-01
2.702972875298371713e-01
2.872128447905885062e-01
2.951168624254912887e-01
2.699167796707658273e-01
2.535968716516505128e-01
3.114615458355893818e-01
2.814150317905455001e-01
3.145812907626776012e-01
3.432028300291096734e-01
2.362879759056707718e-01
2.860129331945328035e-01
2.576062376475822258e-01
2.416937195799555849e-01
2.299195744300319699e-01
2.523109927492646065e-01
2.476213414529316870e-01
2.852630764673589336e-01
2.321349775028192786e-01
3.190025736406703061e-01
2.279889209464784350e-01
2.839434684897215178e-01
2.826064750796200009e-01
2.104445250800440759e-01
2.405222920335985948e-01
2.993067686967190166e-01
2.034328720509520072e-01
2.649756933612386067e-01
1.985619692080393406e-01
1.748787381337693347e-01
2.103646321502528893e-01
1.975900699285929596e-01
1.397264253542798151e-01
1.309842696386491478e-01
2.211085737738441581e-01
1.210254321949521261e-01
1.941753959191571399e-01
1.681527157042294884e-01
1.812144597758641174e-01
1.532085189943685477e-01
1.508137297438928992e-01
1.163188320320826391e-01
1.487780809901506074e-01
1.532071919311596697e-01
1.403763924762576054e-01
1.173917836776372237e-01
1.324924294020164706e-01
1.605250984378671919e-01
7.761124270720397289e-02
9.236626487091252613e-02
1.344181041269308374e-01
9.712884787176115364e-02
3.947579507989074782e-02
5.737122085870093036e-02
7.940699057890815427e-02
1.293973448732395337e-01
1.038736610692235773e-01
6.221848392467042854e-02
1.025741101358235985e-01
1.294821934684363129e-01
3.723664167533960456e-02
8.996495730224630949e-02
7.907202798120729903e-02
9.574872042189697119e-02
3.840675910059624526e-02
6.064543452240439558e-02
7.297707279503307110e-02
3.876780374106018889e-02
3.270213870475494056e-02
-1.312401757678241521e-02
3.285895163300342481e-02
4.781004540021275423e-02
4.206526013186204921e-02
2.002553024279435726e-02
8.063192897437206075e-02
6.276144548029247150e-02
7.465957841580500576e-02
6.757813109768846804e-02
5.017180742310730496e-02
9.872761166028053148e-02
6.603612862707045061e-02
5.436860187600747046e-02
7.462865241271574024e-02
2.593265854631808878e-02
5.117292553998991494e-02
6.849147365607552440e-02
3.655388822148103456e-02
5.203498206518471225e-02
4.302263122768781867e-02
7.639874537102572805e-02
1.083378431669410752e-01
6.171148116446444065e-03
2.919433712670590000e-02
3.347561910682324976e-02
6.414352614004961706e-02
5.474737282605789124e-02
5.618507998716491814e-02
3.133146367596498227e-02
6.906740251210621850e-02
5.115927145258017394e-02
6.241853511967725143e-02
1.030985729551466001e-01
1.104328245431580868e-02
1.170476178535004852e-01
1.021861827726815719e-01
1.100008940748619657e-01
7.313505457660759990e-02
5.352250593211765189e-02
1.445136939764994077e-01
1.165970322291455530e-01
1.460842246872776640e-01
1.444760472160727671e-01
1.518604020390453835e-01
1.215906931733961860e-01
1.351159437891438497e-01
1.132378679483800055e-01
9.686819995575632336e-02
1.322500531655821376e-01
1.337385282251969953e-01
1.543563272845049350e-01
1.849313169380938371e-01
1.596257880037493249e-01
2.118352713255594044e-01
1.823493271483672684e-01
1.462616026602652219e-01
1.532566494505198385e-01
2.210963769604444296e-01
1.552875207018286907e-01
1.213937901294527555e-01
2.190511063454298191e-01
1.897511110990973415e-01
2.224833764021642291e-01
1.942659224246789385e-01
1.760847136067792973e-01
2.548285216480137838e-01
1.773722632455468073e-01
1.722231373592538750e-01
2.207128919706084214e-01
1.821113490565715032e-01
1.947090098809454717e-01
1.322677149378642669e-01
2.117776978693346468e-01
1.516752045021196593e-01
1.585835549540010048e-01
1.990263532265146296e-01
1.659849596845548447e-01
1.636780916215898329e-01
1.979841649824106709e-01
2.339838507014611602e-01
2.390828760243287610e-01
2.769599191189256460e-01
2.436657505537766777e-01
2.988951078355230329e-01
3.198348913757885770e-01
3.791490934225010823e-01
4.328192888702379615e-01
5.442980462218677262e-01
5.638833545973428452e-01
6.178243474275395553e-01
6.814695286100174165e-01
7.761121297398070329e-01
8.597374038274926411e-01
9.197266625664369810e-01
9.925325218725055132e-01
1.094154888549355720e+00
1.110407585561899113e+00
1.167751203011344829e+00
1.215520362342869642e+00
1.261249310012118707e+00
1.283594410303734445e+00
1.277358000714726938e+00
1.199663499709710868e+00
1.216666760230314281e+00
1.126204246329353786e+00
1.047175442847348537e+00
1.010773657217413524e+00
9.822851399375330805e-01
8.793532590227062240e-01
7.841747250124330160e-01
7.502801519353785586e-01
5.980988459611876751e-01
5.673517354947102964e-01
4.455735576923299801e-01
4.033182335853031097e-01
3.533008174353869935e-01
2.973546393059682269e-01
2.265065303158167453e-01
2.657541468775651006e-01
1.948022922200821905e-01
1.397909122041343100e-01
1.417044312914834125e-01
1.088157644676807784e-01
1.428286059837290123e-01
1.628767662501873770e-01
1.287513054462226247e-01
1.557310681280313913e-01
1.113075217475034684e-01
1.997945995150522125e-01
1.358998475585136423e-01
1.663225100032972303e-01
1.540915537393825474e-01
1.507053433549136734e-01
2.046098001033714864e-01
1.390850586222381613e-01
1.552448912856796981e-01
1.554945327743370853e-01
1.552336552196081632e-01
2.233278631671148651e-01
2.033632497007916984e-01
2.535704522793700288e-01
2.266046105054371762e-01
2.293483395555432347e-01
2.231979003366722780e-01
2.164559457081077776e-01
2.280288247269745550e-01
2.793759924164247455e-01
2.396315640984428841e-01
2.137017871961285065e-01
2.330082146883321048e-01
2.755902800910841610e-01
2.281690928881888736e-01
2.264425548889189843e-01
2.308653819486418401e-01
2.747759221959761300e-01
2.918653379370406697e-01
2.412370206578885734e-01
2.667988263385437930e-01
2.866576799141831167e-01
2.175115056523231893e-01
2.205730045483022816e-01
2.456545732915527414e-01
2.546799073888431075e-01
2.810445809530447425e-01
2.448504284189993996e-01
2.842108759240384863e-01
2.427192219010317342e-01
2.717793210743133514e-01
2.592244480893494685e-01
2.830117256630304001e-01
2.485095788994926280e-01
2.634118982963759570e-01
2.387073816180117769e-01
2.573048924935720794e-01
2.477502726194760196e-01
2.369259147692392709e-01
2.596986280106571843e-01
2.443810593766114758e-01
2.294427244160027468e-01
2.945127554272567449e-01
2.386601442316043653e-01
1.641209881562970818e-01
1.945981942733337466e-01
1.765611803813499636e-01
1.706894396905542788e-01
1.754138584832596048e-01
1.681815623785977709e-01
1.283451738182847801e-01
1.115667150857308637e-01
1.864256852988838975e-01
1.502909667925108328e-01
7.634698227165603868e-02
1.079676383725908795e-01
1.494103703453831811e-01
1.088518209683267540e-01
1.617806940806723603e-01
1.321667525495509032e-01
8.995733362110683307e-02
1.165226616251410219e-01
8.855698658453552141e-02
1.237854066309726220e-01
1.059330260136318591e-01
5.776627327549106738e-02
1.049926331223080683e-01
5.022952877546808109e-02
7.951297974687548953e-02
9.249243911155594078e-02
-5.126460702863318980e-03
4.701685933231936065e-02
8.233744021422437914e-03
4.014923576366772467e-02
2.155906350452431453e-02
3.403048077214003431e-02
4.683644843122253265e-02
4.462059227791310978e-02
2.855512739043410478e-02
2.786059676003473790e-02
2.203071533013562650e-02
-5.890789943377239615e-03
3.663134403388067922e-02
1.979491814696207955e-02
5.429760736483456307e-02
6.281116662669230036e-03
-3.749490851250290857e-02
1.545544415372683729e-02
1.840193431252888298e-02
3.276661661809810583e-02
4.612709943250642951e-04
2.836763762096235902e-02
2.016943861758212220e-02
4.409202756008222951e-02
1.794600479804854543e-02
-2.114591939527158890e-02
-2.120094076332663252e-02
-1.139667137602400938e-02
5.845484774979184742e-03
-9.665418571058343247e-03
-5.930053094833766247e-02
-1.745551115881110657e-02
5.329198867110609972e-02
-3.267740526051721162e-02
-1.907547099441832955e-02
1.296855904415561422e-02
3.400025156020096417e-02
-1.190625869159429168e-02
2.839494018420204643e-02
1.488334740219116048e-02
5.904422791439244145e-02
1.731565580541166369e-04
5.983820807689924082e-02
1.266681736625915530e-02
2.882321497321587572e-02
6.798691763556653604e-03
2.605770112744676403e-02
-4.117730780477510399e-02
1.196459543455763094e-02
-1.486246191121248436e-02
4.514816522229047474e-02
-1.996018909944347747e-02
4.722871115617997828e-02
5.829002783594984527e-02
-1.173859776599004562e-02
7.592207976635012567e-02
-1.138905239916652642e-02
4.545634984963879688e-02
2.158489780043777034e-02
5.199068996806753551e-02
5.248748817970363967e-02
1.611825366865037024e-02
6.382928170277911428e-02
1.466881915459749934e-02
7.289790035952803393e-02
1.069859030572172104e-01
1.066862367443992543e-01
6.785326064520799672e-02
1.516849110470563644e-01
8.268859577248030557e-02
1.165203431642883869e-01
6.446232235656787490e-02
1.230490152337320592e-01
1.874704302849972831e-02
9.885020396822821742e-02
1.456625778927533865e-01
1.150794254123641558e-01
1.323312045561316763e-01
1.374880916068998427e-01
1.190035917728642367e-01
1.039593243133398043e-01
1.296942619635610972e-01
1.128554503345692156e-01
1.303596718406072885e-01
1.479400241609741540e-01
1.788599780161952979e-01
1.459494663186041430e-01
1.301926868811397187e-01
7.587552007559332512e-02
1.011959674302556622e-01
9.778223520494552790e-02
1.762827810978588039e-01
1.413097579034247320e-01
1.342921990252463338e-01
7.709217223089136206e-02
1.468510955709174670e-01
1.003839923224797148e-01
1.030927501199263019e-01
1.572833823793817198e-01
1.592518841043580602e-01
1.691771350901358772e-01
8.381158545375250180e-02
2.213961061550378806e-01
2.191873944172952060e-01
1.860052892683910775e-01
2.222519819651137263e-01
2.791528335295130892e-01
3.235512433485969730e-01
3.557174742933598699e-01
4.722307681759672082e-01
4.546523772729101354e-01
5.653643315579486295e-01
6.696591547612588124e-01
7.027549153616744482e-01
8.115838922452675019e-01
9.296348096300174335e-01
9.683094235393749916e-01
1.049953309136342661e+00
1.061748927474859716e+00
1.138593077786985930e+00
1.185636285054795680e+00
1.183292628016613168e+00
1.145930553965921472e+00
1.199662558386449529e+00
1.134488168587177048e+00
1.083373815931385487e+00
1.076303496793847181e+00
9.780513837809108324e-01
9.507255815275899025e-01
8.163870115162058516e-01
8.252528440041992930e-01
6.939189710814555045e-01
6.439800543473797045e-01
5.147389853883135302e-01
4.235434114601411282e-01
4.406062943050477743e-01
3.449253649983005654e-01
2.923065289188254146e-01
2.113432386381255412e-01
2.353023847113846767e-01
2.241391997834110972e-01
1.814514773009375248e-01
1.722436146878384700e-01
1.683592737187294130e-01
7.715388547673521225e-02
8.776967045269812306e-02
8.886192559511406353e-02
3.959763690864647606e-02
9.006707455365295378e-02
1.164962890487022396e-01
8.169701142343448186e-02
5.296251188992824599e-02
1.427899591397808199e-01
1.241901936531685929e-01
1.275964960663928671e-01
4.049133696543606720e-02
1.103611655112349266e-01
1.558716097172182513e-01
1.268489983854554914e-01
1.901940167379530811e-01
1.211755821502991659e-01
8.284978986405538981e-02
1.621508653052407822e-01
1.411988600225799195e-01
1.395475594177478795e-01
1.882848004224476623e-01
1.602661434193144163e-01
1.915192135830331988e-01
1.649886134791294090e-01
1.996195298562612463e-01
1.874385986824108619e-01
2.420771476650641907e-01
1.564660955889448923e-01
2.027198378542601764e-01
2.236749093061118632e-01
1.976452355871287925e-01
1.660520532057578880e-01
2.047827827776203258e-01
1.850273994971731728e-01
2.136251393309103741e-01
1.925661005007722748e-01
2.266872887362049727e-01
2.639259908897878537e-01
2.200844752084492040e-01
2.302792021670864164e-01
1.938628778736535552e-01
2.016703102187076824e-01
2.101327516502403403e-01
2.993538597006160096e-01
2.278686876338612000e-01
1.674485544319235519e-01
1.783586532257937507e-01
2.170425311115400657e-01
2.169118531672775685e-01
2.207927310509294472e-01
2.349293065738368158e-01
1.367814663593492075e-01
1.393519530934499429e-01
2.240161304203950876e-01
1.515490434287856403e-01
1.354397717278185698e-01
1.582846262754120659e-01
1.518264434501102322e-01
1.560682116907670947e-01
1.314237619228356135e-01
1.493348359155903249e-01
8.666769936520321571e-02
1.372172325725000697e-01
5.300056491648962725e-02
6.422462568347281353e-02
1.417056331874782527e-01
1.116996473963631081e-01
5.537086669696367203e-02
9.990290896309175772e-02
8.326148035664618363e-02
1.016236925172056549e-01
7.300478647607158700e-02
9.298634029589677996e-02
4.945414779559697410e-02
3.072986057922975911e-02
7.718275536939872561e-02
3.328133032939467606e-02
-4.690567598414413508e-02
-1.880949064641999208e-02
4.665208342209054698e-02
5.212835527214809000e-02
1.332904616616802096e-02
3.310008596154944555e-02
1.903071404779140691e-02
1.557653451477210987e-02
7.239565448410263671e-03
-5.093510648607996183e-03
1.445896438690520008e-02
1.981785081394826786e-02
-3.645176712098707750e-02
4.743827841808406776e-03
-3.089595069281434597e-02
-2.448360998237790465e-02
-3.739649993064596278e-02
-1.556715918297103124e-02
4.881932500973613226e-02
-3.685720722751801431e-02
-2.520740356205114496e-03
-2.781144208910978077e-03
-2.338100021702087597e-02
-1.266829189750291046e-02
-7.117624694241524164e-02
-4.425853232138970278e-02
-3.403113795750267734e-02
7.564627353248268293e-03
-1.686496178556911446e-02
-3.662039844873420102e-02
-3.228645598497230373e-02
-7.911527887707164863e-02
-4.454062307054561937e-02
-3.869648817029307242e-02
-5.169112815776418651e-02
-3.538192291338656398e-02
2.046832843457114387e-02
-6.247685077669692250e-02
-2.462314372952085356e-02
-5.011095722310170836e-02
-5.024259572725705419e-02
-4.697813349429023205e-02
-6.504214961448601118e-02
-3.842899945791057592e-02
-1.262381347283123706e-02
9.296888935743513604e-04
-5.534460861611975591e-02
-2.215378125822896338e-02
-5.425762137909607985e-02
-2.256402269894250759e-02
-2.595052489667184700e-02
-3.345660711361635176e-02
-4.207651771412018044e-02
-2.723793662172953323e-02
-5.683460233654467897e-02
3.532472782554214180e-02
4.938252298473236324e-03
3.843760886240471519e-02
-5.842903662511177154e-02
-1.778663302706286198e-02
-1.044847209646654340e-02
-2.458611952760974065e-02
-1.764419214920716350e-03
4.603844488767314114e-03
2.565061550522100553e-02
2.880320315752409044e-02
3.082305419970091109e-02
4.905346088587989040e-03
-9.103606100698262427e-03
5.158647116274908684e-04
-4.483934323967932178e-02
3.315210173662021254e-03
2.830102949045591038e-02
9.495850520505333403e-03
8.785904138132688557e-02
-8.391199591386983014e-04
8.144912117174246680e-02
-1.661141246920669334e-03
8.237049407403176926e-02
6.938760149631313656e-02
1.357850499547703649e-01
2.988416536763886105e-02
6.806194149607014410e-02
1.239329777234076946e-01
7.702736703570289833e-02
1.782658435013580456e-01
7.389720611154856900e-02
9.751029051797938108e-02
7.652788516036973521e-02
8.101085161760565589e-02
1.049718087987813048e-01
1.595169329662633473e-01
1.443889210560556635e-01
7.547059472290029714e-02
1.373886996481667733e-01
7.597718396925123852e-02
4.784380415722097601e-02
1.094947225657854073e-01
9.262740787708359513e-02
9.183143831526414946e-02
1.014694306742729146e-01
7.097135079337249519e-02
1.216031307548400692e-01
1.191461482560529223e-01
9.310255124082428280e-02
8.275136084065357056e-02
8.659551537360810070e-02
7.819613342093598152e-02
4.574393138964077260e-02
1.334571299942277911e-01
1.170310530708318641e-01
1.795361926659162777e-01
2.630950569192594957e-01
2.982761304299448857e-01
3.182261153013367649e-01
3.642827074239550766e-01
4.158217586141013666e-01
4.725008179095732674e-01
5.416141366321728379e-01
6.576124084054315588e-01
7.458939492586065256e-01
8.030308483232126981e-01
8.721697181712264602e-01
9.662884520475822914e-01
1.050648347642916480e+00
1.085650267258706281e+00
1.114580086150763316e+00
1.078709679038476477e+00
1.182810754206425896e+00
1.165927655287748221e+00
1.188353025573464006e+00
1.178474151520287228e+00
1.080478229723019545e+00
1.004659577759933864e+00
9.889229978374934893e-01
8.787228657079215743e-01
8.469101988874764286e-01
7.128095883122070875e-01
6.525691145821232997e-01
6.194788363523963115e-01
5.333655441901528071e-01
4.099810502789167366e-01
3.745323426458297966e-01
3.489876090374265383e-01
2.904566511536744722e-01
2.303410621571720940e-01
1.714034662075936688e-01
1.698593853045796964e-01
1.458130957226248248e-01
1.098287857610405760e-01
9.388309004011725911e-02
9.619924426039910825e-02
6.231328783322675341e-02
3.898382591337323094e-02
6.193722461908170857e-02
4.908921790132573376e-02
8.264669710669361735e-02
5.468932474952306610e-02
7.805098731107745769e-02
5.163584612721447420e-02
9.840740140323225860e-02
4.433607288720062267e-02
1.043811787596683471e-01
1.064649757563878030e-01
1.184230052745347539e-01
8.007600320763248736e-02
7.058978284506030321e-02
5.929138282610067756e-02
1.143590526894435189e-01
1.810449472111737290e-01
1.328217701162177911e-01
1.625545249986403984e-01
9.582947006057276895e-02
1.594523426816785994e-01
2.366473910081652032e-01
1.696760215183432396e-01
1.799440393746890021e-01
2.301632001173168351e-01
1.656589465325697397e-01
1.132754139874856125e-01
1.456725621670811321e-01
1.783910530789429849e-01
1.985033131925488248e-01
1.486067081441605486e-01
2.214738582163909841e-01
2.071143217248072876e-01
1.968491610494756405e-01
1.875263260766778795e-01
2.353927437423563862e-01
2.372007017597618783e-01
2.200307601484616793e-01
1.974668001275108331e-01
2.410225982543452439e-01
1.581191022492650089e-01
2.593009613555017356e-01
2.157597127427114680e-01
2.455838954832788024e-01
2.000776893185738647e-01
1.877544007741495657e-01
2.409932909688705660e-01
1.527683224168904785e-01
2.111014231155489418e-01
1.877397319842121770e-01
1.898174977761282189e-01
1.742159834065632462e-01
1.857538287148538525e-01
1.395467776054327425e-01
1.843051138560236890e-01
1.068096188174122996e-01
1.939962952547773789e-01
1.760826607069377325e-01
1.815329112992285499e-01
1.921399928337907959e-01
1.624387900686991015e-01
1.166942584759496637e-01
6.778057317775376678e-02
1.014813798395749200e-01
1.931903520700557209e-01
1.212606366738258057e-01
4.551373544383918029e-02
9.334534948582520753e-02
4.716124982857099190e-02
1.145861279448804060e-01
7.308523821043290403e-02
8.575010182765928357e-02
9.759961599020393341e-03
2.756538749781461961e-02
7.906964289971259163e-02
8.630773132562499783e-02
8.003389095347057669e-02
5.262809167524820642e-02
2.260003559711358523e-02
2.785352040259263251e-02
-4.115176033111288961e-02
-6.622109260584485568e-06
6.172060025500333835e-02
1.248619824007726753e-02
1.558870645440913610e-02
2.875235487077337088e-02
-5.009514858670412879e-02
7.483754462892129589e-03
-1.509384636754926984e-02
-4.203394846551422592e-02
-3.009123047890103694e-02
3.747855442742215049e-02
2.456826158575516061e-02
-5.675623465726503669e-02
1.189725452538398925e-02
4.854266099362736231e-03
-4.679752870257090913e-03
3.380165181621544446e-02
-1.868474045794574212e-02
-1.435762053288436313e-02
-3.033113828388073543e-02
-6.274332760681233800e-03
-1.010098493567502392e-02
2.314623295289038041e-03
-2.268842871416588275e-02
-3.137980196668116450e-02
-2.937139423289813686e-02
-2.559612556098689318e-02
-2.365728774230570208e-02
-5.249101092672912167e-02
-6.259529602488966837e-02
1.259099761911119247e-02
-1.402855095934460103e-02
-4.680364579771709166e-02
-3.427640462800647658e-03
-1.563165919144997654e-02
-3.758805358358804222e-02
-1.531328093636282611e-02
-5.001838108617255585e-03
-1.130895075143251161e-02
-6.537581849609568063e-02
-3.720136836074141445e-02
-9.452024719735394043e-02
-1.299524421887051501e-02
-7.236909643156312633e-03
-3.324617852255171147e-02
3.864874421216177303e-03
-2.772873902259258283e-02
-2.537516838805774222e-02
-2.691240442474328309e-02
3.781124886352454917e-02
-3.707468459877738542e-03
3.100575342362376502e-02
-2.734498628499494252e-02
-4.080449445498744721e-02
2.864697557554016921e-02
-3.757946188715137470e-02
3.250694034407276833e-02
1.814817911499736619e-02
-2.827754144124439845e-03
1.552793775256113007e-03
-2.759982228435947302e-02
3.347324869031363670e-02
3.205183649943130209e-02
5.588953715103996134e-02
2.109189949214234500e-02
5.366571281882946687e-02
-1.396772938843410250e-02
2.565915189960393805e-02
4.024045192332476040e-02
6.064931043057582294e-02
7.593546467060971472e-02
1.088444776282028875e-01
7.556696997451381459e-02
1.237930313570584084e-01
7.742570158741746145e-02
1.258953493406965995e-01
6.444527065306542013e-02
9.851108635097681476e-02
1.088133828118574703e-01
1.009122211258213220e-01
7.308335032221881244e-02
1.599915360557935817e-01
1.084552861832109583e-01
1.353982166236126494e-01
1.720906080956040862e-01
7.293956345372776262e-02
1.101866398156628873e-01
1.610659959976833144e-01
8.845587964520279511e-02
1.546794939859445217e-01
9.384370053131170508e-02
1.360204690498516278e-01
1.036384192446245522e-01
1.085890676220103157e-01
8.913716544868260927e-02
1.083441252057293219e-01
1.551486415712361455e-01
1.296493000946082330e-01
1.111097049612174703e-01
1.301020437808002028e-01
1.033493039532186464e-01
1.508169547167906854e-01
1.294448872949473806e-01
1.464506642756000232e-01
9.445486430500928121e-02
1.862467719015407364e-01
1.601266452555351050e-01
2.684606746747490447e-01
2.866536859778851531e-01
3.932192171677058035e-01
4.097907836893887601e-01
4.518576668959937148e-01
5.768654754005297924e-01
6.484016458777847047e-01
6.759958391242109066e-01
8.056521210537611610e-01
8.974268628216941490e-01
1.004726942108787879e+00
1.031816843933155647e+00
1.070111213895529101e+00
1.141909349073078728e+00
1.197941955278736925e+00
1.207695878068123285e+00
1.224961539032702218e+00
1.233893164461574932e+00
1.205721667741758374e+00
1.122652577489724468e+00
1.113079568292135502e+00
1.097243606154594264e+00
9.403157625197015035e-01
8.882266417611088816e-01
8.201217840667670567e-01
7.642236478441535308e-01
6.767022897397793058e-01
5.942989016266155833e-01
5.135947558602446117e-01
4.346464299526957009e-01
4.118221891240995136e-01
3.816355952955225450e-01
2.979121441463972730e-01
3.181495870958607752e-01
1.546272773450541316e-01
1.322197019095774917e-01
1.126921293250284228e-01
1.524551086826781143e-01
1.241245194121515655e-01
2.409929577102886550e-02
1.307508015121771894e-01
7.715523050790074056e-02
6.799394116517205877e-02
7.929226348175592853e-02
1.064137525633257059e-01
9.762391023845179427e-02
1.161364816546209267e-01
9.363016041403435241e-02
8.108337994390149572e-02
1.029848239721190273e-01
1.189579424861919588e-01
1.754783186661106054e-01
7.581308257713749443e-02
1.093697715095239276e-01
1.535557334572357768e-01
1.606686620845000357e-01
1.485750248422148534e-01
1.453184080550745660e-01
1.373435312681962062e-01
1.574524374820809036e-01
1.690295479382673272e-01
1.487653301927628069e-01
2.372224905353572388e-01
2.263274821222890087e-01
2.355284644104351788e-01
2.113658936857203963e-01
2.469073885500397691e-01
2.252446817326685391e-01
2.425507246460421873e-01
2.242786263335392882e-01
2.538822000272685231e-01
2.133939901809771000e-01
2.324760483544132672e-01
2.288451324774447015e-01
2.438258473077663246e-01
1.923284754217422787e-01
2.446275703561784642e-01
2.050330330653584721e-01
1.998816272691274210e-01
2.388829746085694705e-01
2.183053081314318966e-01
2.718930656951221159e-01
2.603598045076011003e-01
2.297438205381555354e-01
3.008571300178551344e-01
2.397793117861430900e-01
2.672965381897613457e-01
2.198926942798088702e-01
2.191231840178060331e-01
2.541404151810292000e-01
2.172635322773045496e-01
1.874846781197909984e-01
1.925765797695253023e-01
1.820169513450358156e-01
1.483815073414397334e-01
1.841841661391322438e-01
1.983410530276814854e-01
2.040036401732998605e-01
2.187548034384720064e-01
1.957055428667243968e-01
1.541726282216512034e-01
2.272295773398260443e-01
1.550096287651117899e-01
2.580580999238317186e-01
2.065463278558378746e-01
1.650418969542159775e-01
1.475140925728961883e-01
1.247310448194042659e-01
1.993962537656210066e-01
1.093032597891108876e-01
7.918643641340292194e-02
1.047895116086234868e-01
1.103413887851744241e-01
1.265334020133814241e-01
1.192073594638487777e-01
7.175386085976112605e-02
9.895075577225850849e-02
1.159546351077093002e-01
4.118303669309562876e-02
7.963929210265370540e-02
1.249292614358960829e-01
7.766378200263046594e-02
9.098985597478798093e-02
5.348553292206140869e-02
5.806498172126771384e-02
3.750459048520042582e-02
1.732376770413250611e-02
7.346178537359038252e-02
4.878928108406537650e-02
7.960097608670455016e-02
4.951184888800243267e-02
-1.089075198915126323e-02
2.761854460914928838e-02
-7.027212538784910478e-04
3.753554936535197922e-02
1.575286871376572681e-02
4.026933579197319868e-02
4.181120740410383674e-02
3.291977466719039902e-02
3.698515630011342536e-02
5.626621196988765977e-02
1.709762327553154132e-02
5.322855860471262940e-02
1.229964833564182319e-02
2.725598399549984674e-02
6.257457841265366694e-02
1.179768002916457836e-02
3.436206984756700472e-03
1.118241074686398065e-02
1.024275204066193989e-02
7.405519122065103155e-02
4.927695980262616904e-03
2.257323115921044954e-02
-1.139518415435670368e-02
1.878180236925810001e-02
-1.414643052981147051e-02
1.806524802966826687e-02
3.819181023210485582e-02
1.649632820309314407e-02
2.586450319104881268e-02
5.849264689330819361e-02
-1.965027780105083749e-02
5.422217533693317326e-02
1.169225018950825409e-02
1.822881926568043626e-02
6.746305063717111805e-02
2.902857587580166820e-02
3.727259528605978561e-03
2.273742586769735355e-02
6.559877475711411998e-02
-2.080701632769567030e-02
1.643390962051173229e-02
9.327953091680397935e-02
-1.440025885797676861e-02
-1.965776717359010023e-02
3.957426009737281813e-02
2.411264858084764123e-02
9.583545889808911533e-02
2.118630386678544558e-02
5.502781495646300730e-02
7.363917829564600726e-02
-3.237903489470572022e-03
1.774239712947566286e-02
4.183302733867837880e-02
-1.299405808659080674e-02
9.111620973328773965e-02
-2.495152422430895953e-02
8.463875209075975847e-02
7.210627260918203718e-02
-1.431152622278304698e-02
2.115378270048222029e-02
-3.281107549999461026e-02
-9.882099913539540981e-03
3.792271391364991640e-02
7.490381090635131467e-02
3.415619268997441282e-02
-4.150411323690300636e-02
1.088711251793554255e-02
6.113225749929773745e-02
6.756727706225415520e-02
1.307130258698060987e-02
4.320726523276223474e-02
4.713586777648802462e-02
2.257884490144950948e-02
1.201812012704831303e-02
6.219099051611955142e-02
2.839221339586100318e-02
3.820472865876025498e-02
5.422827287721757039e-02
-3.197106381893678045e-02
-4.515996209955998320e-03
-2.299162757209059771e-03
1.295450641392651564e-02
5.805112241196283551e-02
4.829706721330342262e-02
4.543545045693407614e-02
5.783233261090238442e-02
6.826049538525415239e-02
3.041177422728453053e-02
8.041291653019190522e-02
8.054252654242319287e-02
7.316094369942877096e-03
2.275218715869116448e-02
1.172958650102852787e-02
5.162474685822088238e-02
6.056313614604326434e-02
5.673904123768123975e-02
3.883909460893210375e-02
8.896888521092451152e-02
