1.208025810660993793e+00
1.252739312662282112e+00
1.219443388056253630e+00
1.139748082438387433e+00
1.093077695149262452e+00
1.077405656446449145e+00
9.980173295432041014e-01
9.329124654514270309e-01
8.802890877340595610e-01
7.545140793057576456e-01
6.914218081248314496e-01
6.536048556754717742e-01
5.545671167350975095e-01
4.599464119773776227e-01
3.989857599079859041e-01
3.410671524144917033e-01
2.569350748039764820e-01
2.826469870069777679e-01
2.204273637185673040e-01
2.238064292622068963e-01
1.930752564925963255e-01
1.509367964165254372e-01
1.937303425293647463e-01
2.054375056668137633e-01
1.216691608114806589e-01
1.286625430191096764e-01
1.643066620739842554e-01
1.402760181034364007e-01
1.492326510373636062e-01
1.616863410431208792e-01
1.615599593253965460e-01
1.775726634501453849e-01
2.069030934970305102e-01
1.913616551038224145e-01
1.709725306625327623e-01
2.037232413403294307e-01
2.435117086706247713e-01
1.729032591000111141e-01
2.017662770874655842e-01
2.547120496113801091e-01
2.583211009987870233e-01
1.946141533981924632e-01
1.639001620710771878e-01
2.463608141061943702e-01
2.542929539329383259e-01
2.302742831957421688e-01
2.346630970138896266e-01
2.140196466297704381e-01
2.343671169225449158e-01
2.977750485923339463e-01
2.361446213624721624e-01
2.463140262529614211e-01
2.652092888600888210e-01
3.003045405945893864e-01
2.800275372627222259e-01
2.989954277375661551e-01
3.099809534959034885e-01
3.128936098033184843e-01
2.692927342234968657e-01
3.008108251479760797e-01
2.834008784477424769e-01
2.669205800247698157e-01
2.339773086286101589e-01
3.237501443010912805e-01
2.442276604341157842e-01
3.201530374419083724e-01
3.039989711395377214e-01
2.561934431337518636e-01
3.093487957882032902e-01
2.339408592970959877e-01
2.670664719494399431e-01
2.290428728851154061e-01
1.946871287038744180e-01
2.722620397503806022e-01
2.984751654941637522e-01
3.090904934642359492e-01
2.512347412484682851e-01
2.347787475536484980e-01
2.662357954289802375e-01
2.456312223500171921e-01
2.876476356837358028e-01
2.494787018289461034e-01
1.793076466232488009e-01
2.405960586363458387e-01
2.967557870582550050e-01
2.527012230164401019e-01
1.937671678498903705e-01
2.515761538942601350e-01
1.860605025372164545e-01
1.847122025300977077e-01
1.849204457653463585e-01
2.251442727452314108e-01
2.320903987474639552e-01
1.996758948837027703e-01
1.408355517921777156e-01
1.158559909137889532e-01
1.755162783041341323e-01
1.822138866631563547e-01
1.500599044083196776e-01
1.666348722834898322e-01
1.205087992037500583e-01
1.366751984511042628e-01
1.131703971933255559e-01
1.079881811327232793e-01
1.410826576740282223e-01
8.930094998652070293e-02
1.084771762261764749e-01
9.033298124146704744e-02
1.218855725103526744e-01
8.784601147631743157e-02
8.389319297517640328e-02
9.865059434412248862e-02
1.044896848593602351e-02
1.323649494349685984e-01
1.220840341818903163e-01
4.801254604469808868e-02
1.083860870968278711e-01
1.179115851718827712e-01
8.720580089597256002e-02
1.078663236668684355e-01
1.624744349042145930e-01
8.361604134920681830e-02
9.279951153041898770e-02
6.980385887046887394e-02
2.196276086558095197e-02
4.082644512071974263e-02
4.540109969889035563e-02
4.429887957323511150e-02
6.877648866504182390e-02
8.030260697904323397e-02
8.655008073501031796e-02
5.899135151894246282e-02
9.339773921700124382e-02
5.533998022253877602e-02
3.756273304703186544e-02
6.514657412053105612e-02
1.118311197798113610e-01
6.727899681946314381e-02
1.159652368446585369e-01
8.543151102308564615e-02
4.824737582638793237e-02
5.218633471207757835e-02
7.333550982443155786e-02
5.437753069798281769e-02
6.498325009038587174e-02
4.770386647319710405e-02
1.106683788233056576e-01
8.188656292074583676e-02
8.667616247545470443e-02
2.139746542905995169e-02
1.095834038197886495e-01
8.478855816594049744e-02
1.259318776849486787e-01
1.250732156382024785e-01
8.143827179909168823e-02
7.845570690928319046e-02
1.357760969166716680e-01
9.220022539161190633e-02
1.010455004250978284e-01
7.039144958936682794e-02
1.237574531526904886e-01
1.668661183998996489e-01
6.940612259400778805e-02
1.527517006584155346e-01
1.399799359201757409e-01
1.862723183123060899e-01
1.313128820032375410e-01
1.260504448643856024e-01
1.982899537033133985e-01
1.944403916714720904e-01
1.661358110591197867e-01
1.819195305514412220e-01
1.938997442689269490e-01
1.862985483551312105e-01
2.281410264902570817e-01
1.974761666882607347e-01
1.016610675591984037e-01
1.912123699688494105e-01
2.007839240410525250e-01
2.335607763244476609e-01
2.414277374233014806e-01
2.123869613467669060e-01
1.869572065487746515e-01
1.706611032134520978e-01
1.949923234046271325e-01
1.832992257726762109e-01
2.188835788691440298e-01
1.865803558007180230e-01
2.100663570470768793e-01
1.599718920958931867e-01
1.560578414060404540e-01
1.882355750325047372e-01
1.684897751290125867e-01
2.267470663885788884e-01
1.862902834882585457e-01
1.494184958025017718e-01
2.585913121627338995e-01
2.007005120251892649e-01
2.594302413814973951e-01
2.603329279762617299e-01
3.101107151499408743e-01
3.435509120165906038e-01
3.572638546540184978e-01
3.428491721938454750e-01
4.257362379896670879e-01
5.083742588787885097e-01
5.709496725875422563e-01
5.909897917963423675e-01
7.217224034011461287e-01
8.165854437989696901e-01
8.708582713811878762e-01
9.855293082839906571e-01
1.043565063864412501e+00
1.140603813723400251e+00
1.173223525951465396e+00
1.186950158284425294e+00
1.230758604384771582e+00
1.243950835418063505e+00
1.260624627635426931e+00
1.212751322685735156e+00
1.203420289669694165e+00
1.191998926421365290e+00
1.094011718202429595e+00
1.082113811515900137e+00
9.400704653838722891e-01
9.099261314240598697e-01
8.467521845776099232e-01
8.231976593422442035e-01
6.127350812775251843e-01
5.941425238599445935e-01
5.467343547941801996e-01
4.774590578922821571e-01
4.543009913472957351e-01
3.157107826877736945e-01
3.089755365998706482e-01
3.350931265913474344e-01
2.518611844730778704e-01
2.215551233448283808e-01
1.509124039882984158e-01
2.037556282520561202e-01
1.475852412523031287e-01
2.164746019411610545e-01
1.796020426185964691e-01
1.776689807037927504e-01
1.467979642266941109e-01
9.209161926944417487e-02
1.363891735333770394e-01
1.702614878108442142e-01
1.733853613246367775e-01
1.780056335318110361e-01
2.082276285301693508e-01
1.947976372587854887e-01
2.013769599659521736e-01
2.111255089077968827e-01
2.039116279524876285e-01
2.451462620395215841e-01
2.362081184678840873e-01
1.959897075007874245e-01
2.544586515261270110e-01
2.516254455774932230e-01
2.744376750177356383e-01
2.284181203057231158e-01
2.699245321162258016e-01
2.860713054962509272e-01
2.931278651078271791e-01
2.685823625247914515e-01
2.519800374195290127e-01
2.766535994683561039e-01
2.636407521568334134e-01
2.561135690984871482e-01
2.782431302162646225e-01
2.728641407889346726e-01
3.504831286915824906e-01
2.816886208898409238e-01
2.734883257479669982e-01
2.978353160981436765e-01
3.190896649524663786e-01
2.933893878748919382e-01
2.936208019687601145e-01
2.980602073849941691e-01
2.894493724392012690e-01
2.971367687253593237e-01
2.871794062687278992e-01
2.782094064656297494e-01
2.687405126218853080e-01
2.861584061799269385e-01
2.965042440661069811e-01
2.880042436407312945e-01
3.217274863070800905e-01
2.884487249268345987e-01
3.079110450465907811e-01
2.709554250645861417e-01
2.717397183865373211e-01
2.923989250016223451e-01
2.067484377940948248e-01
2.703879935217716191e-01
2.688504992491030920e-01
1.890731344476435094e-01
2.553751396185394706e-01
2.223426409622513700e-01
2.735080223384559472e-01
1.745179505122286256e-01
2.215308881299193899e-01
2.036290542304733386e-01
2.566810600050339897e-01
1.809210134017651961e-01
2.116821431154233268e-01
2.224586585742366895e-01
1.503762265183362368e-01
1.795003185973495785e-01
1.768178945561201254e-01
1.239522560570951865e-01
1.434087423252600191e-01
1.361509721447199950e-01
1.357015498156421973e-01
1.790091836527230029e-01
1.684154306900546294e-01
1.216532314198899845e-01
1.571151550694147303e-01
1.097999887402680980e-01
1.313301742299998465e-01
1.362279266005839151e-01
1.689380965112084187e-01
1.283183565673493842e-01
7.086461579326311377e-02
9.598790847025212569e-02
1.182622728877388701e-01
1.051765692487028475e-01
1.032659320451975171e-01
5.502777463796472424e-02
3.299357304723706669e-02
1.103282802071579305e-01
8.032145229645717976e-02
2.429486939204485857e-02
1.034545803055667151e-01
8.503489209171774532e-02
3.943752835987429650e-02
7.480164451529183745e-02
3.629333588987661285e-02
1.127130847291928084e-03
1.158105110705267768e-02
8.686729702501508332e-02
-2.102198272291827541e-03
-2.260368394125206182e-02
3.553535062947556916e-03
6.241784990147232481e-02
2.736757238112250828e-02
4.054434205640661953e-02
7.036330690617081940e-02
1.130556328924295362e-02
1.972864758427098075e-02
-9.047788128450341694e-03
9.122663204116958358e-02
1.162936675013177129e-03
6.288795184003245775e-02
3.287326955107375270e-02
1.586563189579489469e-02
7.717922424871918874e-02
5.594182684802725958e-02
3.190830371516834019e-02
5.059024755056883149e-02
7.126730943100620386e-02
4.957965522294912469e-02
7.572624235905786594e-02
1.288129418881984664e-02
3.725322137503509629e-02
7.589925485720157294e-02
2.575351218396225439e-02
7.858191045097182026e-02
5.468634782442081260e-02
6.949391303812439691e-02
4.777464986174466410e-02
6.109275886886139650e-02
5.132272338969763592e-02
1.114411784763946894e-01
8.761001984436195267e-02
6.987506798629328220e-02
1.177220486599836746e-01
1.101295122580495944e-01
9.346879616220238329e-02
6.731131286307442951e-02
5.413572793901157143e-02
1.645249306237225873e-01
1.372235408747735086e-01
1.261356542204267461e-01
1.454003745745685861e-01
1.403389534153510476e-01
1.638123034016787938e-01
1.330666676237986790e-01
1.826291224856335382e-01
2.088785534927217746e-01
1.800656089981977348e-01
1.750243313808939050e-01
1.792627684963615242e-01
1.689940017384742588e-01
2.108766180497934351e-01
1.279377147323606245e-01
1.240357765194669837e-01
2.078484276631603067e-01
1.835990807032228112e-01
2.200371375870854851e-01
1.906052728862070167e-01
1.592717033986194575e-01
1.511572591366406038e-01
1.903507825654944807e-01
1.459823535202499079e-01
1.026035855635147598e-01
1.184503815975714164e-01
1.628443193274540790e-01
1.553522863174005286e-01
1.861441860229239020e-01
1.817017251567965841e-01
1.642723311339467918e-01
1.335114734751710885e-01
1.749107289087518669e-01
1.995313170317092599e-01
1.756194923651701045e-01
2.334093421766398335e-01
2.056199586974135074e-01
3.162112457346992200e-01
3.896661504019193756e-01
3.910234962843662232e-01
3.797842040633849781e-01
4.719383501047078600e-01
5.506689603808088140e-01
5.979941077513182268e-01
7.051916690019774947e-01
8.334279749337205612e-01
9.034095906027376222e-01
9.233552756385352556e-01
1.003057620498560176e+00
1.047176463376247701e+00
1.118360957838438585e+00
1.170132187180310979e+00
1.181281836598900847e+00
1.191992557732033831e+00
1.252985840377468074e+00
1.196936084907309628e+00
1.180562713644826456e+00
1.126506491508435293e+00
1.095045049103965829e+00
1.046900311155345875e+00
8.987440376511748319e-01
8.445764433290799955e-01
8.070805942638643593e-01
7.349043639391493743e-01
6.961718954664376513e-01
5.714365682827557968e-01
5.246055420139716929e-01
3.815247126909379061e-01
2.937704590327644416e-01
3.199294311566931448e-01
2.818332578985834336e-01
1.976294550174172993e-01
1.628152644359126544e-01
1.414428483572898743e-01
9.960625783918279630e-02
1.291105055152293735e-01
1.556718163763792795e-01
1.014762555192302851e-01
1.290691563487375570e-01
1.529651444185908815e-01
1.265342117187111259e-01
1.017471857957888276e-01
1.248217349552336874e-01
1.113674385634389197e-01
1.770856140936205581e-01
1.141481591740197560e-01
1.080313228798209652e-01
1.564473135806313253e-01
1.755324808307537621e-01
1.339578436022777208e-01
1.746530287607839516e-01
1.344281905137276190e-01
1.612420837010844765e-01
1.225122519300252538e-01
1.991021210399013253e-01
2.034611918990931467e-01
1.857910562741398874e-01
2.123316811983615993e-01
1.975004604787886087e-01
2.319971196588517803e-01
1.812916001890900186e-01
1.751677758601558887e-01
3.051992622290477519e-01
2.084573803195244879e-01
1.788482704555861003e-01
2.316640109057905017e-01
2.275522370037864894e-01
2.422184484486555878e-01
2.269155174505213812e-01
2.732897604683272030e-01
2.273653076503966419e-01
2.286676895561654543e-01
2.673058354439842299e-01
2.034719806577555967e-01
2.206550685635290110e-01
2.723258251622943105e-01
2.281704957569198888e-01
2.608827966039582447e-01
2.668481944252702465e-01
2.435410434869823004e-01
2.245413559040289053e-01
2.754255210088035200e-01
1.980080020692936704e-01
2.106983050073544528e-01
2.518803494528772946e-01
2.508867503776716634e-01
2.855265716113685182e-01
2.362622812085568846e-01
2.206049869258225327e-01
1.750972820770209104e-01
1.832918991846863022e-01
1.824599889797408614e-01
2.202895687023317950e-01
2.326451747772427803e-01
2.192751435590575282e-01
1.906506013689408252e-01
1.643524515213929671e-01
1.490665275841449033e-01
1.828409039152050775e-01
1.362578648485611166e-01
1.877426947520877687e-01
1.218424045047758336e-01
1.757759819423397596e-01
1.935520165842650742e-01
1.077314056308930762e-01
1.690811972152961307e-01
1.996718141693663850e-01
1.388782016680461806e-01
9.936951758554965486e-02
1.045576503371225818e-01
6.269329907169533811e-02
5.188427068224257810e-02
7.094243561514426699e-02
5.934781905866058638e-02
5.823903753760001356e-02
4.478392394460264936e-02
4.227727751601923628e-02
8.757076587047799010e-02
3.572458543376312579e-02
4.756184703680905318e-02
5.421596251497723395e-02
5.768479375007429244e-02
-1.326385987830851730e-02
2.613895384990663762e-02
7.212361278593079628e-02
2.859702500671218797e-02
5.947784516165564167e-02
9.348983143350957786e-03
2.954730423189309146e-03
1.796224772980993881e-02
5.926510681234738176e-02
1.821496725009506476e-02
5.126616124849493750e-02
-1.219808073950839553e-02
3.095335616276833138e-02
3.397650434020488275e-02
-2.125109142778406832e-02
1.651667369491128384e-02
-3.110491185357839791e-02
-1.217497742436578385e-02
3.022859937795354876e-02
-5.450814173129953089e-02
-3.682958918682742444e-02
-3.026512497277337663e-02
5.672215648087190754e-02
5.235745637311394612e-03
6.106917947737995622e-03
2.478591184796763783e-02
3.427607585903019727e-03
-7.658437052392927380e-04
-1.352080976857692254e-02
-2.116490124377857357e-03
-1.349904095362927658e-02
-8.233957887383938981e-03
1.117831243288500837e-02
-2.221482352204379174e-02
-1.282535135691580987e-02
2.225790515046833368e-03
-3.568394724878961449e-03
4.860702062888827557e-02
1.758373560173795425e-02
1.984922575778001741e-03
-9.657675501752102654e-04
-1.647032956458642852e-02
1.349865269723971722e-02
-1.089524702257048394e-02
-2.555871737772501956e-02
8.699764852583086183e-03
6.837948120854782375e-02
5.951081143925479600e-02
6.408181403777429841e-02
6.526244612927975530e-02
3.668646307272763890e-02
3.993092071323742220e-02
7.033903325103309234e-02
5.723824310325800746e-02
1.159867036869664525e-01
8.436911373076982912e-02
7.037036815222558195e-02
7.555673684454378147e-02
3.271000427308391745e-02
8.162703095417910004e-02
9.663598994171962442e-02
9.865530853815056289e-02
1.165730393378518193e-01
1.644876746235982290e-01
5.355161876556504413e-02
1.516836536790306111e-01
1.525108752436378778e-01
1.621268339856202778e-01
1.126542444509958663e-01
1.581150915775717536e-01
9.061902547528313812e-02
1.135995899878396304e-01
7.496180120419604354e-02
1.579880747195048230e-01
1.752438919600511347e-01
1.020257070147771034e-01
9.675601719624868369e-02
7.157411027965068784e-02
5.383591167874621913e-02
1.343942132279442592e-01
1.263339576436476597e-01
1.112563368692499333e-01
1.183338737883136149e-01
9.482997082564567637e-02
4.143849185013857850e-02
1.229122864867716880e-01
8.825858924972107555e-02
1.549729191258644168e-01
1.433889297430306353e-01
1.753031099731692244e-01
1.325667424230385083e-01
1.910029680405639085e-01
1.913346883086335659e-01
2.821693221572971200e-01
2.858068503485415301e-01
3.131180215277964418e-01
4.356748416109748057e-01
4.461939554130295305e-01
5.111533220046614590e-01
6.043130573173932651e-01
6.568181706676092801e-01
7.612626523372401088e-01
7.507614536077555911e-01
9.083788700975039543e-01
1.001563998749220863e+00
1.036023640588232819e+00
1.046458542860459806e+00
1.085019467957903494e+00
1.123660741177322064e+00
1.173828459995524875e+00
1.186443377778161556e+00
1.145543979449364258e+00
1.092974434287637520e+00
1.049018933450692748e+00
1.004343315154192284e+00
9.441014112931198632e-01
8.809361905114683200e-01
7.728316623267219576e-01
7.857167734353959210e-01
6.352371208523026613e-01
5.690450361843563121e-01
5.111980927735838565e-01
4.520283695926056722e-01
3.570218707189122265e-01
3.117064127162776921e-01
2.554798088969583159e-01
2.384589417383795873e-01
1.928958072452361117e-01
1.518723063631109982e-01
1.332611969229358651e-01
7.615053397954661685e-02
1.130305617587163136e-01
8.064760807537879606e-02
8.749213799794700042e-02
8.118942251772695573e-02
3.236471873803747207e-02
8.307176363631005311e-02
7.111499306896251760e-02
8.668482457696649601e-02
7.555565898854299522e-02
5.392007817697168359e-02
1.052900900452473643e-01
7.390475317563516278e-02
1.091866061658772341e-01
1.097393045650384841e-01
9.853365671540512127e-02
1.291081222725227740e-01
1.456508488678997792e-01
1.227339061033512202e-01
1.481129878223663709e-01
1.294436990202849358e-01
1.118902005099028790e-01
1.322970125158996479e-01
1.243080170217003844e-01
1.447046133319855876e-01
1.970932015911951718e-01
1.216001260642200210e-01
2.263284787954053245e-01
1.659889680821533264e-01
1.919181491668215667e-01
1.960729049653834877e-01
1.718681520875958157e-01
2.118704536326088128e-01
1.749003139226667780e-01
1.806865667500843209e-01
1.515206267682978059e-01
2.143126900865182094e-01
1.778976812531056217e-01
2.176743551606494798e-01
1.763322710339227384e-01
1.905752185883666516e-01
1.850580355223716278e-01
2.371301806979133897e-01
2.067214307586759392e-01
1.806918276370371723e-01
2.625869542054206085e-01
2.476366869575544472e-01
2.370145292111838775e-01
2.010101642121471244e-01
1.203811899825225351e-01
2.405141671419022964e-01
1.577869049345350383e-01
2.145474054048779888e-01
1.960531752679177675e-01
2.097603569099925069e-01
1.489345640794542958e-01
1.963510220647745053e-01
1.491287875927963247e-01
1.788525292030760383e-01
1.868646179586264111e-01
1.591774443526904614e-01
1.553996994963814382e-01
1.599856736991575878e-01
1.775164244815646553e-01
7.942705804642963274e-02
1.444431261348890216e-01
7.287571892922081740e-02
9.627763340552586424e-02
1.198528785253370477e-01
8.946883706843142270e-02
1.387223390905909515e-01
8.321077948032076788e-02
1.015472751742444446e-01
7.288161262133556473e-02
9.653147184795579649e-02
5.889817318929743695e-02
4.196752076600133996e-02
9.388839059583226065e-02
9.480923702711410717e-02
4.352929691471628393e-02
-6.737155093665500583e-03
5.016237981882025465e-02
6.503130249531978435e-02
1.764490462006618882e-02
1.055054729036067340e-03
5.379318141859595892e-02
-7.389766467576393272e-03
1.766142097933193211e-02
1.653190566992394223e-02
-2.365297944431790297e-02
-2.644919188055982681e-02
-5.917595369503138997e-02
6.248584712000924968e-03
-3.294618910805693912e-02
-1.936375012010451563e-02
1.864267163930029281e-02
2.097324327044836068e-02
-5.001001902068305527e-02
-9.488599983803534810e-02
-3.318298665246971479e-02
-5.950091279875989458e-02
-3.899733895162896952e-02
-4.862917859325287251e-02
-3.156494150991163983e-02
-6.251050325439422295e-02
-3.103157033691093802e-02
-4.409561496241228701e-02
-3.078192392902606711e-03
-2.375580403243882782e-02
-2.121843784799409827e-02
-4.407223353360002760e-02
-2.885895123982292268e-02
-1.229856008257181749e-02
-4.804947753750706679e-02
-5.632251941709483234e-02
-5.773076762617782021e-02
-3.612107795738662280e-02
-8.452096925988736298e-02
-2.357583444722209653e-02
-5.508328628256895648e-02
-5.223088227038091835e-02
-1.180510063611125010e-01
-5.243547167755721605e-02
1.678182047097061952e-02
2.092058242821084879e-02
-1.144021724283914715e-02
1.941676175136651528e-02
-5.993389659004894759e-02
3.248100070053038663e-02
3.809556737199878973e-02
2.260589191864446901e-02
-3.579990577838174093e-02
-3.539281125291511565e-02
-4.775649266022023026e-02
1.014820829149643694e-02
9.544653160695262817e-03
-4.217633960860342479e-02
7.655142523455046866e-03
3.906124594228096991e-02
1.913911197635795314e-02
3.188251424602923934e-02
6.579465813875806646e-03
4.363536301762073466e-02
4.030061751484873001e-02
6.481475392726680773e-02
6.301859858490543864e-02
8.453746298959569083e-02
5.647199540275022606e-02
6.646444032932108392e-02
3.997151910892373511e-02
5.434265209020312792e-02
1.303133172531045214e-01
1.043334915702948673e-01
1.007474880848028276e-01
8.214651742043446725e-02
8.969692090279333951e-02
7.709882026058686999e-02
9.264527934927359321e-02
7.195702456822361537e-02
8.652899887845807991e-02
1.103741270238278727e-01
1.116564422797593492e-01
1.057697216823218767e-01
7.346094047704757046e-02
4.215059012419358070e-02
6.880281376839207652e-02
1.369134464200794654e-01
6.766975514431536332e-02
1.079117036511066108e-01
9.967597720298834729e-02
7.863412291708987700e-02
3.655492697937944707e-02
5.287438305592186832e-02
1.039837746029931287e-01
8.569024676500346105e-02
1.351022270666902558e-01
1.048543889290144138e-01
1.629357147033050901e-01
1.188603349211638238e-01
1.629927334990826093e-01
1.688171560910061153e-01
2.149256386628171922e-01
2.786587783521573547e-01
3.364163251493907936e-01
4.042795875511244197e-01
4.974706206968343980e-01
5.129014274739559509e-01
6.514879358602856385e-01
6.765163614832697681e-01
7.557945096222827841e-01
8.345912457816087038e-01
9.055329392952951029e-01
9.197541667370380258e-01
1.024244880754361153e+00
1.108558063483920497e+00
1.149206748658991639e+00
1.151838811206079782e+00
1.107607530157495246e+00
1.137482508646776136e+00
1.154764375433693591e+00
1.088523339802799139e+00
1.070724278822152042e+00
9.922910308221783993e-01
9.630494484351438400e-01
9.168392344616814738e-01
8.265891801853975096e-01
7.027420521385880914e-01
6.307284695672636943e-01
5.517294056013923864e-01
4.961896429155201460e-01
4.310290560397670445e-01
3.182961622608750374e-01
2.575634535161692162e-01
2.547888865288178706e-01
1.599202929680585972e-01
1.458740689006680080e-01
8.407566242360850484e-02
1.316409001552605873e-01
1.426503539067196236e-01
1.242034604208590715e-01
4.804463340202277943e-02
8.867401251588621913e-02
7.480059708627144477e-02
4.300239970875649465e-02
6.146655617878313271e-02
2.048055664275490184e-02
5.744246262296252153e-02
1.003617188306226149e-01
8.878498506681659075e-02
8.015590533458201439e-02
4.382150236764419809e-02
8.061857532371730084e-02
6.666890311182335771e-02
1.130321078232936760e-01
1.101745141414362250e-01
9.002422487986727617e-02
1.289886473438137116e-01
1.539864593242464275e-01
1.060806846155425281e-01
1.235661495817057531e-01
1.328652813424253676e-01
1.419745837148191636e-01
1.394650756397965985e-01
1.154824160229574181e-01
1.979704905261678305e-01
1.452131590709286879e-01
1.823769718194087619e-01
1.484231011977604764e-01
1.988442185950083096e-01
1.687612164384774127e-01
1.750372155178302469e-01
2.196579620253062970e-01
2.507517034034801306e-01
2.593686167636686801e-01
2.207007241515721585e-01
2.334502941894018302e-01
1.905454133321900778e-01
2.084837011049644473e-01
2.525250247400853132e-01
2.317512983318941455e-01
2.483072146733271979e-01
2.265716927485673104e-01
2.426143768102011766e-01
2.236058541117243170e-01
1.771782061202111236e-01
2.059864165714979101e-01
1.837788278069684145e-01
1.961018856180481440e-01
1.903569870147355236e-01
1.432771846551599004e-01
2.440923346507497538e-01
1.874855847864900504e-01
1.981431228169505676e-01
2.955427514259513222e-01
1.772433240167006763e-01
1.276017311870648041e-01
1.844565678493221283e-01
2.053903478733051513e-01
1.822427312049008097e-01
1.716440667141664322e-01
1.774240296743791467e-01
1.864740961117362095e-01
1.468705190477552214e-01
1.311587582365952298e-01
1.525979625886707547e-01
1.404554297660886297e-01
5.724018623195372552e-02
1.138125047883025709e-01
6.606665393773028527e-02
1.438157880103085595e-01
9.823981935860504056e-02
8.162698492205222589e-02
8.846013274453645714e-02
8.003205471306719387e-02
7.785226813148407587e-02
4.532046501242788239e-02
1.320620661829981224e-03
3.564952516556826878e-02
2.473452389606718010e-02
4.911910551737414671e-02
4.678036995041301438e-02
2.206619297541033420e-02
-3.197978737885424916e-02
7.216056791863358078e-03
4.520088645966900687e-02
-4.733558348086933099e-03
1.930340866172351733e-02
9.603077968849488277e-03
1.967679434252535969e-02
1.791271775314720593e-02
-3.728496539137947374e-02
-3.573277737298391488e-02
-2.809648209929898471e-02
-4.490967069820980817e-02
4.707066416897909278e-02
-1.374341255320456028e-02
1.675649052889868762e-02
4.334513626020075616e-02
2.922001170586814578e-02
5.246510787628392430e-03
-2.248170556938235837e-02
1.308698087902061477e-02
5.233863713395073280e-02
-1.335674097478645704e-02
4.967266321279459329e-03
4.789806596251627857e-02
3.280970465866608204e-02
2.597486403706084426e-02
-8.734207783596251162e-03
-6.561776335745166111e-03
3.214002989759132817e-03
-5.882660457275241256e-02
-7.917318178546597224e-03
-4.237436823175799727e-02
-6.794408739881269144e-03
8.883495730914577060e-03
-3.257469999334448862e-02
-3.656528732356310180e-02
2.544055083122706562e-03
2.485627323951564160e-03
-3.734380937603060113e-03
9.277140173056922651e-03
-3.337627393141856524e-02
4.116143220489049126e-02
6.912329015016847877e-02
4.021718068349459246e-02
2.658138687891120622e-02
1.405854070660541438e-02
2.657149283075372834e-02
2.301591978379823739e-02
-1.531177792067898308e-02
-8.609102399873967693e-03
1.424167220958005506e-02
6.831128133225583543e-02
5.659853013469845484e-02
6.951188997110155365e-02
3.409140129821357224e-02
3.334769519147872535e-02
3.057607004566139861e-02
6.411483454192812292e-02
8.412450997090521743e-02
7.095173171177483751e-02
1.543040210744397733e-01
8.835840417520279821e-02
8.665501857049114076e-02
8.252225946274902024e-02
1.099751474507587867e-01
1.183482558708250643e-01
8.368815934354327524e-02
6.013259758739643301e-02
1.210018662246317156e-01
1.195827814202284761e-01
1.623004789067387654e-01
6.613585693227200246e-02
1.371172504696846761e-01
1.763485924102735636e-01
1.205894078766522048e-01
1.560393695481538390e-01
1.388340365669128995e-01
1.299589040198743661e-01
9.732175166678085076e-02
1.035699193736423218e-01
1.669291965086203144e-01
2.152584095034207057e-01
8.955713021424635545e-02
1.247552725166006793e-01
1.786516707445308383e-01
1.317047796650845648e-01
1.096986279594421992e-01
7.153556213915035489e-02
1.573112787581981975e-01
1.232397131267722323e-01
1.560360971643005579e-01
1.707023321664501714e-01
1.691514888187621857e-01
1.184728928335989362e-01
2.457950995118789450e-01
2.171919971113737968e-01
2.335928394530000785e-01
2.645749534746584808e-01
3.696667052724489366e-01
3.482711438759674150e-01
4.912879455212116886e-01
4.916668993027631385e-01
5.308521832845820576e-01
6.404064957362627375e-01
7.635399941673408630e-01
7.789713848142839625e-01
8.632941643669282961e-01
9.313217338385424426e-01
1.026822321133352700e+00
1.121756727446413748e+00
1.052865255393578892e+00
1.186497829763489609e+00
1.197376456929443389e+00
1.179554182406057361e+00
1.169760920988488717e+00
1.198910560806204284e+00
1.131584225308409630e+00
1.102843718215112734e+00
1.010177636628809772e+00
9.253504185858034692e-01
8.897682071510103485e-01
8.621119479537812103e-01
7.768997350633910504e-01
7.016076795433999758e-01
5.566074719842130092e-01
4.931178044132543126e-01
4.068767951570950725e-01
3.445025423138797227e-01
2.980541488335939349e-01
2.723605454371697543e-01
2.608445870785688347e-01
1.602637350062053323e-01
1.485136936814948905e-01
1.152128091108004793e-01
1.624821143933582179e-01
1.662418438471041926e-01
1.434017704817409644e-01
6.132730323050800819e-02
1.048789490218315079e-01
1.103739668475266777e-01
1.000450924800310865e-01
1.302382289249821024e-01
8.663021646076599080e-02
1.311902675938361185e-01
1.070900643697624416e-01
1.582919027549917201e-01
1.199434469135687992e-01
1.735357714921537675e-01
1.379982186334395011e-01
1.460595693633350844e-01
2.206763862765596662e-01
1.712267588028214826e-01
1.421446359620870403e-01
1.971121727337792617e-01
1.758703730947556165e-01
1.772654395645531233e-01
1.416829097380881697e-01
2.319159296902193468e-01
2.304736838335336990e-01
2.264279580209561660e-01
2.087137159979446377e-01
1.645741083086399159e-01
2.989833545799754355e-01
2.544891251843876545e-01
3.302310957989195717e-01
2.243458578246728119e-01
2.164631469122397234e-01
3.010763850103575501e-01
2.533181471152311515e-01
2.809553275314606302e-01
2.520212764287025897e-01
1.755858374346150330e-01
2.643399668844559347e-01
2.342834523755456533e-01
2.459227912842937291e-01
2.322659102482560745e-01
2.288637928111662556e-01
2.423046250602138019e-01
2.512335122257502995e-01
2.755463478848677039e-01
2.438496827066398698e-01
2.049013368863318307e-01
1.489420945461697732e-01
2.491285918264299903e-01
2.234025074193055904e-01
2.145530996792825995e-01
2.497696408421994918e-01
2.034934398269599709e-01
2.336446120589262265e-01
2.685814651707748579e-01
2.132767862124043123e-01
2.285421579099838896e-01
1.285158018640328303e-01
2.232016714210803832e-01
2.104204344085862932e-01
1.590567244932981072e-01
2.077765393533775040e-01
2.027127051188650220e-01
1.954998541222455477e-01
1.895895198025146222e-01
1.740419960505432406e-01
1.918889742356992278e-01
1.722552138718098924e-01
1.754291028130841312e-01
1.204297233314816362e-01
1.687090248726555164e-01
2.481916071519913447e-01
1.388584684093638610e-01
1.538115572350999272e-01
1.275579006991731934e-01
1.337882227843450733e-01
1.256645626298007468e-01
1.137139901408848047e-01
1.010314243687026187e-01
1.349595793937354571e-01
8.191033213876765251e-02
5.334077610919520096e-02
5.593264905469302883e-02
6.809213176455984617e-02
6.902862341532467472e-02
7.949143063194161196e-02
5.429587602196684487e-02
9.808871979037554756e-02
6.122777978830173939e-02
7.893538298669026954e-02
7.411583647072078618e-02
1.030793091213680346e-01
1.239835550294923899e-01
5.109951102323599670e-02
6.784653432286071040e-02
8.418446956402984849e-02
4.721661059191352428e-02
3.551721836852543557e-02
6.779910133393524108e-02
6.296798631510261424e-02
2.816314101733586803e-02
1.972433449500483882e-02
6.579018092740673840e-02
1.938118727552856982e-02
5.145517197987128921e-03
-1.881451754775721047e-02
2.859248154933861225e-02
-2.232556887981804183e-02
6.167809374113265852e-02
-2.593408036856078777e-02
5.928493301499643264e-02
1.078613059507101957e-01
-2.418949515319278668e-02
8.279013680928591634e-02
2.745139067240823239e-02
5.996131565706197541e-02
6.838962189280357873e-02
1.097164180373733228e-01
2.442084868688811430e-02
3.134459565304508616e-02
9.695741154621094482e-03
9.774153381977932625e-03
9.549999376600991352e-02
4.006352365496300416e-02
5.963142054019404670e-02
6.047307761677708088e-02
9.094734674881535530e-02
5.120796742153924108e-02
1.571946654565306578e-02
-1.532481911756020110e-03
1.188182506298090108e-01
8.497443193116488436e-02
3.883375817742028280e-02
4.948423394835159417e-02
6.024304530005968050e-02
1.419102021588712348e-01
1.020312023453984751e-01
5.061910892453395927e-02
8.913380702393772226e-02
1.485621594196331607e-01
1.187427406624423643e-01
9.156967166131438352e-02
1.681897164973351344e-01
1.330248528594737134e-01
1.630464624682132491e-01
1.421802541616433990e-01
2.069112926480541348e-01
1.504058826358883327e-01
1.792989197784094213e-01
1.618025622984656797e-01
1.888670356643317727e-01
1.002780152338573483e-01
2.032333463307614829e-01
1.812937229243832271e-01
2.360772883819898249e-01
1.452045208252386865e-01
1.810517502584539917e-01
1.724106124244888238e-01
1.901406912003935079e-01
1.768577569899057733e-01
1.756927728037175063e-01
1.901539817610656269e-01
2.160286988421941112e-01
1.415320431999414763e-01
1.255716005049412887e-01
2.046084515027856154e-01
1.950779101214934752e-01
1.482705315207145103e-01
2.077748329945731942e-01
1.761485373183276359e-01
1.869483704973692317e-01
1.874447586718652192e-01
1.794132272428479169e-01
1.326874619936267985e-01
1.862803231360303235e-01
1.850149408010589025e-01
1.963339644991364819e-01
2.223676323938896804e-01
2.179468541621138733e-01
3.200434940951193408e-01
2.853625784897537154e-01
3.848171149085543585e-01
4.090626905024294935e-01
4.990886804798940757e-01
6.284572878643361893e-01
6.041264256238905173e-01
7.085151289470268399e-01
8.182766854292026215e-01
8.716131218063185582e-01
9.337507549525846384e-01
1.042491593674680361e+00
1.075573946046615825e+00
1.145474544743219747e+00
1.205392368722272511e+00
1.256729734729984616e+00
1.229997817574130847e+00
1.212067299896002259e+00
1.235347477756250756e+00
1.213890789186538699e+00
1.194718921238869802e+00
1.156334011819667884e+00
1.081260148879737981e+00
1.020761273751908949e+00
9.079153893643291395e-01
8.384654580880310792e-01
8.275444290664623059e-01
6.684220145669648172e-01
6.269810502976416178e-01
5.737312212208139917e-01
5.026618969226279710e-01
4.158170907206334421e-01
3.545405798811862019e-01
3.698247870746899091e-01
2.831594457350031790e-01
1.793373993421880086e-01
2.290545779321514763e-01
1.586665601704877471e-01
2.133029582074900676e-01
1.343131346176913432e-01
1.729327792899561511e-01
1.199582222196517167e-01
1.424087795392917910e-01
1.778392521766271883e-01
1.982015539769615420e-01
1.467324966144406551e-01
1.680340598018083553e-01
1.617652706820584818e-01
2.168602656210572577e-01
2.399557344589058894e-01
1.442910748077984029e-01
2.152531000068228229e-01
1.582249104678594698e-01
1.833940784890147890e-01
2.179179445142082339e-01
2.030780337079349240e-01
2.320983878498756314e-01
2.281481403334583158e-01
2.325706418208732251e-01
2.512698813779289941e-01
2.551763284731739523e-01
2.448157088144009008e-01
2.364728468819214391e-01
2.693026121744082624e-01
2.556914904560799728e-01
2.615184141367852266e-01
2.876713389706802571e-01
2.674940774626703988e-01
2.628896261456371564e-01
2.941745514095497338e-01
2.775984367114002760e-01
2.952947520104566292e-01
2.859714658389244657e-01
3.218545636973031421e-01
2.582596172269907564e-01
3.052286320387151419e-01
2.713171957117036515e-01
2.797531497092063946e-01
3.115456732853998378e-01
3.227217759930608443e-01
3.256343775458162559e-01
3.058251834357438859e-01
2.612872994603444576e-01
2.827553927338281592e-01
3.592819825442777892e-01
2.766006872020566054e-01
2.897281937469955437e-01
2.840473002451859852e-01
2.464605470660224951e-01
2.522615993061693151e-01
2.529295667001973391e-01
2.924974798549754285e-01
3.121681200139169166e-01
2.653992720428708374e-01
2.610238331656578592e-01
1.971442022018926876e-01
2.053511300070030576e-01
2.035722466031239242e-01
2.466729006059077134e-01
2.059415145719978857e-01
2.285905879174591204e-01
2.074625973408965596e-01
2.060936587694707778e-01
1.809331564955670157e-01
1.813763073424310146e-01
1.769911809096773037e-01
2.184424385954100156e-01
2.283440761638543814e-01
1.887544337977656306e-01
1.347155774117543836e-01
1.536719513435301498e-01
1.841801446155431621e-01
1.876550667860365507e-01
1.797693847699733949e-01
1.047208973559625167e-01
1.386746770237735071e-01
1.352439566403379756e-01
1.753146434915126561e-01
1.548396372104132446e-01
1.367794819300179598e-01
6.647665189506496430e-02
1.585311946726039312e-01
7.175505221871811279e-02
1.164137235234675438e-01
1.144420987529186223e-01
6.552019767549810414e-02
1.038405998857007684e-01
1.002406548550512644e-01
1.448077512675033374e-01
7.324764446674172924e-02
8.361323388663738365e-02
1.401084857112600834e-01
7.544223568919697365e-02
1.730673035261219572e-02
8.087226760187479768e-02
8.670781117637411939e-02
1.708826763523384890e-02
5.801660934458171409e-02
6.031313398400273140e-02
1.057430121514833232e-01
3.996798409014741538e-02
-9.329181726037451272e-03
7.107836498991350338e-02
7.710959698986805111e-02
-1.742109267289307373e-04
5.178858608714122236e-02
5.191553820573874267e-02
7.029143579111728213e-02
6.187498015510688870e-02
4.118819266330898260e-02
3.131078475065710714e-02
5.526891824814031406e-02
3.993120938181987656e-02
-2.517263359462643818e-02
9.174936745562051188e-02
1.117751514767810067e-01
5.273929996147553451e-02
1.683534492898020735e-02
8.040777213590800943e-02
6.390063014735863911e-02
7.702774435367078232e-02
1.574948151831725290e-02
8.028810941383382471e-02
8.107807551488407927e-02
-9.429049738704856076e-03
1.292888250035322817e-01
5.832296628535851846e-02
8.893106691948687859e-02
1.137255634424117479e-01
1.406182518956565486e-01
1.451925805414500115e-01
1.182712767585364089e-01
1.190133591245684797e-01
5.405572754316017442e-02
8.711292923758459650e-02
1.334140143656755706e-01
8.952898847186593900e-02
1.535170873375880651e-01
1.528017821992345981e-01
1.015559872226062255e-01
1.156329903514689283e-01
1.765894667442527433e-01
7.106096076334472711e-02
1.595997665549618305e-01
1.759078341456924710e-01
1.579181680130698207e-01
2.212692649417857260e-01
1.251328840802148901e-01
1.678134807342404611e-01
2.256605986448178836e-01
2.087958551645480443e-01
1.945067352986995235e-01
2.091624039146213199e-01
1.875625233862869001e-01
2.136756064579538317e-01
2.193248125557276107e-01
2.135486771779046000e-01
1.989030567584249287e-01
1.856603353789187116e-01
1.451970314871137147e-01
1.793133271768820869e-01
2.170469552336631303e-01
2.319382035312513302e-01
1.555939173044689205e-01
1.767992704425625505e-01
1.793111643847069281e-01
1.279881600179401946e-01
2.177411017770903290e-01
1.558765158044409516e-01
2.086427312196131034e-01
1.565862229024848618e-01
1.641074579380652210e-01
2.018076575392919181e-01
2.045222836770412278e-01
2.712256347592865713e-01
2.112402628938936378e-01
2.259137050250517587e-01
2.707682261252752909e-01
2.784380299522614122e-01
3.294103232676770521e-01
3.551437530432294265e-01
3.922254918466182017e-01
4.598871710251549172e-01
5.546651250817542511e-01
6.439010237992901509e-01
7.520170583632811434e-01
7.669051316132224905e-01
8.667565048923717708e-01
9.293830862796746972e-01
1.009575653555885522e+00
1.078748381444496918e+00
1.140250076016389169e+00
1.209415166105527462e+00
1.202686202396030080e+00
1.223510589747704103e+00
1.304506351131157427e+00
1.221610294050827772e+00
1.236195694745691354e+00
1.125664356092586083e+00
1.090978572652885559e+00
1.095179889478488322e+00
1.022198663816128672e+00
8.946826509087936197e-01
8.215630420780165588e-01
7.229744742106483102e-01
7.045127903532691915e-01
6.342368118665834276e-01
5.031346018738088732e-01
4.522041264994648424e-01
4.016905120561345965e-01
3.172629333453410583e-01
2.848858145322228363e-01
2.572793629552176942e-01
2.167946642964836135e-01
2.030031121148813122e-01
2.127950066351837199e-01
2.528968868604890563e-01
1.511236082774103651e-01
1.445208278355451792e-01
1.123141485282766472e-01
1.159594868361393527e-01
1.359628255556238063e-01
1.942871777733979899e-01
1.615446071166911357e-01
1.585000713092624691e-01
1.602253272587858546e-01
1.512971240731393607e-01
1.350436107859510071e-01
2.282989561632546571e-01
1.807155568413610081e-01
1.977486290290307869e-01
1.362058644630748105e-01
1.620423826545704937e-01
2.235253832282811937e-01
2.037446480236676793e-01
1.954546860420440513e-01
2.520847568257137405e-01
1.769647159872792808e-01
1.766228192808964592e-01
2.972331685797883205e-01
2.615260062220328696e-01
2.590807347065171018e-01
2.282998877529353043e-01
3.022592949308971488e-01
2.619676797089064424e-01
2.395686912903207677e-01
2.062216655404221499e-01
2.342787397461728038e-01
2.269064240786265729e-01
2.418525301644952052e-01
2.734411579124512159e-01
2.507958713952229690e-01
2.567116193110079991e-01
3.096903570323859545e-01
2.986369528395352857e-01
2.242820520214940383e-01
3.135409606244944913e-01
2.330879442071839558e-01
2.387173532655802455e-01
2.173447827737980398e-01
2.859536058363948419e-01
3.000211058209419912e-01
2.664389539262986828e-01
2.965449805306925590e-01
2.569516786011246112e-01
2.819235717895381410e-01
2.536394566057169619e-01
2.535748461365290307e-01
2.479216279433811843e-01
3.074742311779521953e-01
2.293401829278216841e-01
3.013303579313311720e-01
2.795810981407342855e-01
2.309541499359974714e-01
1.683264305105643954e-01
2.488039031059480211e-01
2.600045485283730695e-01
1.653448039660843638e-01
1.968255781687603956e-01
1.729572857667733832e-01
1.556087075200278946e-01
2.185027718390631646e-01
1.709510581468677570e-01
2.341830304667950891e-01
1.999433659119317641e-01
1.462468735993673885e-01
1.447837981307177335e-01
8.160891978274741054e-02
1.923699973626766813e-01
1.620688132767877654e-01
1.126079589935216341e-01
1.392064674028868354e-01
9.706642721854519262e-02
1.087363782742884061e-01
1.110642330262467115e-01
1.357959407840849397e-01
1.208767555931144350e-01
9.734582114096766714e-02
1.049906958558071424e-01
7.089762680652807181e-02
7.701087929223941753e-02
5.603516502103667030e-02
6.535929616556603039e-02
1.009841069475684722e-01
9.057287041559161644e-02
5.019981139241931622e-02
4.658471843601443008e-02
8.929709608011754396e-02
6.168177135315463383e-02
6.724318411098373360e-02
6.392001518568533880e-02
2.911326371971318869e-02
5.572985281288884984e-02
3.752694439304596341e-02
5.844030724038991320e-02
7.324945845436883762e-02
3.227844068228333252e-02
7.178773582005909537e-02
4.560653222371456594e-02
3.004586622761764095e-02
2.352582404928602738e-02
4.067559759748017728e-02
2.778694145069568119e-02
-1.763866472626558768e-02
1.220497059184121567e-02
2.069911024066018596e-02
3.645777746684673859e-02
4.570388874584375982e-02
4.709073216523182448e-02
6.154315250219181965e-02
1.467254654505115163e-02
4.127186039219606084e-02
-2.121623231578216931e-02
4.203878131574008067e-03
5.727069722175266719e-02
4.572205001061999119e-02
-2.115115980295976389e-02
5.190002295540072086e-02
1.171785731576890782e-01
4.390114142696771582e-02
-4.043196336234729932e-03
3.442637142890173779e-02
2.111125610560177224e-02
1.016256360798088731e-01
6.128563814051796871e-02
1.004741695791815936e-01
4.752752238385707373e-02
1.088212387205686887e-01
2.112053770669668901e-02
5.054914552722588467e-02
2.190685271996406502e-02
5.057240838617034495e-02
1.358314798080512142e-01
1.078132985788913534e-01
1.393880507604081942e-01
1.307070520466982466e-01
1.357797931065495289e-01
1.132273215417144707e-01
1.397197168083351426e-01
1.182713360032203315e-01
1.463953829071736323e-01
1.129673235370922679e-01
1.409718217959690933e-01
9.448395499910103301e-02
1.368229760726978883e-01
1.378530715125955153e-01
1.626331978307088422e-01
1.448621122055631372e-01
1.312106946835562560e-01
1.630596377029519539e-01
1.905700375420419368e-01
1.475927353502960171e-01
1.470906601850828221e-01
1.479726975321079829e-01
1.511901554387964364e-01
1.282702969855654129e-01
1.665115902023272254e-01
2.067369263354787157e-01
1.680109144686063594e-01
1.898140581629568224e-01
1.541739319201204939e-01
1.303939093192116316e-01
1.370772668179452425e-01
9.866047816610379328e-02
1.450366916791148986e-01
1.467800511989136025e-01
1.691034660402242484e-01
1.732536108373712858e-01
1.293413226244943814e-01
1.506711227047443646e-01
1.719716884417072933e-01
1.928502495387632021e-01
1.909601953003040586e-01
1.647497217110930889e-01
1.707038182336934329e-01
2.410239341597798790e-01
2.552570720706568985e-01
2.937562198702663996e-01
3.505576350292534671e-01
4.206043705586079984e-01
4.359362937386581649e-01
5.451348314319062194e-01
6.503204720840629616e-01
7.059025599825894393e-01
7.812909654343624943e-01
8.292960009538248300e-01
9.292607272601504098e-01
1.009411009682956939e+00
1.118208673120800745e+00
1.091683689499244769e+00
1.163200931925731929e+00
1.211246591765990921e+00
1.151995148835304628e+00
1.246202276183119961e+00
1.136499765732161382e+00
1.130069123708383749e+00
1.117110442005029292e+00
1.055682231224754686e+00
1.075282699963846067e+00
8.800465528603824694e-01
9.160430036806964660e-01
7.973467706485261042e-01
7.225707029469342624e-01
6.719087675114971958e-01
4.938975600308584402e-01
4.951277287205270716e-01
4.306029162831450652e-01
3.661636873744890108e-01
3.602627232848956695e-01
2.499804490701635906e-01
2.141722628371406645e-01
2.003099360538658780e-01
2.090744398537436322e-01
1.192885927595353224e-01
9.325504875941459382e-02
6.896965788689088384e-02
1.109273511426869252e-01
9.881547975582727350e-02
1.472810755012630979e-01
1.034476627775384044e-01
1.067184127706539420e-01
1.258489104742420428e-01
1.048399656853011147e-01
1.017959349633064670e-01
1.268926607608528434e-01
1.738569576682584827e-01
3.332159209383156462e-02
1.875400853838205262e-01
1.381666281423404585e-01
1.361799226075676994e-01
1.067043968783512736e-01
1.419175052157109207e-01
1.470689537458133855e-01
9.831523759056912115e-02
1.647759444573164700e-01
1.733888539213623847e-01
2.234071688789261989e-01
1.644254081475583495e-01
2.109710119291400010e-01
2.007229541095809366e-01
1.752486042108536146e-01
2.062854516719683784e-01
2.237735784660656035e-01
1.912519033467946494e-01
2.061502280280628485e-01
2.120910372442052494e-01
2.603883973324550571e-01
2.638261588134688251e-01
2.257695594805702033e-01
2.163572046320870745e-01
2.216047772745738664e-01
2.584188983449472454e-01
2.588552677295868909e-01
2.406931960837268569e-01
1.952181638904495753e-01
2.523867947804859235e-01
2.913277949596381200e-01
2.342500144408851126e-01
2.236558218237311713e-01
1.819750046566251667e-01
1.892724997182607394e-01
2.286054240105603874e-01
2.507362624574199783e-01
2.259687908009360424e-01
2.392115765179195774e-01
2.033041510795621787e-01
1.769443076338434728e-01
1.972615596443703656e-01
1.526131525921593235e-01
2.122317763976216132e-01
1.515017707854785511e-01
1.598522883621363300e-01
1.960066309435822274e-01
1.532589125450155854e-01
1.524815038244808629e-01
1.302692995493996975e-01
1.907837996884452214e-01
1.465536429203093960e-01
1.277874208110456045e-01
1.600822115939486145e-01
1.268125238439885838e-01
1.934382822662810419e-01
1.341770090906699298e-01
1.613025615294010340e-01
1.283637151664416276e-01
1.497809975772745328e-01
9.877540009207591565e-02
6.682237857864894992e-02
1.602053603657764003e-01
6.395579559060571295e-02
4.268139516551296836e-02
6.809758844808833089e-02
7.731397337792979274e-02
8.254917522913288175e-02
7.121731972505250530e-02
5.119469321091120462e-02
5.188200358390158973e-02
1.356089891177437307e-02
6.347001358755979816e-02
1.374692205148279889e-02
1.128438645530089601e-01
-1.373772922594764662e-02
1.042529377449294414e-03
1.870333036365730978e-02
-9.133795317883303122e-03
2.188079484337968755e-02
2.433179011493139324e-02
9.959042583704565132e-03
6.118143720779926908e-02
1.682210426362228117e-02
1.139478060104625462e-03
-2.752951630963214671e-02
-5.014890360214904752e-02
-5.652631380311558262e-04
3.124025448296329638e-03
-5.104878481116129074e-02
-2.682897601764230172e-02
-4.126275632528629556e-02
2.817605595305040789e-02
-1.176653122877110991e-03
-3.621724011780596414e-02
1.388177139002735178e-02
-6.928217176457046600e-02
-3.311980433288577025e-02
-2.752596991252953540e-02
-3.434089326887253268e-02
-2.707337611277657596e-03
-4.710565100779800368e-02
-5.178415764092868245e-02
-3.997188457199615103e-02
2.607935489997289386e-02
-3.239996177961630003e-03
-6.349004091263898975e-02
-9.956479775765220142e-03
3.826885728147750437e-02
4.966755632930506398e-02
3.822881246693363849e-02
-2.345812795093154407e-02
-1.937907276388339817e-02
-3.768375055446253341e-02
1.922728209416245393e-02
-3.736536136779629313e-02
-6.760245399812706002e-02
-8.790932327665354484e-03
1.781591471246354863e-02
2.401497337171965007e-02
1.014340474901295197e-01
2.352953708698032192e-02
3.068745360752316714e-02
-1.025549235684019428e-02
2.299395048858918211e-02
-2.962102940405483831e-03
1.082538787968783944e-01
4.373772045827029747e-02
5.761269304006300107e-02
1.413152911092312169e-02
4.530754728374528084e-02
6.046130461959263458e-02
8.647321108131869605e-02
7.388781677536271353e-02
9.049350819560963988e-02
1.359430326765192765e-01
9.246287247885959237e-02
7.237377116629079010e-02
1.144259012859645541e-01
1.443618059313172552e-01
9.578607804150388039e-02
1.066079912285708420e-01
8.066577290357253294e-02
3.789677588979217804e-02
9.203875467513787656e-02
1.338478987793906561e-01
1.171108203020750638e-01
8.561911517243117609e-02
1.452023321488761509e-01
9.429693362677640800e-02
9.890128353279825646e-02
1.426895705571870065e-01
1.089753814330917669e-01
1.522053184674680149e-01
8.798520395741685207e-02
5.366585616682212345e-02
1.064199939984455390e-01
1.105823193874729826e-01
8.566567066557753685e-02
7.439298192339649507e-02
1.003092622188952732e-01
9.954625674335612628e-02
1.230637284654815256e-01
9.810417978546258355e-02
1.313071878292997874e-01
1.559549109649061849e-01
1.467295933578618428e-01
2.021133542543766815e-01
2.011064862033710154e-01
2.518988067746777415e-01
3.211022593284993398e-01
4.153158337000359412e-01
4.127433298565413300e-01
5.271692230669693391e-01
5.622316102207920441e-01
6.149578687887194972e-01
7.211024781519793647e-01
7.872419139814307298e-01
8.682279018522862657e-01
9.452377396520494912e-01
1.009033103109842067e+00
1.109050252322207220e+00
1.160260947209544424e+00
1.128475024725485110e+00
1.144621081791385775e+00
1.167561190506825053e+00
1.084416682750712457e+00
1.151203993785802959e+00
1.015507832949696931e+00
1.032534239313949831e+00
9.428552375710131939e-01
8.589324667359973242e-01
8.306129060199290981e-01
7.632267777549783805e-01
6.353734133966195685e-01
5.636287276480727026e-01
5.378265488731839294e-01
4.265001684059608889e-01
3.698590417623663362e-01
2.491765254350860048e-01
2.280108758053946139e-01
2.068495028314441264e-01
1.633620031108626858e-01
1.470113101666352395e-01
1.234451499341188419e-01
1.052733321440079417e-01
1.211411634593149433e-01
8.651105319456159348e-02
5.791574875155909574e-02
8.533273272012428801e-02
7.166621727831590238e-02
8.349600898116041336e-02
3.135390673014943480e-02
1.015280340773303258e-01
3.921916056139437834e-02
1.159015829643764844e-01
1.045049978035810512e-01
5.476974960990869945e-02
9.070969666147306321e-02
8.532705408460919405e-02
8.140285318557605176e-02
1.283255568788954915e-01
1.179144974994483785e-01
7.261505089864683793e-02
1.118971937935286515e-01
1.125603376528031552e-01
7.527804260734197173e-02
1.203633712247497434e-01
1.582022826960607087e-01
1.648023214510643819e-01
1.199056718455115689e-01
2.157727871558159649e-01
1.534796167377143195e-01
1.844084756832279626e-01
1.595945638607909056e-01
1.140152655268179549e-01
2.115681968591505702e-01
1.802778799333290272e-01
1.810368282831745224e-01
1.725671596960300647e-01
1.545068777653498815e-01
2.448273124695873049e-01
1.801584164658041887e-01
1.744259425570136579e-01
1.843556735987672002e-01
1.795044471467107661e-01
1.929413386945989517e-01
1.820028428213875948e-01
2.238576247021723808e-01
1.765367117218499815e-01
1.806243159172408186e-01
1.869909080073131058e-01
2.002749932395828658e-01
2.536062602754124429e-01
1.844801856455564049e-01
2.010868029178038419e-01
1.641950314501340880e-01
2.230364664706529498e-01
1.699277493942712991e-01
1.433403580471047933e-01
1.307770612434488167e-01
1.723630786532792947e-01
1.028118545439402065e-01
1.696041220067837640e-01
1.306006114296481557e-01
1.492164061222983340e-01
1.365837765124647829e-01
1.383257477361815313e-01
8.531683666584510828e-02
9.232385021575567619e-02
1.468831135478931849e-01
8.680602089098002350e-02
1.297134541570006128e-01
9.982166155072708102e-02
1.252886981166104197e-01
1.159999061817793692e-01
8.816798539150624836e-02
2.514795567914742541e-02
5.786078683358301250e-02
1.419054665471760901e-01
4.865836399744460916e-02
6.272741754771492262e-02
7.482916029344344189e-02
3.690063258677714342e-02
-8.899969881710524666e-03
1.664063040962521223e-02
8.197559274992013978e-02
1.426735204847973809e-02
5.161760503050851628e-02
-5.523519022728469452e-03
-4.779180496809781742e-03
2.973483024783572098e-02
3.001484304418897825e-02
2.954549104139266025e-02
3.106125268552993590e-02
-1.248904700792639183e-02
-1.057180573127126932e-02
-1.714259656061519616e-02
-1.455609476204140079e-02
3.170850227056428577e-02
-3.072701370728884301e-02
-3.757551012704571369e-03
-1.017948741963767278e-02
-3.288468796265568705e-02
-2.429073873552204180e-02
-9.726206174764551182e-02
-5.406975805084059811e-02
-2.837866368974649098e-02
-8.599401735715864192e-02
-3.280016675765723422e-02
-4.136903937063812070e-02
-1.151860637349927385e-03
-7.059462631024550350e-02
-3.257673166088556616e-02
-1.556505184565440403e-02
-4.982519884898561208e-02
-8.791903049235480494e-02
-5.112218133358955446e-02
-5.820302260797340088e-02
-2.897681038886062294e-02
-3.935152505117616578e-02
-1.532391465075109288e-02
-2.769440911780395725e-02
-1.169836514532417160e-02
-6.317722475600921761e-02
-6.024906002870263066e-02
-1.265308996660837598e-02
-3.278465059133053860e-02
3.812129857714120079e-02
-2.297466575700636213e-02
-1.575691862778717811e-02
-4.778020747386729772e-02
-4.786189305369652203e-02
-2.754157159668373447e-02
-6.658357926777140612e-02
-1.940060677031407027e-02
-7.763614381697434008e-02
-9.751970146644091397e-03
-4.536510159223984540e-02
-1.839289488406392614e-03
1.438364443099107715e-02
-4.143991400969507244e-03
1.727663196048762062e-02
3.347488186117066750e-02
9.193690625001382788e-02
1.672285608139800067e-02
-5.370458081899558145e-03
2.295155675459337186e-02
4.158623603690672632e-02
4.921510307424101921e-02
8.374681974966979858e-02
3.451218378477294291e-02
6.449610730997241970e-02
7.410071917548569087e-02
1.304107437903559152e-01
3.704508397661027130e-02
6.951259516137463235e-02
1.078387346541248293e-01
8.371951592454544844e-02
3.309064017489028037e-02
5.127479112763313335e-02
1.519141385048013437e-01
7.851024234572509530e-02
1.260318714352272051e-01
1.079599305044219443e-01
8.493343258302532561e-02
1.603404138303178295e-01
9.121032073939300266e-02
8.710773986274780722e-02
7.175401199388578566e-02
6.629999538507580503e-02
7.861447084572162347e-02
1.142483667909059974e-01
1.069186866857700091e-01
9.781339973628208617e-02
6.474170393289796488e-02
7.295005477054050669e-02
8.124773309307657676e-02
1.239280080149898072e-01
9.299813180693440595e-02
9.349180853897061383e-02
1.374217289180594825e-01
6.419722310862158166e-02
1.131100565473490693e-01
1.694230975020537544e-01
2.075951974189052529e-01
2.686156040465209616e-01
2.560262115914017089e-01
3.199969301876539052e-01
4.086758179824853121e-01
4.871275566452060168e-01
4.854975238069444421e-01
5.626329485878439618e-01
6.904897026710744568e-01
7.589847255568897832e-01
8.455451060282194176e-01
9.617438450145854301e-01
9.774632404514643769e-01
1.042560156742402322e+00
1.116504764827907836e+00
1.186914457923888166e+00
1.160655784680993508e+00
1.147544601314568036e+00
1.178136704797732026e+00
1.158682324315936985e+00
1.073816614235459710e+00
1.062929327514094746e+00
1.032528272477875042e+00
9.869496617533340954e-01
8.627557012698524597e-01
7.848276107401743751e-01
7.141583569150022903e-01
6.822446122012624237e-01
5.187270568814476013e-01
4.520172350713677067e-01
4.278304802959661535e-01
3.717666829647282012e-01
3.048056434049345453e-01
1.675319828904758834e-01
2.510767064776652790e-01
2.330801943565980749e-01
1.731599070358634251e-01
1.183333509468319916e-01
9.438782032491030427e-02
9.974177391139207871e-02
1.017976895838327567e-01
7.633586354788243766e-02
8.957814792767390677e-02
2.816026037055020109e-02
1.043304684215678457e-01
4.726763440893686635e-02
1.163589142831974177e-01
1.261363426963767742e-01
6.361043118129156015e-02
8.026713006510564907e-02
1.277855822742256786e-01
1.032884122038849606e-01
1.063523979937022329e-01
1.069162591656171030e-01
1.795960577976954131e-01
7.384964429439705436e-02
1.487756996716611546e-01
1.022994312209090650e-01
1.005986233982258254e-01
1.413356643072699870e-01
1.676603664891510026e-01
1.444056754733422376e-01
1.388861713450091073e-01
1.577809760357094526e-01
1.644134320874833244e-01
1.684971543893169499e-01
2.425938242488641372e-01
2.376239876183010025e-01
1.587035437419678507e-01
2.786382311930313826e-01
1.968593836755717086e-01
2.246841350001195781e-01
1.809783750463104246e-01
1.701750366039120610e-01
2.354683226913645011e-01
1.830510310052830270e-01
2.409120683580544264e-01
2.223055995653987482e-01
2.652654622004886331e-01
2.474718414581699166e-01
1.867328521987429157e-01
2.726144841673533992e-01
2.064409647159418937e-01
1.977748405157750966e-01
1.648533081463502414e-01
2.105856191183944626e-01
2.413747817735726053e-01
2.404717309123669822e-01
2.121907564908581123e-01
2.450302772589817990e-01
1.977131520125425534e-01
1.948635049416335141e-01
1.696108591086068484e-01
1.758139197051237224e-01
1.748248029340983278e-01
1.843414417942330075e-01
2.330182048502141834e-01
1.911701987854525497e-01
2.053672280397002003e-01
2.317574764455028191e-01
1.603044290922680803e-01
2.004378173186796841e-01
1.612558918031733457e-01
1.792141533455535174e-01
9.246207306439702123e-02
2.008259600825366697e-01
1.411674071055307456e-01
1.164370954360474109e-01
8.133478750751697850e-02
1.389806027574853053e-01
1.164918364573346021e-01
9.424425669165854835e-02
1.002453393518226432e-01
5.600692112004004158e-02
5.490391235256701641e-02
9.111821894997551574e-02
1.057717852792511848e-01
8.626797983070945419e-02
7.426363688499028337e-02
4.070726633916842141e-02
1.190287763370099922e-01
7.122285731220473481e-02
-5.996483298799669404e-03
3.525684052105649419e-02
3.097638411031136685e-02
3.655376789843439028e-03
1.817368583185175954e-02
5.106389157060677031e-02
2.494997970742878629e-02
1.184909548598353859e-02
2.576449113009994865e-02
1.651313632530685208e-02
2.339021749765935604e-02
2.092789534320876541e-02
1.483536251044132066e-02
3.050438474164618441e-02
-1.889496414488438941e-02
8.191522075480314746e-02
3.152506771933967500e-02
1.743723426807761850e-03
-2.384722121677831236e-02
-2.158846365997370981e-02
-1.457431332343607847e-02
-3.206151098989510131e-03
3.848477434863693120e-02
5.096420550230834623e-02
-3.891145377570359026e-03
2.570037636392350985e-03
2.934537610151452536e-02
8.807194617211170154e-03
5.844197401789884283e-02
8.037421693790000599e-04
2.572519617628457947e-02
2.806022741717074248e-02
1.415751547016665286e-02
1.555165802299483813e-02
6.193867985716033225e-02
-1.752766168455003465e-02
9.748608156298528560e-04
-2.294091530349756311e-02
4.405564362920121740e-02
4.644405000566521544e-03
6.591394839752432941e-03
2.222214995763326789e-02
6.228036231289597879e-02
5.477196056835346993e-02
6.799928611102142029e-02
2.943183475109836106e-02
3.399104738951426452e-02
3.754819674767626708e-03
6.014529760754068477e-02
5.963414065701967692e-02
9.852117266181738275e-02
9.774195012416045381e-02
4.670655212820888635e-02
2.051013463044397064e-02
1.099930830297964068e-01
1.044358185230679775e-01
6.275118286232554687e-02
6.789382661252148232e-02
1.041229806771327426e-01
2.475522399800562240e-02
1.103311245997816159e-01
1.123741285848168237e-01
1.328970693735414266e-01
9.381023075334517236e-02
7.372785528907246921e-02
9.638523034367862952e-02
1.187904392329798553e-01
1.241448903492065048e-01
1.406497659146489498e-01
1.320775187968742659e-01
1.286411343735717749e-01
1.209921984884037433e-01
1.245034843751081505e-01
1.263003187213284362e-01
1.208279395911055765e-01
1.101770802984887443e-01
1.506575031792442010e-01
1.601196305326865743e-01
1.035504457997076938e-01
1.787756635068521727e-01
1.292740665507887687e-01
1.523752145571988514e-01
1.293353420111317820e-01
1.536776676376076789e-01
1.460248115494510168e-01
1.631803785011037289e-01
1.649157804361626178e-01
1.419951730997082995e-01
1.526690940669119534e-01
1.764045424395285777e-01
1.734998608775264184e-01
1.557619099225162895e-01
1.300595641383867906e-01
1.632243554160820453e-01
1.927229027279763474e-01
2.225107880426565599e-01
2.305240653908303128e-01
2.749443004956528824e-01
3.822307664268519978e-01
3.760845927621507823e-01
4.696020479596787478e-01
5.496717642954459526e-01
5.653017822512440560e-01
6.236982876195844572e-01
7.507146668704424153e-01
8.318142911325913103e-01
9.306693745120125927e-01
9.484569414735267712e-01
1.062496687519976835e+00
1.086036253289455189e+00
1.150763167361897654e+00
1.156629779751255027e+00
1.170763085832182471e+00
1.212020787892999607e+00
1.195233142529267489e+00
1.164818849317132088e+00
1.198830561839264064e+00
1.123611378750380974e+00
1.036639526791762966e+00
1.001287057566037531e+00
9.829909939263895557e-01
8.320104362872298154e-01
7.441724906615793111e-01
6.322897388269551611e-01
6.384368422690955835e-01
5.322593771675645513e-01
4.415014698258238890e-01
3.828416850631221058e-01
3.213593765433427896e-01
3.714183769171887084e-01
3.116379485842872832e-01
2.545473373078921964e-01
2.039090082318976982e-01
1.973819816723404452e-01
1.351656240946366438e-01
1.539957412370847323e-01
1.215849508296001774e-01
1.194517507356370328e-01
1.635576464430927024e-01
1.229617702854073069e-01
1.399839978967820364e-01
1.318287036009473667e-01
1.218146057082305223e-01
1.121864571582066594e-01
1.527138495303605736e-01
1.748307356045985805e-01
1.365006291252987281e-01
1.323978533186094819e-01
1.793025020205951392e-01
1.209118180935782327e-01
1.831144938694596602e-01
2.401410112313288325e-01
1.191464195397130554e-01
1.593737605969391402e-01
1.935346132637967009e-01
2.226146712666490501e-01
2.246755077281832602e-01
1.873789502523052763e-01
2.459842092129927715e-01
1.984385912955682896e-01
2.310909926575592799e-01
2.210050238240611198e-01
2.302436132644243572e-01
2.608482937856176909e-01
2.303638479365698877e-01
2.736718021491964525e-01
2.703285332981371636e-01
2.600951740005338353e-01
2.413706267560412622e-01
2.971812885388461223e-01
2.875368605769706432e-01
2.938667475777044791e-01
2.247627961720325418e-01
2.912437413204271297e-01
3.217909962649558309e-01
2.798202374338837339e-01
3.303677242239059786e-01
2.524441378916773560e-01
2.492759847365534909e-01
2.619237695712599567e-01
2.540410895560911153e-01
2.679413789688919190e-01
2.519632310419958610e-01
3.199322148238167851e-01
2.522501309760774024e-01
2.381860855078560546e-01
2.540846928139873229e-01
2.044204369129372090e-01
2.258447856407882759e-01
2.213628111020247147e-01
2.800810600940096817e-01
2.292114426270586425e-01
2.595794438218539391e-01
2.374464513664354404e-01
2.540526946007060638e-01
1.916400720922322165e-01
2.407231717502495705e-01
2.317312954062918096e-01
2.172143351767972241e-01
2.214737998431486887e-01
2.063049669342168768e-01
2.192992872123089576e-01
1.879549830822775935e-01
2.340901727843584801e-01
1.758339674211174264e-01
1.609005928256297679e-01
1.639913977501220033e-01
2.149991382689439290e-01
1.727126718415305795e-01
9.346763937958663115e-02
1.407146356034708889e-01
1.169522252260397355e-01
1.543201179552482205e-01
1.176818002751529590e-01
1.287872343184106594e-01
1.316676643667328561e-01
1.320518361296730836e-01
