1.166504372693521363e+00
1.186526418520241988e+00
1.191682176981073482e+00
1.148442841015199223e+00
1.100071561403276332e+00
1.000767846151192852e+00
9.622508056715849412e-01
9.419999469831131789e-01
8.663650764634486245e-01
7.147798385533652432e-01
6.910216062069832743e-01
5.545830983111101897e-01
5.560198342340789690e-01
4.245051127469834373e-01
4.020673559980006972e-01
3.465542896718978860e-01
3.450384826365945345e-01
2.292559373113740029e-01
2.097428617052538025e-01
1.952852012287027428e-01
2.134284792607317460e-01
1.829887502613615768e-01
1.864769102116089761e-01
1.964441651716924975e-01
1.573073746442242293e-01
1.656922696065900591e-01
9.314290612045122986e-02
7.684509457106664110e-02
1.940398092427777221e-01
2.088427005133789705e-01
1.788746581406875091e-01
1.629092876514583454e-01
1.694314119674545371e-01
1.252163066757879251e-01
1.927587131612244764e-01
1.555883942453303304e-01
1.262999813952257466e-01
2.140489525831685003e-01
1.706652554129874377e-01
2.260312857218309546e-01
2.832238654479342643e-01
1.832780528990145541e-01
2.302783230270360193e-01
2.362519849586428022e-01
2.746450093588638230e-01
2.063498001031039419e-01
2.672058357977702414e-01
2.647830859212786381e-01
2.843182245809571240e-01
2.809520595206856375e-01
2.842005776862530642e-01
2.738330987712880860e-01
2.130612311135542669e-01
2.358514462801201694e-01
2.508777344863046266e-01
3.404013254816188883e-01
2.163290991775127514e-01
2.960852755193731367e-01
2.660957199053339273e-01
2.601110023775230484e-01
3.023448752504285242e-01
2.760045030637904850e-01
2.881765984872355357e-01
2.983994978871571946e-01
2.634892044625051222e-01
2.944831520674551784e-01
3.370403357053090576e-01
3.369813011818945103e-01
2.637557812994324458e-01
2.747523271902373443e-01
3.102821829853448787e-01
2.842901308674747884e-01
2.813598357274769701e-01
2.962281422572615730e-01
3.165545873467444093e-01
2.791767815904007133e-01
2.979568624655003495e-01
2.757762731141448764e-01
2.234993296998893375e-01
2.703214252456654920e-01
2.316521250756400641e-01
2.130013208666906854e-01
2.508451931677668223e-01
1.856552786647640008e-01
2.257394274525079125e-01
2.332241842723916658e-01
2.087376221322819470e-01
2.766286838710778073e-01
2.108312049160197543e-01
1.316926706446703566e-01
1.668052022068835794e-01
1.769618056515181725e-01
2.288041780281826476e-01
1.932172351576102454e-01
1.802625384893039862e-01
1.510988796176159499e-01
1.561713949122420786e-01
1.229365647937855216e-01
2.177401426655399541e-01
1.479071390765131222e-01
8.481417333156668348e-02
1.600866707375296627e-01
1.177087200625346608e-01
1.245185377495170165e-01
1.172759424739811540e-01
5.984969754363204247e-02
3.347181281598739927e-02
8.231007431642781147e-02
1.211096715981676286e-01
1.048524177275916291e-01
9.501315999544272806e-02
4.378773072130390243e-02
1.006162177853788531e-01
5.865546657772401085e-02
1.106198642204606342e-01
8.221432063017891645e-02
7.887377692232890036e-02
5.779446151724172698e-02
7.404701109506189871e-02
1.350723535022466948e-01
1.133080598777599229e-01
5.218289427312147732e-02
4.582970100615584019e-02
2.973448240274311274e-02
5.495245742858703014e-02
5.910282990998935726e-02
8.993983710554598332e-03
6.964726612063412703e-02
3.892279609188958878e-02
5.068299439387920907e-02
4.118920573308475219e-02
2.980291803568090730e-02
5.084421278323614235e-02
3.825807686628929227e-02
2.850468670451058312e-02
5.414338535081626019e-02
4.060031337232251902e-02
7.865300592975987826e-02
5.170830027363326753e-02
5.860656248385071043e-02
6.642900908459835330e-02
1.367165296245169415e-02
2.397095601601451076e-05
6.659851116725604148e-02
3.008806909739470542e-02
9.223138198819419431e-02
9.103093798575459528e-02
9.642991026277714095e-02
7.131586162923592154e-02
5.770312268314454346e-02
1.710858506922634942e-02
9.088191876518886270e-02
1.078580308485365125e-01
5.704459067209937534e-02
7.086609927160264499e-02
1.164850641640256534e-01
7.245762914245745812e-02
1.080315564158128294e-01
8.597813007961939424e-02
9.794822640041031536e-02
1.210134600941246141e-01
1.319448015147895170e-01
7.768503847825865283e-02
9.926530032306193907e-02
1.130632367414110828e-01
1.354612091560818132e-01
1.308569723202279989e-01
1.841874772305446828e-01
2.166234003925720797e-01
1.667283840649717575e-01
9.475593269615117942e-02
1.720322683017562471e-01
1.470123723392328940e-01
1.477494621440465783e-01
1.603639350017879717e-01
2.243671422924097547e-01
1.753894990292311218e-01
1.445432829069296654e-01
2.027829805935550678e-01
2.803289992011870346e-01
2.334808374246394591e-01
1.853673563578178696e-01
1.619205701281943577e-01
1.690497156270728552e-01
2.120965262891750247e-01
1.859275966416400749e-01
2.225165666268169862e-01
2.050050627449418739e-01
2.652304315636343501e-01
1.314037116621752377e-01
1.977025145535286632e-01
1.690321456030075553e-01
1.996595448477060664e-01
1.414667215300308145e-01
1.692782602675460268e-01
2.072916733605509876e-01
2.078660104295225741e-01
1.828483525575982094e-01
1.438973902463333565e-01
2.153053812358935448e-01
1.997411077057582307e-01
2.174483456720804064e-01
2.010266075626285787e-01
2.229940322905937800e-01
2.203706856096447897e-01
2.459450568438633355e-01
3.326610185071261494e-01
3.585106670303598309e-01
3.154702677857631476e-01
4.120531810332450640e-01
4.968840205879544447e-01
5.857740013504351140e-01
6.391829083612745599e-01
6.654734194741015463e-01
7.461985858677129269e-01
7.938331523073453022e-01
9.222262369537997939e-01
1.001949449469611064e+00
1.050897288141338315e+00
1.175425460497304897e+00
1.142184554951854558e+00
1.105915077829965121e+00
1.195513976427129421e+00
1.231597784991654621e+00
1.264785437081935138e+00
1.158138962568212138e+00
1.147047104564147713e+00
1.102024437485008113e+00
1.049306498274543697e+00
9.764105609394065910e-01
9.164905757917282125e-01
8.619047082393713755e-01
7.788959889769624390e-01
6.853808763083577560e-01
6.177182711178272889e-01
5.789014553927961382e-01
5.037706613002707057e-01
3.880011621736197402e-01
4.117356018395716966e-01
3.072796076261207765e-01
2.719298512433822035e-01
2.323110329958222309e-01
1.960216755816908130e-01
1.935019787237568234e-01
1.735493377597366327e-01
1.427560709704725206e-01
1.936856671554384457e-01
1.544647242512564855e-01
1.537907240327437974e-01
1.491771138118870854e-01
9.823710298279703101e-02
1.651952223657705832e-01
1.722273022145916488e-01
1.494585540547952174e-01
1.717373159167890906e-01
1.842333897745262183e-01
1.691236535701318155e-01
1.587363044856241467e-01
2.175027741942385795e-01
1.968138262353494039e-01
2.549976158190174758e-01
1.591207258505601407e-01
2.166750762788672569e-01
1.804432507988231738e-01
2.495423944956108031e-01
2.285983892977525023e-01
1.859129839722263866e-01
2.187363236543238831e-01
2.421473920647843892e-01
2.052917518804701635e-01
2.370154986254308926e-01
3.133446856407518522e-01
3.334731620869734181e-01
3.178070829642823947e-01
3.174413929154008551e-01
2.771317335415776628e-01
3.003825848884201233e-01
3.186503970685894971e-01
2.497392927755140435e-01
2.527058251082361373e-01
3.075052695886870691e-01
2.485727255137518688e-01
3.165318254080876637e-01
3.041025482144691372e-01
3.172300667399237106e-01
3.292090760256156656e-01
2.582650177881039566e-01
3.289359181997430492e-01
3.442956148554160434e-01
2.979566101674839262e-01
2.804566890394636913e-01
2.619603600820528122e-01
2.684444905502867962e-01
2.605030509401704553e-01
2.668458976200004384e-01
2.779446019324160466e-01
2.195625252294104157e-01
2.660826515781528623e-01
2.878759218908694129e-01
3.001657278158210707e-01
2.823987112590793935e-01
2.513923062004143061e-01
2.540243011622712599e-01
2.356407135600289415e-01
2.342706080450611683e-01
1.957505197745003644e-01
1.680051533381249351e-01
2.587066402261709031e-01
1.846511967023207745e-01
1.740367535458882675e-01
1.779773680713384598e-01
2.089728631527370539e-01
2.136788436681813508e-01
1.447760300686417589e-01
1.436901605924065517e-01
1.215415019933900193e-01
1.335114021834397646e-01
2.269640466378242405e-01
1.588690229921890795e-01
1.191726280140681243e-01
1.502712645555949467e-01
1.529895628943947483e-01
9.478450551320849460e-02
8.127015864482037277e-02
1.219070720645554773e-01
8.460092386909140449e-02
1.342776340525562717e-01
1.534408898104097085e-01
1.070569146638163383e-01
1.507390947900263123e-01
1.293854611386881237e-01
7.506107929956046254e-02
8.218299972627890471e-02
6.090109288425973877e-02
1.166880708351291790e-01
8.627610460670950832e-02
4.725843982728046566e-02
5.204080102742641989e-02
8.171105372812850764e-02
6.654437970766394206e-02
8.104279536096115066e-02
6.626497538989112313e-02
9.785250125829690615e-02
1.247196142114479281e-02
1.010380564703099449e-01
4.636252329433663416e-02
4.422537414295746316e-02
8.048593297851765194e-02
5.329220171062119815e-02
4.655936451164774392e-02
5.956138088314842649e-02
5.696052436391620816e-02
2.787104796749764746e-02
1.003348572808116790e-01
6.738545194824974160e-02
4.559290922458909129e-02
6.560050333508660181e-02
1.611227159688608662e-02
-3.862511229523080125e-03
7.440241785640525074e-02
-1.283731165285375078e-02
5.916924974460602976e-02
3.753319921088793532e-02
1.624085694862661966e-02
9.665303885736293427e-03
1.250496780984595470e-02
3.822861404105776933e-02
2.372584788344882581e-02
1.157802597895856225e-02
4.840301531132976121e-02
5.127173290286525520e-02
3.252280750189950886e-02
4.451564648808314234e-03
6.531592736191052517e-02
4.928249715487185989e-02
4.810880786810471654e-02
3.680487591851040741e-02
5.161098676950835046e-03
4.695059791181473152e-02
9.754825624221138969e-02
5.647861877920572204e-02
3.717457483124852330e-02
8.090905042046869777e-02
7.476411771520766192e-02
9.913890696830385263e-02
6.113658520947434782e-02
5.965036734448885686e-02
9.513067417637437184e-02
9.307011605212872629e-02
1.210494275178368301e-01
7.487031234816667047e-02
1.050597357693806161e-01
9.206651652383050777e-02
1.181590938930751483e-01
1.038797780314448110e-01
1.239888350688140989e-01
1.508343466023546464e-01
1.663491188465497372e-01
1.056653266878253283e-01
1.848394094501341067e-01
1.819158888470898683e-01
9.259343820577620177e-02
9.838327249629053028e-02
1.892859907790624685e-01
1.076391677403653047e-01
1.970023609399285114e-01
2.179672260849283838e-01
2.346732709208588230e-01
1.661275993292024300e-01
1.202627980602083008e-01
1.046270600327083439e-01
1.628953926535453289e-01
1.234907699754950045e-01
1.535630295120602173e-01
6.626204580010965073e-02
2.013658345638288660e-01
1.746792378362592157e-01
2.076488289489979155e-01
1.674547574805426708e-01
1.059576740984436438e-01
1.734292810995529677e-01
1.475619710716972455e-01
1.556821609150809971e-01
1.241144762768084248e-01
1.588970475436811969e-01
1.747887251226084848e-01
1.675953292048190935e-01
1.973673901925692420e-01
2.700619832194129377e-01
2.723374346478913965e-01
2.940042815502073581e-01
3.233138799664470597e-01
3.652270515783740956e-01
4.670377610141576152e-01
4.718511063251899507e-01
5.400518530034748022e-01
6.187630134520502034e-01
7.735960750403965136e-01
7.609281377786679679e-01
8.975860810371533161e-01
9.278368795583138429e-01
9.557527459076137211e-01
1.041806529252986335e+00
1.113336675380884877e+00
1.186199707658085689e+00
1.127417436434849263e+00
1.209321067109021985e+00
1.202166070952171317e+00
1.198909106551608650e+00
1.091370052552445680e+00
1.093081135200910214e+00
1.080246050284467296e+00
9.656174529806424989e-01
8.822230153028418620e-01
8.325444745425369941e-01
7.287091325015763177e-01
6.562301640285322923e-01
5.475693978763815917e-01
5.143905745801803375e-01
4.141756451546137474e-01
3.924153304598378411e-01
3.176341226490753122e-01
2.314533920651746790e-01
2.645868471963360724e-01
2.245069555844249332e-01
1.625955773969729456e-01
1.867582929992345764e-01
1.600100047639836098e-01
1.452311618344562516e-01
9.928491080317988771e-02
1.047120455312063325e-01
8.474126096671057151e-02
9.994358209379740343e-02
1.231235778174816081e-01
8.106165330880348019e-02
1.469598544514131022e-01
2.017406401466142474e-01
1.225544785565496342e-01
1.147751784475684739e-01
1.077118532877369556e-01
1.828952889625634903e-01
1.252478505900721795e-01
1.692610078286613806e-01
1.475353321712507826e-01
1.679571662651634378e-01
1.915297654819349549e-01
1.591680405560201295e-01
1.498554423856634510e-01
1.475977892712098116e-01
1.607991144079867207e-01
2.105608237551228057e-01
1.920188568483249814e-01
2.084603057232511936e-01
2.563675546493428548e-01
2.825240095726286316e-01
1.628603283561307347e-01
1.832281842709749531e-01
1.988782429578191957e-01
2.638345977740435000e-01
2.391919563527039883e-01
2.521833464475061737e-01
2.551261853801095603e-01
2.130889870069996028e-01
2.538483456709487163e-01
2.433603834167167301e-01
2.133239949826404580e-01
2.854391403603899757e-01
2.822512196815467611e-01
2.740476954439403090e-01
2.439559239774389543e-01
2.346467835007281511e-01
2.445271086663970417e-01
2.554784000241304698e-01
2.245147734691508024e-01
2.474252933505577401e-01
1.994077539502381313e-01
2.628057396210590757e-01
2.013340794912835685e-01
2.410394390997774583e-01
2.569531953671702618e-01
1.871198600418946256e-01
2.443581296178503615e-01
1.942211919169726519e-01
1.935145950033531903e-01
2.213385147731828095e-01
2.103234625018171600e-01
2.199910974255195883e-01
1.636647201469162149e-01
1.555496853959205394e-01
1.834859354277076082e-01
2.271440254891667621e-01
1.460868623924006793e-01
1.863882685134616857e-01
1.284851978292013974e-01
1.785333671235538877e-01
9.510741067162802043e-02
1.430379480952266580e-01
1.525767751811199224e-01
9.154559758843300310e-02
1.607575855116579189e-01
8.098742837958372576e-02
1.341701836741660270e-01
8.380580995795645916e-02
6.247948234788487654e-02
6.965658246727721159e-02
1.259780842768706555e-01
8.553468185768911547e-02
9.268843376070187712e-02
6.555522189121948395e-02
7.079537102241824365e-02
6.592068759085144281e-02
8.896604032688239239e-02
4.678067604448561678e-02
4.996733784962451019e-02
2.547157856901446568e-02
4.191311215861064782e-02
2.221533726837430708e-02
5.389500012271095097e-02
2.569327625427116416e-02
3.045870608127087403e-02
-3.031481850789915361e-02
3.781874271899654527e-02
1.651233959994523673e-02
-3.965897623971276903e-03
6.494747504503163571e-02
-1.761687816297710998e-02
-2.001540216230393229e-02
2.058628664010599130e-02
-7.656045857732771132e-02
-2.822187719724235030e-02
-4.081479588747008447e-02
-1.327077846528871424e-02
-1.224977659414087927e-02
-1.946136508921052222e-02
-1.737430808044906905e-02
-3.786024138187286947e-02
-3.578473475211382815e-05
-1.729991018931540184e-02
-7.899414156490449507e-03
-6.040304991391295952e-02
1.980249538782376598e-02
-8.987500270198314767e-02
-4.144364713655361576e-03
4.402727475503690618e-03
1.092998285186355320e-02
6.896476605968437229e-03
-2.684194896022062959e-02
-1.302890962308009271e-02
-2.677683645208112778e-02
2.959434615097796678e-02
-4.419879777037812041e-02
-3.380237230130819087e-02
-2.972119533244320377e-02
-2.818024152181234504e-02
7.481064131537304429e-03
4.497620029164725586e-02
3.596216541796144750e-02
-2.463541570015478216e-02
3.687033940053895120e-03
-2.686067821978850578e-02
-1.332755407234027106e-02
4.202609512740303893e-02
-5.974464197174194496e-02
5.564859536583973559e-03
5.422688470715077841e-02
4.805561323038017030e-02
1.990846706636641844e-02
8.715445887452269447e-02
-2.421368843924825293e-02
-1.399450491002754773e-02
4.948016485195809444e-02
8.882678955675910037e-02
1.272813318889606526e-01
3.258168415613918456e-02
6.348346613686647877e-02
6.614162069552013967e-02
4.747697800061503881e-02
3.952824737061955140e-02
1.529550116413425642e-01
9.424143385404863682e-02
9.492809052630396538e-02
1.415667421295776496e-01
1.113152229497939294e-01
1.131834564933432152e-01
9.061841567464218317e-02
6.722955350188705714e-02
1.136601741383822251e-01
1.382490612100341076e-01
1.352569573163019678e-01
1.479970097921649019e-01
1.181460111303198057e-01
5.414997552111715240e-02
1.305443394643559241e-01
1.256483927985223015e-01
1.369266040353477043e-01
1.554516584700337822e-01
1.335588392688130399e-01
1.118885501786675701e-01
1.248549021275997817e-01
6.490917704312008929e-02
9.921609067013389960e-02
8.879460501655864202e-02
7.506202227292602114e-02
5.761972352680471560e-02
1.285130820266314755e-01
4.826985105496080231e-02
7.534466027951347566e-02
9.013568478014602481e-02
9.971425750161555523e-02
1.509474873441361553e-01
1.931169089842594278e-01
2.204001919699050127e-01
1.890472097612345415e-01
2.263972653197950935e-01
2.926834833678340075e-01
3.070832421868859852e-01
3.328281042468473894e-01
4.419857839532068122e-01
5.643335016376703761e-01
6.344260998997881540e-01
6.372936902258632408e-01
7.352568995394095364e-01
8.133734229977763741e-01
8.420244349347483226e-01
9.302891564646668110e-01
1.002259469966411354e+00
1.081712264171466265e+00
1.056084232897376296e+00
1.087218417905712498e+00
1.175977538565172065e+00
1.101407170940227331e+00
1.112720525279780714e+00
1.114393792915161274e+00
9.873398215172234371e-01
1.007054201850684283e+00
9.806943115440897030e-01
8.282837487860488235e-01
7.365989931879473041e-01
6.498507949028224928e-01
6.005164895380007417e-01
5.105414024934558093e-01
4.910035250992120237e-01
3.986985507588806654e-01
3.658987289484151306e-01
2.824489961681028172e-01
2.653517785867224865e-01
2.435928966908744997e-01
1.714053532970397087e-01
1.837066297206220722e-01
1.244124771102646798e-01
1.008689836115966298e-01
6.617451096681162270e-02
6.184118559954453892e-02
8.899176472459054132e-02
9.472715597486314199e-02
3.875181275148235904e-02
5.909399091238132229e-02
6.904552909940557537e-02
1.160662817124706592e-02
7.809621787131756920e-02
9.653014903181780793e-02
4.145299579706696047e-02
9.701206385797830900e-02
4.058613775468838947e-02
1.470349162199873772e-01
9.930916215967547367e-02
7.351921053092444480e-02
1.567339116793798337e-01
1.350236591952607978e-01
1.326139874769072247e-01
1.494311828389490171e-01
1.698534637843855943e-01
1.371755807839415142e-01
1.434401225285019676e-01
1.084574882420990816e-01
1.417626042765581795e-01
2.153669562953441086e-01
1.517585731162655049e-01
1.477022808899988160e-01
1.330285498108682851e-01
1.589680437339474617e-01
1.925775391045439489e-01
2.191198161118986243e-01
2.507804784985143698e-01
1.961129815602154214e-01
2.658562910180588545e-01
2.105834695837368042e-01
2.084428638298400915e-01
2.099641083307158262e-01
2.119872586793994096e-01
2.380816495966407986e-01
1.991934524663964978e-01
1.849148623063122943e-01
2.008986834066245342e-01
1.913867790068349561e-01
2.119327165108325639e-01
2.361730222266793799e-01
2.181001400476082486e-01
2.118062093396905488e-01
2.546944789266641918e-01
1.895527365180097179e-01
1.904918167542829222e-01
2.083130961458645736e-01
1.547316261008651883e-01
1.793544704663856404e-01
1.542734516223166208e-01
1.656035269282026545e-01
1.618949285504473201e-01
1.941208820522774270e-01
2.003408341926579683e-01
2.120272778110290357e-01
1.397808948978686572e-01
1.383063402331659586e-01
7.073403092923816193e-02
1.319562904049112750e-01
1.136657663098483984e-01
1.030016196126876671e-01
1.247503498999940064e-01
8.117761450398405798e-02
8.933787197926951196e-02
1.105364372371136217e-01
5.187729354520681513e-02
6.624687477622409615e-02
7.518614419650332392e-02
7.739631086725017040e-02
1.745667977370814195e-02
4.726523176748520516e-02
5.991303978036116584e-02
1.727921235799784183e-02
2.082968407468532845e-02
4.172931342053132209e-02
5.530529365853842361e-02
9.422967195615854219e-03
4.793015650489473173e-02
-1.924305134195024997e-02
3.368850679440801854e-02
2.288683001904501246e-02
5.204270546702158967e-02
-5.672091610215250490e-03
6.271326125636471349e-02
-3.407334718031138771e-02
-3.880140379800812306e-02
-3.034179927031610893e-02
-1.474081844600967639e-02
2.227440083326179959e-02
-4.474969468123599081e-02
-4.368634439071419906e-02
-2.536598373506359499e-02
-5.320019871806710987e-02
-2.694445650354015606e-02
-7.212904602613828819e-02
-7.418440799558836951e-02
-3.267089585499075022e-02
-2.371952892153203485e-02
-6.139566238169513746e-02
-5.135305781216256693e-02
-7.205733120152539584e-02
-1.314425767262191597e-02
-6.683915523929020996e-02
-3.484601821508027247e-02
-8.435924504477039509e-02
-5.901733920981793585e-02
-3.806855332359493360e-02
-5.452121138663000577e-02
-7.308873257720192862e-03
-5.379844364710784088e-02
-5.433050462359063915e-02
-1.217367426752299919e-02
-6.501623681611919114e-02
-5.047889789081425743e-02
-3.526638833180596733e-02
1.148866007567343056e-02
1.221474719949322552e-04
-4.615513373683314408e-02
2.821210383188917092e-02
-4.019931536701662478e-02
-7.947031503830540022e-03
-5.228986801840093679e-02
-8.170766567797657642e-02
-3.262458399724573604e-02
-4.458989076306796306e-02
-4.105108558598248580e-02
-7.623719764067612981e-02
-4.843343879725187096e-02
-4.697063148299199242e-02
4.765437705842666405e-03
-3.149544453909712549e-02
-2.502333428658183243e-02
2.675509651983105919e-02
-1.367959220173055324e-03
-1.429062081961411657e-02
9.078432189052430823e-03
-1.995743744788128909e-02
-1.639526338993432808e-03
8.190871125229584604e-02
7.467202650394293151e-02
6.656200853792834660e-02
3.958869877936927600e-02
4.812411221842263082e-02
1.296986424466365362e-01
3.830651221542037688e-02
-5.921689565413203182e-03
1.076666120351028044e-01
3.725552140747030033e-02
6.258029804552103781e-02
8.230318618487719728e-02
5.040941159525868381e-02
1.821652639735941992e-01
9.188267167229759169e-02
1.604387813694957698e-01
1.576889596328084620e-01
1.049101708790485254e-01
1.139254711196407699e-01
1.369141016526584931e-01
1.291019663518695459e-01
1.072663497530165766e-01
3.174364706283445275e-02
6.306045727654333022e-02
8.616026552611485978e-02
1.051058770082078098e-01
8.114578308750944324e-02
1.201701318983843386e-01
1.253269670938400582e-01
7.953046773134292424e-02
3.698533441512914799e-02
5.543387068595118095e-02
1.104706723327432139e-01
8.023747044920553906e-02
8.513295975891835288e-02
9.112321636756261223e-02
1.131602704965870843e-01
7.319756320858311627e-02
9.672645628990281241e-02
1.594399068495662430e-01
1.857157129254309313e-01
1.787407435974766590e-01
2.260829089646662349e-01
2.500155521440100004e-01
2.760764392749958662e-01
3.706569045968042819e-01
4.358790312120086607e-01
5.185914411545453628e-01
5.661311132136821467e-01
6.244890736825073896e-01
7.067948346283242644e-01
7.829374206752038878e-01
8.585056111226450071e-01
9.370487836196015330e-01
9.653216259357038087e-01
1.079648985267198880e+00
1.063916610910816685e+00
1.077073053767489297e+00
1.085252520916448971e+00
1.068965323150948610e+00
1.087485895268545777e+00
1.062230312755664485e+00
1.035892821269096542e+00
9.692599165677645567e-01
9.502803045532446369e-01
7.954695143565924109e-01
7.726895760028438254e-01
6.937191911511312314e-01
5.731610601825759543e-01
5.323576916837584605e-01
4.079199545056446663e-01
4.033595899134856944e-01
2.971292552434458001e-01
3.050657726965863570e-01
2.196165052452062061e-01
2.159243552783487452e-01
1.312646991924544260e-01
1.496436017813948249e-01
1.008201900153590097e-01
1.076661353665239462e-01
6.299471317313326546e-02
9.327944570400903412e-02
8.209555306030894006e-02
1.289274433626545202e-01
5.748898467745622992e-02
6.240730245374527529e-02
1.421746498180050389e-01
8.732127501017362958e-02
1.195222138761168340e-01
9.458043116649261783e-02
9.011534747744068263e-02
1.456535976657647585e-02
9.346773548791564856e-02
1.005387474425178951e-01
1.295218973072190249e-01
1.003266063735568786e-01
1.197150141945403368e-01
1.335298673338995434e-01
1.030814013502350523e-01
1.816030476075024547e-01
1.261205285426337808e-01
1.685378014931318003e-01
1.022206763660777062e-01
1.485618545137265822e-01
2.017060305818706989e-01
1.613033428087079502e-01
1.857411873387224133e-01
2.330073192749899103e-01
1.172351014920793577e-01
1.863688527063855904e-01
1.859880278884892546e-01
2.295305897639512704e-01
2.073187436124736549e-01
1.942475749528611850e-01
1.888175374758110925e-01
1.903766164383542958e-01
2.211132702587372822e-01
2.363939690459262721e-01
2.383879630783009573e-01
2.319261429454778922e-01
2.310382154789998310e-01
1.929814542429130753e-01
1.938672839970141948e-01
2.112679054726820382e-01
1.851882663166789234e-01
1.317483646653154206e-01
2.714601610748048066e-01
1.951350668473655625e-01
2.178369977658336232e-01
2.062656754781312662e-01
2.020556778084133809e-01
2.024362222074919393e-01
1.824971689629588945e-01
2.101838691313819563e-01
1.590002922516737527e-01
1.424295827585469187e-01
1.721295448499863545e-01
2.153615096020253250e-01
1.697793148953751219e-01
1.584495354149699775e-01
1.733048632326181226e-01
1.466172432492687805e-01
1.258273234769272109e-01
1.657229311101582336e-01
1.848323870952353620e-01
1.661588556544523754e-01
1.592670749884668169e-01
1.663550407045558954e-01
1.081929960812240132e-01
1.066800869127148832e-01
1.040080607216978120e-01
1.136966428624903436e-01
9.007827770780758858e-02
1.107477635403420896e-01
1.038894068789485148e-01
5.729502989229520726e-02
6.117857196174361634e-02
6.571277664512133188e-02
6.956850703751865650e-02
9.471706734437954078e-02
2.618122497612539873e-02
6.066180653512912024e-02
5.489561756848190810e-02
1.910216400194663169e-02
-3.091630089342642385e-03
3.053185840309804652e-02
7.128339255671127528e-03
-1.498151045690603381e-02
1.104608475923757327e-02
3.763764732880525016e-02
-5.608279540416226394e-03
1.821003970482065748e-02
2.685707771280576583e-02
4.171592614325457526e-02
6.358663808921735661e-02
3.147189299111440020e-02
1.802371334760222849e-02
3.917093098388486905e-02
1.492172614373165826e-02
2.777906515249037311e-02
2.903129247748224492e-02
2.055113727587549663e-02
2.768700991139617582e-02
-3.176497861232512737e-03
-3.587721433391743986e-02
4.468934776245939849e-02
-2.997148041703592142e-02
1.555539788101127641e-02
-4.004093003642009846e-02
-5.217043671799816151e-02
-5.705207237747533106e-02
-6.671104239840186523e-03
1.130339930763672382e-02
-1.757024013479870778e-02
-3.198928107397792930e-02
5.244069974233361159e-03
4.041957237976175760e-03
-3.195882514482453751e-02
-8.498996874285954378e-03
-1.430725335608006021e-02
3.055143410306371959e-03
2.574711549676774250e-02
-4.357349372818129785e-02
-3.512207525759127730e-02
1.667351361994582129e-02
2.514048093156681998e-02
-3.237556142253509434e-02
1.501927057899844070e-02
-5.104790344673690305e-03
3.079923958811264448e-02
-4.583574525815976158e-02
-1.199182146039587220e-02
-1.501759470191678034e-02
2.679903552024924529e-02
4.562473426608046334e-02
-2.491809017172715024e-02
2.364977209676484560e-02
8.623322110888205841e-03
9.957696948761365907e-02
1.892976148686068699e-02
2.903129686656367656e-02
8.824839802350441242e-02
6.529649679655161187e-02
8.764114589569801939e-02
7.974366399267063255e-02
-2.867587053119704035e-02
7.103957487520709546e-02
9.683080652655585985e-02
4.145440372064855550e-02
9.444368500942453004e-02
7.326892553617611603e-02
9.331091517717662875e-02
1.463328058328586256e-01
1.120760010954520436e-01
1.017254152421340346e-01
1.197447482440464339e-01
1.127723970352561000e-01
1.804338506493243510e-01
1.350038991887699547e-01
1.134257795309722289e-01
1.585004317846345490e-01
1.022461018708922115e-01
1.467976668304287746e-01
1.723457199804665774e-01
1.033422797793343978e-01
1.544589712588038677e-01
1.382490896109157819e-01
1.631265534887420265e-01
1.117661256334741560e-01
1.363941477261876867e-01
1.465722873067183962e-01
1.403544647067882234e-01
1.731963891812930978e-01
9.635740314374235949e-02
1.236476553406658102e-01
1.314066308934545846e-01
1.747455091223284185e-01
1.476685732634404613e-01
1.558221014181914166e-01
1.172056807869860662e-01
1.293457834502451387e-01
1.689528388584559671e-01
1.680941677157505865e-01
2.261557813718619858e-01
2.104875475434602183e-01
2.491119469630040661e-01
3.344485358358701976e-01
3.547459433203948853e-01
4.130826667883220615e-01
4.473446575076471254e-01
4.819312194777965463e-01
5.974087230675111382e-01
7.166454171734205625e-01
7.575014613717532264e-01
8.369974904124343196e-01
9.160133304106028440e-01
9.694198868331233010e-01
1.057381063650069342e+00
1.114025144298428138e+00
1.143921320684955889e+00
1.119757873078454313e+00
1.150920671662640338e+00
1.152063615051804657e+00
1.135862271251880218e+00
1.102896755474774837e+00
1.093588777285096736e+00
1.033455987394616304e+00
9.499648003267555652e-01
8.424709816314428501e-01
8.685233843534951870e-01
7.562573646041917952e-01
6.506195770526282951e-01
5.992141479466840392e-01
5.382396846670514101e-01
4.912361538840664954e-01
3.750519026558943869e-01
3.089674988856888072e-01
2.972279477645887735e-01
2.368831878939953728e-01
2.650888557412253155e-01
2.012198870156488295e-01
1.691908187770360950e-01
1.759272439138147570e-01
1.420769519403379533e-01
1.410164356165114208e-01
1.339300152305053504e-01
1.427059284991798738e-01
1.612788970026138025e-01
1.311033424319140717e-01
1.665603912585481572e-01
1.103331579664875856e-01
1.602695535322742337e-01
1.758251494148729277e-01
1.551770378505329118e-01
1.560305005828544755e-01
1.227687699122613635e-01
1.605730140856365951e-01
1.469459650244016036e-01
1.697958284244853178e-01
1.581982942588626706e-01
1.766864704972516686e-01
1.758529562380019839e-01
1.655027601474432508e-01
2.144152155358172163e-01
2.345198237007157793e-01
2.233297907628936929e-01
1.734201385958659969e-01
2.111321922695360842e-01
2.528584762898603566e-01
2.235144627473960866e-01
2.473395164916133981e-01
1.986533128482045329e-01
2.805147224085885460e-01
2.617166639958254937e-01
2.359238797874720905e-01
2.409424130827944321e-01
2.335034654986234970e-01
2.738453144775748194e-01
2.853681743824030281e-01
2.541275794752535511e-01
2.300710541910247486e-01
2.654368368287453595e-01
2.845414897350644345e-01
2.586887399193625869e-01
2.696533710116361116e-01
2.722920168132084151e-01
3.248690452217782854e-01
2.705098938156932920e-01
2.852345421299048445e-01
2.757076941873463083e-01
3.017338733131780804e-01
2.243263794048897530e-01
2.309825510630447443e-01
2.417385196482578491e-01
2.554415978830130163e-01
2.303695459340084906e-01
2.579503162245986303e-01
2.904069335021394194e-01
2.665114853000688511e-01
2.080738108056582047e-01
1.987347959619505389e-01
2.221275749760938389e-01
2.486387749094988442e-01
1.842274521928423947e-01
1.560108536239825650e-01
2.072232501667694848e-01
1.865439151723329581e-01
2.289744792520980454e-01
2.240296444113763497e-01
1.683627358342561497e-01
1.989948227932474834e-01
1.214059376061633333e-01
1.638172743072931759e-01
1.745152175922540794e-01
1.003663119075334370e-01
1.760464265588038424e-01
1.947602312023468119e-01
1.381820167028076085e-01
1.438635661304288882e-01
9.444623460611664689e-02
1.410696585767378108e-01
1.270712920889960906e-01
8.794429987280902306e-02
7.156784576574899692e-02
1.267735643341513230e-01
1.181583113335067381e-01
8.610597283535473268e-02
9.233351598727061738e-02
8.930130788241240347e-02
5.320033182654938797e-02
7.041067675972688400e-02
1.094071981851494485e-01
5.901162643019464138e-02
9.709518068770432719e-02
7.044675610328871018e-02
8.468990473886456316e-02
-1.089123278208975476e-02
3.144145201756401442e-02
7.010137882128641973e-02
6.597255362541089296e-02
7.118511792311651987e-02
6.339276430475690449e-02
8.006109713551633200e-02
1.069052853675298356e-02
4.256513537077765558e-02
5.427233746927984798e-02
4.658792489750025745e-02
3.471225149663381693e-02
5.616237807860045145e-02
1.020106484349007081e-01
4.510577017550096435e-02
4.552800761023756415e-02
6.221626897055957534e-02
1.178001196767868020e-02
4.551919554010829677e-02
3.178039817646582943e-02
3.773152665789047955e-02
2.213419380776474391e-02
2.068043162874075303e-02
3.731468762258056959e-02
2.547951470167083080e-02
-1.247722049497917290e-02
5.688319139886709175e-02
2.842793815411068931e-02
2.188026492174042353e-02
2.321585019443979381e-02
4.605691313377912460e-02
1.841502978143054470e-02
5.188884046311466325e-02
7.685729605399627129e-02
4.278782048655748599e-02
4.394837544548937242e-02
8.911180944858509978e-02
1.566128972360434357e-01
4.316023417413646091e-02
5.668915911986256717e-02
1.072591444524514104e-01
9.284522116839377670e-02
1.006988646996640063e-01
5.214167104776612494e-02
7.262161280870968461e-02
8.250698845304596518e-02
8.543321823217764344e-02
9.753294411231554217e-02
1.112145957278704578e-01
7.302188763986937337e-02
5.502530862055981381e-02
1.493236055301130349e-01
1.304755064640885642e-01
1.842371906330920184e-01
8.417726541798965789e-02
1.245536199249178411e-01
1.234974943038363721e-01
1.822899678847775262e-01
1.492075827502023777e-01
1.285193633816746339e-01
2.056181222548065790e-01
1.872724455891053297e-01
1.848608828979240171e-01
1.340413726455721433e-01
1.319327630322745526e-01
1.582027651446782923e-01
2.023540574198878783e-01
1.539709825891442951e-01
1.705563677246620391e-01
2.157939665145312269e-01
1.707634884836936873e-01
1.446733218449504088e-01
1.857086789188546472e-01
1.749776940855586049e-01
1.961577138205602144e-01
1.851233916895775600e-01
2.274847536355061040e-01
2.067646920678174738e-01
1.840944603257197720e-01
2.007968329643813610e-01
1.652839913810783823e-01
1.975783021927430272e-01
1.257281923851192862e-01
1.724612405550765004e-01
2.101743462553237740e-01
1.695202378857979530e-01
2.005259267114994914e-01
1.957527964733660197e-01
2.185401435553673832e-01
2.154507442356638769e-01
2.770668096136542635e-01
3.209330889517391094e-01
2.944515682358136432e-01
2.658364571105414909e-01
3.735090688509865031e-01
3.859919426346626325e-01
4.811514382950018986e-01
6.032663542803203827e-01
6.559506204278335861e-01
7.138278502720105667e-01
7.767109352109079490e-01
8.745497894704828967e-01
9.026250595881627481e-01
1.015840788407557760e+00
1.114132749568146563e+00
1.049119491227293199e+00
1.162028117006170591e+00
1.174856507328118749e+00
1.252390063946032139e+00
1.208333802688630332e+00
1.176314204097246074e+00
1.152476337496855852e+00
1.144280649333418332e+00
1.080724930671168593e+00
1.045025758577124764e+00
9.964726286692435764e-01
8.701171759616860291e-01
8.169520125204833283e-01
7.427283549955867592e-01
6.085482396198466093e-01
5.341874596058766578e-01
4.917241647988090381e-01
4.549188145427167651e-01
3.683503332894312865e-01
4.110204935742027277e-01
2.659992093224947118e-01
2.568762082352900045e-01
2.426586122404748025e-01
2.364234052719614843e-01
1.915774012728401754e-01
1.653128252415281829e-01
1.451354264714121156e-01
1.402779322099045600e-01
8.933308413908835899e-02
1.883937653140263235e-01
1.277844627071028361e-01
1.837032759652492686e-01
1.500371857512474705e-01
1.594608123635614660e-01
1.708700641222081484e-01
2.033096342488197317e-01
1.939679905980020991e-01
1.736596290302346024e-01
1.169521379649481607e-01
1.827510322843220181e-01
2.007621123385145423e-01
2.009907125888699408e-01
2.011178499321140400e-01
1.905672021469263788e-01
2.203107416071737323e-01
2.062908194598230271e-01
2.672347193064059656e-01
2.568404677282364879e-01
2.093043460396573074e-01
2.442375937817535814e-01
2.409845649594349049e-01
1.785590717743179012e-01
2.710599185406731837e-01
3.052961739447009881e-01
2.830150416235468480e-01
2.772097567521811801e-01
2.339797398896923952e-01
2.952352488133685449e-01
3.405094741242212786e-01
3.173513663769078619e-01
3.368832950542264282e-01
2.668519072229925682e-01
3.002341103738980221e-01
3.322394923957281976e-01
3.026094096098160824e-01
2.885655221470970200e-01
3.540047229394511219e-01
3.000118367243429507e-01
3.058847959185527765e-01
3.088597718095787426e-01
3.021723835426801674e-01
2.946307837023681708e-01
3.154414749230970427e-01
3.398886902746631189e-01
2.837406927846444216e-01
2.678422242553089583e-01
2.446545686083851923e-01
2.508920058670827125e-01
2.849751554823037880e-01
2.389563059706148740e-01
2.748195438323707274e-01
2.848098169929779711e-01
1.935912118874841270e-01
2.789734560340528802e-01
2.541061101795681898e-01
2.198675323146276339e-01
2.972692684262938645e-01
2.504463269044281959e-01
2.536272622844421565e-01
2.472986158588092453e-01
1.740927365084505296e-01
2.109015303583522960e-01
2.350432651976790133e-01
1.951645644612015340e-01
1.749632128246537965e-01
1.393231937230167139e-01
1.901119137418137983e-01
1.655543679328046192e-01
1.424660678128626956e-01
1.724515890109864225e-01
2.084056305856159252e-01
1.575358955959250684e-01
1.573172864442690666e-01
1.213760340838738461e-01
7.888765135766484526e-02
9.386697674082973564e-02
1.089180647815934933e-01
1.682631884059835325e-01
8.004511326807720040e-02
1.255930554440769231e-01
1.135806629665053469e-01
1.127211506497381166e-01
1.064974336489639128e-01
7.207603431820427953e-02
1.153095076600527957e-01
8.469150320957316569e-02
7.229882019212711952e-02
5.177956272430408319e-02
1.182142508853050999e-01
4.131141486533504437e-02
9.247740412518395958e-02
5.751964144229683440e-02
9.074040593005168465e-02
9.611021550006315639e-02
3.400324707826027359e-02
4.385062473654240123e-02
5.995184176258887276e-02
4.126353573449731416e-02
1.104752782547078760e-01
5.856119191287108977e-02
4.047405635745895264e-02
9.724588605219836035e-02
1.111150623629622719e-01
1.115001234868109314e-01
8.209292680733100422e-02
7.110107347471861239e-02
3.535791068377479307e-02
4.512894719290204415e-02
6.812188870336245705e-02
8.840601368749563538e-02
4.497965812955161125e-03
2.122795101043390906e-02
6.924280606783499159e-02
6.323844373322773382e-02
5.320768956549883077e-02
6.811634305566527381e-02
1.228174096502940987e-02
6.077892106213055728e-02
6.970329489768253839e-02
5.498143362123532329e-02
1.560574676820193629e-02
5.794459058246040351e-02
7.816077854507567924e-02
3.073874116164243900e-02
6.977979564865481599e-02
4.221017773492513614e-02
7.845485414846467553e-02
1.094914226599999207e-01
6.629247666526590088e-02
8.724051837916142749e-02
1.291338718276870134e-01
9.144506655474679557e-02
1.035940405902722738e-01
1.111176145693102552e-01
1.415166468471732164e-01
1.109263023028625728e-01
6.248708049829158201e-02
1.395913147034945623e-01
6.636659952636929372e-02
1.491883342057495621e-01
1.389729199233958878e-01
1.532931967898299441e-01
1.768715311479175933e-01
1.439597815627413624e-01
1.462701433814874441e-01
1.806537941209981069e-01
1.740066170522168720e-01
1.170348629635035581e-01
1.726810378751107433e-01
1.633956764644040327e-01
1.963590769556586568e-01
1.623873435667678167e-01
1.840158744252433920e-01
1.765055436213788242e-01
1.982039977074677994e-01
2.047162213421158949e-01
1.591816824698187305e-01
2.092384190861842352e-01
2.346608575244925887e-01
1.696562518104047790e-01
2.131643523152380038e-01
2.115285167032397995e-01
1.337333927427804547e-01
1.692557180997721900e-01
1.505657206945274496e-01
2.042899450846400733e-01
1.631118050281112342e-01
1.906047437178738924e-01
1.634633321349805990e-01
2.362890326417519671e-01
2.041758289693974548e-01
1.553524822905161806e-01
1.706897891405951828e-01
1.552302695465536120e-01
1.975778624875875189e-01
1.598321020609053400e-01
1.723855785434204591e-01
2.262775336590467645e-01
2.624998558496102197e-01
2.958317349259379503e-01
3.321941650743545638e-01
3.176484487084231256e-01
4.049479526310099109e-01
4.651861439698173339e-01
4.544533066641376906e-01
6.022869918113493704e-01
6.491040957000987488e-01
6.831250792307007602e-01
8.295285549935741409e-01
8.517854639632954639e-01
8.699733578944263135e-01
9.726324021110295259e-01
1.053911502174571968e+00
1.113063960575911615e+00
1.146534343557199964e+00
1.168696339246616533e+00
1.202873999865732735e+00
1.219142859735220297e+00
1.202911105776099498e+00
1.160534129541279436e+00
1.129788888647683454e+00
1.110216752602362966e+00
9.972354258441677999e-01
9.258873278592386624e-01
8.735664674042596944e-01
7.799759632360201422e-01
7.384131417393620112e-01
6.480836532611822243e-01
5.899238986613123403e-01
5.399330423685804181e-01
4.402463996655098244e-01
3.480916399278037865e-01
3.169428773093904139e-01
2.891820003807452633e-01
2.306657807029415808e-01
2.102488597886461585e-01
1.868146970994177813e-01
1.380127381260065900e-01
2.151064886873526594e-01
1.208833598171307339e-01
1.552651495313784047e-01
1.370170438458784001e-01
1.288497365827978303e-01
1.496933960527127017e-01
1.846622500323518157e-01
2.144330785135460105e-01
1.145488757569931154e-01
1.278194195770974706e-01
1.693335724793052499e-01
1.152647219471366058e-01
1.585370499059300664e-01
1.702752378651201937e-01
2.063660040696640441e-01
2.079168189898607522e-01
1.591696904090732778e-01
1.125384120461591364e-01
2.063489141179365716e-01
2.075731513457085287e-01
1.925307890664917088e-01
2.119907211519978518e-01
2.223657655690303991e-01
1.923746294678401192e-01
2.151930347710985514e-01
1.778639302788664334e-01
2.136876997023899327e-01
2.848528427661822238e-01
2.034551127348714628e-01
2.237965677568073686e-01
2.506902853524000663e-01
2.849700119460166770e-01
2.842179153690205795e-01
2.623724161519467302e-01
2.524094910472863829e-01
2.422256070727608901e-01
2.778609731138846350e-01
2.875429154428158496e-01
2.831876203456332730e-01
2.990865224409280376e-01
2.800769077475404045e-01
2.851203877909860296e-01
2.361029114952089003e-01
2.595920305822200236e-01
2.573021687533669222e-01
2.724586090123640725e-01
2.795958110102194083e-01
2.776299562292747214e-01
3.118191381166862675e-01
2.344251759368183030e-01
2.591036953779271568e-01
2.781549641089235414e-01
2.521187973664425486e-01
2.185078939456088776e-01
2.500646014707221254e-01
1.943079795615094973e-01
2.595793628774376027e-01
2.428115866823830904e-01
2.347732671805452254e-01
2.361635470987893115e-01
2.424772867847227453e-01
2.517363811643520966e-01
2.371711256819135638e-01
2.563467032721593597e-01
1.947606035777825761e-01
1.389363900857413237e-01
2.226023160495226860e-01
1.871601307215066123e-01
1.788678768805631036e-01
1.617683785328644930e-01
1.509916746833046275e-01
1.325046231759019755e-01
1.444798829126753836e-01
1.305008361169900655e-01
9.319246297421575342e-02
1.047751777873099782e-01
1.132684982753451308e-01
1.404908947841129740e-01
9.555433057605226821e-02
1.129012756698054981e-01
6.108835809380022686e-02
1.301499669025266426e-01
6.153214324031910237e-02
8.895003230224135526e-02
9.202524051604202282e-02
9.238373623255091704e-02
3.607010102737313872e-02
3.161118962172496105e-02
8.253262672649971932e-02
5.717813910933670224e-02
5.322069293666490536e-02
8.286651542855158481e-02
4.856739964773494622e-02
4.357091107316093948e-02
5.652330151898383309e-02
5.585130820066998986e-02
1.476417779301708415e-02
4.824468061169458200e-02
7.540969920653491088e-02
-1.289804583547838820e-02
3.778808999468827312e-02
4.077464784790599955e-02
1.250553592864900483e-02
2.805265410073730023e-02
3.805262402536618849e-02
7.750174163301551400e-02
4.437993003506068845e-02
3.408574986446468932e-03
5.592637238481433515e-02
2.108967392631108662e-02
4.896190214152299630e-02
-6.612795487800270100e-03
-1.193898903693245764e-02
-9.600045095247635926e-03
1.934262426664674905e-02
1.366167957072460595e-02
6.576072711308019077e-03
-2.492185791454069183e-02
2.799028385748567743e-02
-2.016646908628732041e-02
-1.351018255268298177e-02
2.448168606426080404e-02
7.205033526721588144e-02
3.755891396835339680e-02
2.531511966883453341e-02
3.163001898159145675e-02
5.997442110642851182e-03
2.108528338933015472e-02
3.123372578776449984e-02
-1.161529423038362881e-02
1.641831534410526441e-02
4.050586016343780960e-02
-3.443799264759323658e-02
5.552314961123001880e-02
6.406473832012726799e-02
2.171400260696248682e-02
-1.049230495636544087e-02
4.873375895877688629e-02
5.384790870125503309e-02
5.245528931672551604e-02
7.837674177674167075e-02
1.231121161785767304e-01
1.088949325154612846e-01
5.272022374699888297e-02
6.202413875917811570e-02
9.696146722877789503e-02
7.619914861700560760e-02
1.201649397371101630e-01
1.506240147909371219e-01
7.409271766009332960e-02
1.250252232214004722e-01
1.228955404123115852e-01
1.270333834030345221e-01
1.201762216092406022e-01
3.192057197479782060e-02
1.472482757348766158e-01
1.244968345807885707e-01
1.888826960081985140e-01
1.281160051394731603e-01
8.211998797285736951e-02
1.173059434095668208e-01
1.446545954837180903e-01
1.512274109707886227e-01
1.584284775710743665e-01
1.141252954286463839e-01
1.533140088731647921e-01
1.512831234862868357e-01
1.867116537561012424e-01
1.380796137392660272e-01
1.880646871753425819e-01
1.176028468506506719e-01
8.274501706961895353e-02
1.458357335105801011e-01
1.577337155886259779e-01
1.157195421747987674e-01
7.389602167210772288e-02
1.283162650154130724e-01
1.081395219670813340e-01
9.658733948272112124e-02
1.634506951206457226e-01
1.507878158878275809e-01
1.299811231461628358e-01
1.819832731753923960e-01
1.804023075171863333e-01
2.021878655702378236e-01
2.158619900874130804e-01
2.514268114614237604e-01
2.880414015410521777e-01
4.098568593500385160e-01
4.180083088965648175e-01
5.290169208492228048e-01
5.992859974558993885e-01
5.921152604757429216e-01
6.773956013309017088e-01
8.060812811327454641e-01
8.753566033534753155e-01
9.181356973657139875e-01
1.007064521574039029e+00
1.083462050279341282e+00
1.116663096727012139e+00
1.101820630161110204e+00
1.158661268363793351e+00
1.125482436636033201e+00
1.163653224066594882e+00
1.129126838180900760e+00
1.083939070477631272e+00
1.034939410265051984e+00
9.688623769684532316e-01
8.900451512840815704e-01
8.317082672973462598e-01
7.810900388500725544e-01
6.899675415121777622e-01
6.084452876334345284e-01
4.948500821340847122e-01
4.735063620957342678e-01
3.905531641470700865e-01
3.114543635729223880e-01
3.156449933335395142e-01
2.781452607325578530e-01
1.820918834260018548e-01
1.615105310011958617e-01
1.548331462316921148e-01
1.208591030169147429e-01
1.246324444832343087e-01
1.242246195981050461e-01
9.631505127773473673e-02
1.252656663881121235e-01
1.382745624001419926e-01
9.702524850484885166e-02
1.521842383735349802e-01
6.003639228880752743e-02
1.160584694042934989e-01
8.813876502976805694e-02
8.987522563768177153e-02
1.216731105837067367e-01
1.016663693740295776e-01
1.225168937510187628e-01
1.577689929874173114e-01
8.816788417712530246e-02
1.192637757528405978e-01
1.163971736141914681e-01
1.276521457826048644e-01
1.150133076317608471e-01
1.306348986104113041e-01
1.512233113995012646e-01
1.878043528699288034e-01
2.180378821354337082e-01
1.622047086333348598e-01
1.289232961635117525e-01
1.904166037442957538e-01
2.075145824633861102e-01
2.119860473064555662e-01
1.809437271382699497e-01
1.487906756196436253e-01
2.059550817586439375e-01
1.998956590807925982e-01
1.885005076097724386e-01
2.308223049065628030e-01
2.365342538410721285e-01
2.266381459303952739e-01
1.864507341460408252e-01
2.102063807813118190e-01
2.582866743725902858e-01
2.427466663951476922e-01
2.816665499774404502e-01
2.249553797861971460e-01
2.472151353189528389e-01
1.920787560217185885e-01
2.023873783494675449e-01
2.104567477661201946e-01
2.388323262850209627e-01
2.199950755430066240e-01
1.681112287385467252e-01
1.623582251121106768e-01
2.109676816171862368e-01
2.193970980743541466e-01
1.572440482418677177e-01
1.574806539783865367e-01
1.910813145645313960e-01
1.553465876318964045e-01
2.130081757419134414e-01
2.113924754009073592e-01
2.114279605732584111e-01
1.604785716221028835e-01
1.331877357522149585e-01
1.180182399169623364e-01
1.786058978382459028e-01
1.661010787853309800e-01
1.048541335946134717e-01
1.295859160310799951e-01
8.371978946041333525e-02
1.439373449245102132e-01
8.802116509312485348e-02
8.903003474810189388e-02
1.081592636715429656e-01
6.782546831215038874e-02
7.811426130961462988e-02
9.544567002871268135e-02
8.067812054697118263e-02
5.932535649155971230e-02
8.819136443279651516e-02
1.117494808560285935e-01
6.056060966361858505e-02
5.874205829921105154e-02
7.255859698238181776e-02
5.183958509246212876e-02
6.259311702458647542e-02
3.366781983626816743e-02
-1.621777829849246205e-02
-8.132265586389228473e-03
3.070306840397851039e-02
2.242522219251550514e-02
1.434271854889911102e-02
-1.198827451544105804e-02
1.819963955870297634e-02
-4.599520599922740649e-02
1.153118682169158860e-02
2.037192704098635121e-02
6.559082379522027106e-02
3.787411200737739875e-02
5.846432673047117362e-02
-1.335789247005288172e-02
6.190066242790184803e-03
-5.281250163132297781e-02
-2.751854949243779866e-02
-2.069862240426395203e-02
-4.108624981421855893e-02
-5.313497104658151948e-02
-5.625955980290071878e-02
-5.755024909094276497e-03
-9.696563224671651826e-02
-2.856588846808323992e-02
-3.389735162107600230e-02
7.671878629984668629e-03
-1.396807953006765080e-02
-3.021436995647566043e-02
-2.113275192509021447e-02
3.288926164296004928e-03
-2.622777421999969091e-02
-2.757217423239987503e-02
-3.100067779851574390e-02
-2.275386209837977625e-03
-6.903376730013154050e-02
-7.797373153887718344e-03
-5.577381377613441216e-02
1.839613117617659027e-02
-3.005303141123353422e-02
-5.681362405259161169e-02
-3.555371781059866315e-02
-1.590274766240101778e-02
-5.174199440575528997e-02
-1.531447536229295359e-02
6.599498190078312287e-02
5.042910727675049831e-03
-1.966704803354258832e-02
-6.706384452852225120e-02
-4.519974599985326219e-02
2.739606880543199452e-02
2.867109161768560677e-02
6.657179541124880195e-03
-4.556044688330133235e-02
-1.114239736542630560e-02
-1.825009434578023573e-02
1.284410949569891880e-02
3.410829930011326228e-02
-5.831811963958340866e-02
-3.064091930653853324e-02
5.323138031660801239e-02
4.914456290852833864e-02
2.383802966698596315e-02
3.123803608172329160e-02
5.203286811003646206e-02
5.136269573596287386e-02
4.866431643709918931e-02
2.292104078940818135e-02
1.115346326359336476e-01
6.178973783884030707e-02
7.324693478044881634e-02
1.152460903579329982e-01
7.933322420113472773e-02
1.446010280485813260e-01
7.064781120713309326e-02
1.027454156951379816e-01
1.550258422602778519e-01
1.057578787567460404e-01
1.076032780579103676e-01
1.000950213665127153e-01
8.633813919647506663e-02
1.389441449723808897e-01
8.760679261250453598e-02
8.627459940636840463e-02
4.103483184225842351e-02
7.296682452941238850e-02
9.185697293069469693e-02
1.389645707597723934e-01
2.512857548731592394e-02
8.611103130538133588e-02
8.508483298088265201e-02
8.956695221523167105e-02
8.865104019096617383e-02
1.090731333976367734e-01
7.273004122637281854e-02
8.058875692420752745e-02
1.057648481432338639e-01
1.223533121416524316e-01
1.629401207724522072e-01
1.493982322737781032e-01
1.798233273582145464e-01
2.086853434546320218e-01
1.883338185356195071e-01
2.810534243012607902e-01
3.646493965369650425e-01
4.066727559684654159e-01
4.398882032383544249e-01
5.084143903748017390e-01
6.137005701571079941e-01
6.426383461294938870e-01
7.639505135238657818e-01
8.478261132338794637e-01
9.292064406106900210e-01
9.767008384264326271e-01
1.078498762535074151e+00
1.072625546096225291e+00
1.086840291868220065e+00
1.121262752856762912e+00
1.094830730113263151e+00
1.132613447739009960e+00
1.093989358154162650e+00
1.055137816260375283e+00
9.739114028593105488e-01
9.598050212518410840e-01
8.344545244279321095e-01
8.243580647561624675e-01
7.578914139982142473e-01
6.889532476809681061e-01
5.584053465989352594e-01
4.676065001821962941e-01
4.706110033843613483e-01
3.691120019455508827e-01
3.300219712343075429e-01
2.403057020640473884e-01
1.982720670675476027e-01
1.226131726638060304e-01
1.485186050365477906e-01
1.238014079464046513e-01
1.480898092567120294e-01
1.374095824312694392e-01
6.313406879542951544e-02
6.628330747655702959e-02
4.953940703150826186e-02
7.785129540896253142e-02
8.386132897847786705e-02
1.000090025417280093e-01
8.787242081700788465e-02
1.438523189113483092e-01
1.217271705562115447e-01
1.100942356556930124e-01
8.685652386344924758e-02
4.748787892195164423e-02
7.405598722263236067e-02
7.626100652600881213e-02
8.245735257000599838e-02
1.100551988042312856e-01
9.981994964453508312e-02
1.221951042884540650e-01
8.401792873192540090e-02
1.081994320295655287e-01
1.031604354974557380e-01
1.769538307151866108e-01
1.793315859119598565e-01
1.777370069217452941e-01
2.002367558254991853e-01
1.641916998957272666e-01
1.915377948039952150e-01
2.036112699674363369e-01
1.561792385014093565e-01
2.203030789446080995e-01
6.857875938412437422e-02
1.837905326740936207e-01
1.646879300044030159e-01
1.307627989724740869e-01
1.347393748364418553e-01
1.934717200692714356e-01
2.539015959149311108e-01
1.623074164787966511e-01
1.961423146961029651e-01
2.282010347538526163e-01
1.798799143371798415e-01
1.434134334389032817e-01
1.703775023087503171e-01
2.087226141632208543e-01
1.724787074901895922e-01
1.559073276193996271e-01
1.879789995166977756e-01
1.655427715976168224e-01
1.678686204521333269e-01
1.794651431537973851e-01
2.057597434893212451e-01
1.730596460914485546e-01
2.121362559531755898e-01
2.063500542378514380e-01
1.676093186238684640e-01
1.051408006866848821e-01
1.929588468958064185e-01
1.618111769528097765e-01
1.732267175403650883e-01
3.691575727201103219e-02
1.187211051210090573e-01
9.357753638833590792e-02
1.171068444827204347e-01
1.595494618821224619e-01
4.793022506667794780e-02
5.786869203473883616e-02
9.865025055897909401e-02
7.971742365354252124e-02
1.153525322129718977e-01
1.317304322060197652e-01
1.686458485978720723e-01
9.136996040842096378e-02
1.178631593123774246e-01
1.946936497600346150e-02
6.392395618171869964e-02
4.805822353682900894e-02
1.794336707792652114e-02
2.262291502022342055e-02
3.137514905410586363e-02
3.405723913315077817e-02
8.117754529472567815e-04
3.345531515607701178e-02
6.223522404611688680e-02
-1.248823921341554732e-03
3.995684738446213247e-03
-2.281398433376424090e-02
5.606430270687542960e-02
2.599094179909473140e-02
3.664964309869947479e-02
-2.398466709908416220e-02
-8.955432736882242006e-03
-2.781531795441386998e-02
1.458504026723826674e-02
-8.514989036909829945e-03
1.191170050134019581e-02
-8.104674864315611349e-02
4.045859536941528306e-02
2.844975555377704524e-02
-3.496850614322866146e-02
-5.800100322938574193e-02
1.335727550353943416e-02
-1.664904100553592226e-02
-5.816461309071457864e-03
-5.802043916069420104e-02
-2.908231578430569772e-02
-3.284223200563101547e-02
5.317696116387819749e-03
-1.314603286333615451e-02
-4.829618535436300958e-02
-4.700488782126115150e-02
-6.344823570478916319e-02
-1.561312630683748398e-02
-3.171819694392583044e-02
-8.629115053941553704e-02
-6.992888635928556917e-02
-1.082305110349175009e-02
-7.705858498869655460e-02
-7.123803572361842029e-02
-2.862154629202467992e-02
-6.675021148490369038e-03
-1.823548639457309856e-02
-6.069871993171561259e-02
2.566592827059705623e-02
-7.450064236539412355e-03
6.325207665292265080e-04
-7.647968306180896736e-02
-5.494251735482760801e-02
-3.020621089854536034e-02
-6.926611089949152866e-02
-9.273204362014783597e-02
-3.250118802473774687e-02
1.098678432051761189e-03
5.638013768131319714e-03
1.749812480986718405e-02
4.007944989892697762e-02
7.178524689473858578e-05
-1.246634848519590638e-02
9.893741577230365236e-03
2.497661175075453072e-02
-4.082487298668828479e-03
2.094096551822964558e-02
3.330385802551987656e-02
4.254201185900836207e-02
4.079263103649821004e-02
7.705905284690245383e-02
-1.773419375690310495e-02
-2.672192447506285817e-04
7.295709704960358366e-02
5.767925673766327588e-02
6.188286100567116227e-02
5.566772774044111138e-02
8.143086371670096857e-02
6.284389870044146398e-02
3.494815360348204475e-02
1.012318483723455426e-01
9.007104605872374992e-02
1.379862669917616969e-01
1.002898679274094318e-01
1.272449425232919928e-01
7.071876614812100392e-02
1.884346325853633874e-01
1.084889897356811628e-01
1.303886431063104867e-01
7.089887638724309826e-02
9.462999656678949822e-02
1.492956599719961197e-01
9.063356442833880866e-02
8.966300080467877465e-02
6.961952299629699248e-02
1.250317194679143040e-01
1.247165762762069419e-01
1.438486706151013428e-01
1.129102759198516992e-01
8.943269329564587644e-02
1.211959536474899179e-01
9.816705820403823224e-02
7.552913972201863446e-02
6.296493658372451230e-02
8.160805893845685111e-02
1.446122265211596536e-01
1.507632673466655915e-01
9.939147003827258908e-02
1.832477803541808226e-01
2.178875076529390165e-01
2.481022062065050826e-01
2.588187462028348484e-01
2.837493708103442924e-01
3.616646328527308718e-01
3.762187017934069955e-01
4.268664344741481265e-01
4.900102741862751299e-01
5.978617140870109425e-01
6.874028787830068765e-01
7.646854741153282786e-01
8.286724203873355732e-01
9.083813618082012820e-01
9.731701908001914036e-01
1.046431609090592074e+00
1.054372937081890838e+00
1.107175548419421451e+00
1.168126412838458972e+00
1.151686093677285250e+00
1.114219151486544934e+00
1.124299069609203450e+00
1.060410400182595358e+00
1.030062417471941272e+00
9.635850366797887867e-01
8.725866989957241637e-01
8.588824325174660990e-01
7.508610709800893623e-01
6.691220927985089828e-01
6.034373717837244744e-01
5.527169001097310685e-01
4.353323008844282582e-01
4.196318494085521378e-01
3.787946069784821623e-01
3.163125072859462872e-01
2.357586646205850067e-01
2.470570013537700393e-01
9.942033571341427067e-02
2.016284595946000180e-01
1.300548586972491705e-01
1.193137181700154592e-01
1.453712506010857441e-01
6.105540186090525900e-02
7.632001430404607156e-02
1.066917483877113937e-01
8.073050066750084297e-02
9.738752966173748471e-02
9.713543817581907214e-02
4.529642538886856362e-02
8.917808863430982946e-02
1.138283260822912368e-01
9.343838604442369911e-02
1.614153603054166719e-01
1.061024690846946034e-01
1.307695763962311020e-01
1.563367285482747115e-01
1.176276768712779253e-01
1.550449330560433325e-01
1.182174132241095438e-01
1.069471215883202875e-01
9.695004405104180878e-02
1.843252164662066428e-01
2.138266620908509108e-01
1.889273644539027353e-01
1.790205335490743233e-01
2.029114728412765301e-01
2.406525109753922531e-01
2.028105689577663906e-01
2.370111105280698349e-01
2.135061912505092918e-01
1.709134149390216795e-01
2.037784521228140355e-01
2.043664358772345480e-01
1.724151291877054071e-01
2.064527867168687025e-01
1.511730688517802512e-01
2.007678644670717882e-01
1.690616826603965894e-01
2.110735734405719821e-01
2.909082867842550657e-01
2.590887609497874444e-01
2.196656308498234345e-01
2.376941904713595621e-01
1.988961935788528534e-01
2.059928643145394478e-01
2.982886957579812259e-01
2.208136103670690353e-01
2.013998527567537611e-01
2.112984180782911947e-01
2.573164062547906861e-01
2.465988914767761053e-01
1.850671843689946638e-01
2.128579271290477193e-01
2.372922104727653581e-01
1.733824709994309099e-01
1.768227683361756619e-01
1.875382771404904558e-01
1.669649209908244947e-01
1.802677301316023550e-01
2.009570352137081128e-01
1.614913768580110431e-01
1.712726497739039955e-01
1.926141437117468991e-01
1.760609686560993259e-01
7.192863736334811908e-02
1.878659676382902766e-01
1.784768618743274304e-01
1.144295899616455253e-01
1.611380734830294981e-01
1.271211767271093751e-01
1.391766968357515122e-01
1.051056210851954165e-01
1.367789489080313836e-01
1.088937986924755907e-01
1.154477215655184963e-01
9.107402763558215819e-02
9.656861566948837794e-02
9.739243414509551888e-02
9.889175053896284706e-02
1.233607364059724071e-01
1.048008382495115021e-01
4.844254174863866363e-02
2.934662404864950627e-02
-1.941269802559824828e-03
8.434536484952150082e-02
2.646710880191938120e-02
2.477972761908596097e-02
5.233973958348962091e-02
2.305757396038386406e-03
6.954163834875415340e-02
2.616431044442409093e-02
2.235729012284276909e-02
1.362294612028101641e-02
1.393481138146124981e-02
1.634417742872186843e-02
-3.282726028821789793e-02
1.448270456990834176e-02
2.909793399429994043e-02
9.757731237476348352e-02
6.389626267728167053e-02
2.337233780699090116e-02
1.073101412912100608e-02
-3.230262321289670974e-02
2.202137689990118358e-02
-4.514942248414539894e-02
-7.753652241255432932e-03
-2.156571059505770979e-02
2.039170588324383526e-02
-3.517339592291367223e-02
1.642781300774109193e-02
-1.802997478409451224e-02
1.231805124055258133e-02
5.289544258873868712e-03
5.061849792444520629e-02
2.109845932076117800e-02
2.494191717506860639e-02
4.034292561514159908e-02
1.310822109796220582e-02
-7.266279350614990307e-02
2.521785622508248767e-02
2.320451575234275254e-02
3.046417173959281924e-02
2.070597031082586567e-02
-2.718260491808736218e-02
5.808051233221919046e-02
-1.594519386300584027e-02
2.681992952664298546e-02
2.150844112513821023e-03
1.687993321371977426e-02
3.041247575153891575e-02
2.897641134168828236e-02
4.005831187445460691e-03
2.161045215126914526e-02
5.892233342615962877e-02
6.821897467415481697e-02
5.015185318145220367e-02
6.154630069490039240e-02
8.449196664700980852e-03
9.607110928942504124e-02
5.924841095552094150e-02
9.185893112574031183e-02
8.222425036068044257e-02
3.258640882167136016e-02
7.037064927866931718e-02
1.046695090766676384e-01
1.192223935458986833e-01
5.399726232462852271e-02
1.521587306777793247e-01
1.026523313442537499e-01
4.375388140423109445e-02
8.511921890602255902e-02
1.121242966379671080e-01
6.369609444659279918e-02
1.380235285508685794e-01
1.238487361488856686e-01
1.546593202277193879e-01
1.779508007109181500e-01
1.543108395507505337e-01
1.396831501836519052e-01
1.412919862303682328e-01
1.674105773447011336e-01
1.775819911976048715e-01
1.115631490285727001e-01
9.754582753078995527e-02
2.186863765641090807e-01
1.800804354769347526e-01
1.678306369829031808e-01
1.981044531470761150e-01
8.864087801926318066e-02
1.551478165461930292e-01
1.477074494010136851e-01
1.767662978281560882e-01
1.365989625192138568e-01
1.168548631464846471e-01
1.857481994091076949e-01
1.396870014280719718e-01
1.930618615243754888e-01
1.278570541753275003e-01
1.747532541657204619e-01
1.694350695913266203e-01
1.559925967312591200e-01
1.626880194438229399e-01
1.962515756074954543e-01
1.955674080082007438e-01
2.193456791119307581e-01
2.859038603396070188e-01
2.854897519584232435e-01
3.834133796561199348e-01
3.650525067605367990e-01
4.108920737560347591e-01
4.685023481968113024e-01
6.095643820172800265e-01
6.375074969638735434e-01
7.246841853259655686e-01
8.728077161926501848e-01
9.300553599100579438e-01
1.030684948018594227e+00
1.077403002597498327e+00
1.080287647107532889e+00
1.163150030091363529e+00
1.145575071282925794e+00
1.234581587286222248e+00
1.211487327228778721e+00
1.150644647838649171e+00
1.162257859820056360e+00
1.122025630961242859e+00
1.103207328127447262e+00
1.034653623565331637e+00
1.001584077945036233e+00
9.121356304814202121e-01
8.247537442477410607e-01
7.572103935030175537e-01
6.837842452659906867e-01
5.673807319271086946e-01
5.377088525802423691e-01
4.922371242100315736e-01
4.006505296063497812e-01
3.808717617464624228e-01
3.045786404502384692e-01
3.189268894951972078e-01
2.414245452807400882e-01
2.040560172538568029e-01
2.263482724780620792e-01
1.976465567413800140e-01
1.590150100622812479e-01
1.550220138179300711e-01
1.642398434367181026e-01
1.144250351156768097e-01
1.345602174564853037e-01
1.374460481134805456e-01
1.360406988955991658e-01
1.977823507174457374e-01
1.721297792904834256e-01
2.005798897487873766e-01
2.029536376102842044e-01
1.483336489138409042e-01
1.721682944618017075e-01
1.566299919036920618e-01
1.360348515555071247e-01
1.889143304138765356e-01
2.606358041322105468e-01
1.492369022027835723e-01
2.271002286028808437e-01
1.681713896020685939e-01
2.080070162723377525e-01
2.172246051681476775e-01
2.128485815309416884e-01
2.264022608548357240e-01
