1.377809775719301300e+00
1.349120886737901870e+00
1.291841589686036684e+00
1.204748174273733152e+00
1.207524930524420004e+00
1.055211540218828681e+00
9.476602387709190944e-01
8.881412219599240654e-01
7.281242945209318584e-01
6.857570814100305556e-01
5.897178406682586083e-01
5.017002064004876249e-01
3.977616320765101077e-01
2.799812210154226100e-01
2.411689801822255452e-01
2.423078927827475582e-01
1.767265878148288616e-01
1.979605789280829975e-01
1.515779296701921519e-01
1.356805659129083075e-01
7.763786921562411403e-02
8.890304674619214920e-02
8.287913906490253224e-02
9.900648732511665995e-02
1.056338557134809952e-01
9.107710853627121184e-02
1.094040354086873584e-01
1.139206823304161620e-01
6.712259386290067575e-02
7.275329185674338228e-02
8.447284772940764908e-02
1.075949373893965166e-01
1.083560349196446282e-01
1.299639315378454396e-01
1.282366458658779629e-01
1.617622679023259236e-01
1.836462489420584987e-01
1.706850942696253870e-01
1.630632694348046474e-01
1.260227467125580036e-01
1.783310619090155147e-01
1.628827128832187332e-01
1.291417877577930029e-01
1.706406243037564552e-01
2.181154219749237844e-01
1.664919594923560675e-01
2.224771091077014373e-01
2.406083073982391018e-01
2.403501079199168167e-01
2.262388732947799574e-01
2.054897929206814522e-01
2.255352396747516419e-01
2.324852533387686271e-01
1.766085337481371753e-01
2.919458881629247160e-01
2.131434686398118727e-01
2.458777423669512574e-01
3.079251306263499077e-01
2.298641803261732286e-01
2.325366274878746531e-01
2.057881042337489363e-01
2.682296181326943585e-01
2.369252673752024752e-01
2.506936700494047932e-01
2.714952409553871848e-01
1.998593982451805917e-01
2.438595750926863259e-01
2.081547755205702677e-01
2.721784614058538332e-01
2.193243622820414129e-01
2.717199096394702917e-01
2.103382395804651028e-01
1.977517082052111796e-01
2.475693141070240133e-01
1.719920480228272486e-01
1.729149185903805508e-01
2.092250041610886624e-01
2.405099558070070420e-01
1.846439120072825013e-01
2.470404875214527451e-01
2.029309627411976791e-01
1.731669189055393410e-01
1.576442548873789873e-01
1.567846994889633139e-01
1.248530828741389043e-01
1.456773999204762360e-01
1.428836354491282434e-01
1.570944704235190115e-01
1.152709456843836605e-01
1.342491326438574328e-01
1.976895790935259412e-01
1.371673007360198482e-01
1.060013458543817566e-01
7.404315233402453122e-02
8.448166921212836578e-02
7.318568308476564033e-02
9.765993207465714643e-02
6.309103694466891565e-02
7.025496995418253898e-02
1.287857193046468979e-02
-8.572230526349694860e-03
6.558070313188374412e-02
6.219011065793260407e-02
9.215593725330195607e-02
1.781204063572403018e-02
-2.100871564989941626e-02
8.881281228765868646e-03
2.900612360699925119e-02
5.311734425942030158e-03
6.666645170136311846e-03
-1.436485545703192722e-02
1.695635804777727990e-02
-5.922318334144761540e-03
-8.334902924572226007e-03
-4.332935646234539404e-03
3.067192492158567207e-03
-3.059917805278907985e-02
5.439029422316121742e-02
6.020039638083339584e-02
1.023555822841740702e-02
2.164752370860046835e-02
-2.639916728941616580e-02
7.655781187005210320e-04
-1.327328769862645176e-02
1.942943744423501068e-02
3.338707185203186600e-02
1.945196714476709124e-02
-9.589191726033218302e-03
2.830525241275674148e-02
3.575979988938376292e-02
-3.486732155013294587e-02
-4.618562899934022803e-02
-5.146074751169965253e-03
-2.055996031377696487e-02
5.085474744033641539e-03
-1.853438948185660851e-02
-4.067569244471626322e-02
3.803276621095216109e-02
-3.168095676013008011e-02
-3.274710909538910975e-02
-4.744197250627840007e-02
-6.826524993178484380e-03
-2.259612836021072935e-04
-2.406576099738925306e-02
7.603316849125022620e-03
2.003436135929560075e-03
2.512878748720058161e-02
2.312881945375504927e-02
5.218740906369695454e-02
9.402570711482965277e-03
1.122627859515564971e-02
1.589968388902339089e-02
2.631682548739768673e-02
2.931719651956451664e-02
3.135918537212610546e-02
4.633792537985857718e-02
2.643411332512189682e-02
4.916435499392167452e-02
3.960544532481435898e-02
6.262565497600146303e-02
6.030827020818235740e-02
3.316588557686343808e-02
8.465646225711456752e-02
1.178221949650516687e-01
8.110856009586714377e-02
7.363191529464278851e-02
5.249759809734751148e-02
1.836702976070522519e-01
1.153707165408346391e-01
1.212732456658834890e-01
7.847118647621829923e-02
9.026667518155544190e-02
1.522140793534297876e-01
1.113635363429085340e-01
1.542997434804088686e-01
1.526158797063325301e-01
8.661560962191952595e-02
1.645625985449593043e-01
1.787902974250317467e-01
1.322930110828572925e-01
1.085317478355685983e-01
1.013525789278031386e-01
9.855115873331840581e-02
1.219467597976684053e-01
8.879277834482056375e-02
1.230816242886325212e-01
1.209931996729261411e-01
8.936754090542863016e-02
1.172086952402759952e-01
6.434116395118021081e-02
1.239069013327613183e-01
9.293733147722225973e-02
8.578595552602717722e-02
9.538019868219053954e-02
5.701684185169214603e-02
5.841632371072369434e-02
1.043624894086286337e-01
1.139376163282357773e-01
1.280207381772074382e-01
2.029967237337353680e-01
2.075161328778994119e-01
2.756613434350158043e-01
3.708576822375215798e-01
4.026369489132878288e-01
4.286452701392701736e-01
5.908490580408010118e-01
6.800981551357452304e-01
7.762686707704785638e-01
8.665842916838155663e-01
9.865893789140603998e-01
1.044201422479122288e+00
1.138006427909649787e+00
1.200841727744545784e+00
1.285371082152956923e+00
1.226776664723764343e+00
1.293266434619864791e+00
1.277448749672639217e+00
1.247446074705364838e+00
1.148328259933055318e+00
1.119686916834735646e+00
9.748146037996568980e-01
8.833124798341575046e-01
8.156191459881434458e-01
7.211990709291168367e-01
5.575751541075759654e-01
4.818170026752899848e-01
4.811371275547441928e-01
2.550707637317140009e-01
2.472233515863526132e-01
2.550308737544330628e-01
1.155233147570045582e-01
1.875111013220691347e-01
1.256094265675643806e-01
5.956580815761195608e-02
5.737517400127033207e-03
3.285539386735315120e-02
1.799626946328250487e-02
2.379342045501040004e-02
6.089194509590829113e-02
2.482990486566279131e-02
8.628454754337014365e-02
4.842815500976314913e-02
3.695048836178031759e-02
2.096929497577663254e-02
4.582698924483950137e-02
3.708841451272631984e-02
8.741611887558503602e-02
5.602080394421447146e-02
5.818280722883791695e-02
1.205402864848517663e-01
1.163009458772586574e-01
4.953981487088462282e-02
7.193476525242467612e-02
1.398994399130479849e-01
8.028992973022233692e-02
1.082732028893310106e-01
8.594913684561475420e-02
1.254777089996048367e-01
1.465374784010095299e-01
1.027318412206352921e-01
1.486973980313095467e-01
1.982313295786344021e-01
1.610314660862572911e-01
1.641507296783480674e-01
1.938676471920560140e-01
1.763001120842099534e-01
1.987796955847965785e-01
2.185140488112319868e-01
1.753704188520470719e-01
2.180588624287162769e-01
1.579243225013858831e-01
2.336010526961303513e-01
2.148235842421662989e-01
1.442515045096626758e-01
1.932750352501543256e-01
2.116202128989316533e-01
1.908566657902235342e-01
1.914408215129390634e-01
1.678375106684378837e-01
1.913882109842120205e-01
2.132395643397234919e-01
1.905590991061355821e-01
2.440154329927649579e-01
2.013691826761697667e-01
1.758770754701792782e-01
2.262924527047258938e-01
1.881473680189860442e-01
1.300193990121894516e-01
2.171017842299195477e-01
2.121454035310725295e-01
1.713989110853620101e-01
1.751243123864335283e-01
1.388353581341453813e-01
1.693050146570117265e-01
1.006179058153470196e-01
7.470870899484881311e-02
1.394619554180323573e-01
1.307831542456672769e-01
1.025746698222804870e-01
1.380577509095572974e-01
1.204102486316619841e-01
6.604401478033219974e-02
1.042126189464771813e-01
1.141986758211019637e-01
8.250205838067681263e-03
6.543898673946468847e-02
3.573513537394439055e-02
8.719943476916615366e-02
2.026764509985579110e-02
6.885541300096090223e-02
5.000821507092798740e-02
-1.998456214559540811e-02
1.872556891930365203e-02
6.535176163459818777e-02
1.274479743323302799e-02
1.123128508922395519e-02
5.254738465839135092e-02
9.267009184496202701e-03
-2.808801174908395759e-02
2.930191310974605834e-03
1.133178496814768454e-03
2.172392044189187105e-02
-3.586716410470475180e-02
-2.066998459096807891e-02
2.727936529473327237e-02
-7.261270756598384168e-02
2.364084950458614914e-02
-4.503740286393874415e-02
-3.441072602832953575e-02
-2.864505513943976442e-02
-1.167117507619686023e-02
-6.270457199223243572e-02
-8.994612644534602519e-02
-7.261639939111931563e-02
6.614194138475644469e-03
4.769548334934883838e-03
-1.420646537260109032e-02
-5.567665479803571987e-02
-2.852495477267127238e-02
-5.231766610491805219e-02
-6.906238221187251114e-03
-5.015462940343915627e-02
-4.745989306769525518e-02
-4.635262101878798169e-02
4.177355467208813955e-03
-9.790142259566712857e-02
-5.167895371839701518e-02
-7.314231615534039221e-02
-3.438439901839794588e-02
-3.876058201697482608e-02
-1.384315774125012555e-02
-4.776748507993044263e-02
-2.819902699251158537e-02
3.048079066554519601e-02
-3.535364431349503206e-02
-7.969249527636350361e-02
-3.247005479283861240e-02
-9.835487890141780820e-02
-3.997447305485261893e-02
-5.250947789687583633e-02
-7.178954219198900588e-02
-1.907031775091869163e-02
-7.167382015307290077e-03
4.963188766120497919e-02
-4.286487218595700505e-02
7.547755009983059260e-03
-4.580056729811141092e-02
-3.111504996148592092e-02
1.593250340061316134e-02
-5.418525376291796758e-03
6.384692810503175830e-04
4.343876245592522001e-02
-5.870172746485474019e-02
2.064468770122224184e-02
6.627176093185797867e-02
1.512057576717880381e-02
2.300820875507099406e-02
8.634755955071615752e-02
2.671701265752553928e-02
4.106341647145908547e-02
8.126265198822332780e-02
8.747620262913191613e-02
1.402095923423712226e-02
6.789993374282111971e-02
1.007067334979510898e-01
6.991208021661457495e-02
5.753649086904976534e-02
7.635395069423550618e-02
4.908432604235449248e-02
8.047959827701342550e-02
6.018455970001301836e-02
1.199772096376292563e-01
1.292148284634140887e-01
9.474216840194292499e-02
7.705978915415853669e-02
1.108185560092892624e-01
1.205284132212142700e-01
1.280772894945693685e-01
1.606977074407158479e-01
5.187220965807304296e-02
1.084395243548700594e-01
1.145091063101137396e-01
3.979733453497157070e-02
4.043919108620014358e-02
8.931521797126536211e-02
2.451423930808990792e-02
3.220947607008830399e-02
7.129391498294267160e-02
9.026018617406773858e-02
5.469210059000476076e-02
9.097705459536004069e-02
2.359831975662499137e-02
1.222004054309299148e-01
1.256707829161301804e-01
1.712743306209958960e-01
1.218249163907434984e-01
2.309847246779744290e-01
3.725184640527858804e-01
3.779631629862466036e-01
4.860628557316384324e-01
5.397714933410350246e-01
6.117789213462710984e-01
7.337631532577548743e-01
8.484945056435154731e-01
9.110231842146859771e-01
1.055436982695639792e+00
1.158352805481560832e+00
1.255919569521154022e+00
1.212307393956504775e+00
1.247723635816355259e+00
1.280181169029562804e+00
1.256306508573234781e+00
1.228889811094416418e+00
1.135114325652325507e+00
1.077162462420845568e+00
9.834422289305858600e-01
8.298636975112733127e-01
7.385508107068685657e-01
5.882556647247171311e-01
5.713088523924373385e-01
4.901618004087993086e-01
3.490085681764677483e-01
2.826766093015871673e-01
2.203261400772917045e-01
2.258432544319305402e-01
9.671255545918366892e-02
5.619433719991979992e-02
4.017851738030731035e-02
3.811577161953597082e-02
8.409417478819583569e-03
4.896926980494258064e-03
1.292504144580486347e-03
8.272883525413721184e-03
-6.182279504585205809e-03
7.390539384374721077e-03
3.449624671279523380e-02
-1.267255142532413420e-02
-7.095002111018745838e-03
6.043117006264490942e-02
5.207439874188608125e-02
5.756281086109289735e-02
9.646597852355043301e-02
7.404530883053825341e-02
6.494075939523916152e-02
1.123715117434899713e-01
5.834819842939942269e-02
6.721165802606593465e-02
8.799127800173889291e-02
8.517320525429047939e-02
9.682618377412505195e-02
1.295934754939491729e-01
6.274113689614094214e-02
9.936522686491669476e-02
1.635711033544315907e-01
1.456991366087137529e-01
1.004126917005288833e-01
1.710472298182761919e-01
1.772070030824034470e-01
1.778312011242880741e-01
1.537649128760907591e-01
1.824962707577222065e-01
1.349206139847691222e-01
1.525100211298092701e-01
1.196659560408513401e-01
1.718505874608312611e-01
1.799716486959779260e-01
2.261101568764944392e-01
2.866404383900457153e-01
2.170934587428326734e-01
2.178468750956522038e-01
2.105465469661922384e-01
2.104584006802447116e-01
1.682927207633191091e-01
2.083597174019571341e-01
2.642107249752282394e-01
1.539727411753846753e-01
2.056463413080061864e-01
1.961732390991389186e-01
1.264338908836670772e-01
1.852927998673280507e-01
2.079055489729317308e-01
1.621401419981780556e-01
1.923769859034645535e-01
1.569789858899808821e-01
1.324005450557758645e-01
1.706562244164951947e-01
1.861617840672281643e-01
1.718467720461780979e-01
1.255052431150781578e-01
1.478027428184555958e-01
7.449957492229387912e-02
1.509401346368552943e-01
1.088704448449967221e-01
1.059989208948823591e-01
1.009256458820588231e-01
1.335927784295094789e-01
1.354936388308593531e-01
8.632251716657537988e-02
2.752988440485627797e-02
6.904747379722118994e-02
6.335715249497089752e-02
5.076828307125644951e-02
8.056810968980361587e-02
5.229711236821177334e-02
7.075560674625307189e-02
-1.782982853315084881e-02
7.000916052613111173e-03
5.419656890610670408e-03
1.136367949569226654e-02
8.539306905991288221e-02
1.423290434232419438e-02
4.957594990756741815e-02
1.562861809890480486e-02
-3.349927819243807975e-02
1.914045981097615978e-02
-8.893129411004611906e-03
1.801370064817268968e-02
1.249054969161569190e-02
-2.456891152654754398e-02
1.744503127611467946e-02
-5.164471266519583825e-02
1.873715186992278708e-02
3.810738842472769644e-02
2.024391036481243411e-02
-5.129775182169059311e-02
-4.524466862268279599e-02
-4.282477130400076659e-02
-8.028185331053178109e-03
-1.336505639277409813e-02
-4.977492440155587006e-02
-4.600409856841827794e-02
-4.352349306864639056e-02
-2.006485038896479306e-02
-2.057870851062730197e-02
-2.150455852990463754e-02
-3.825524382930729078e-02
-4.006384163203530191e-02
-2.039835189756121492e-02
-2.660105110337418824e-02
-7.878142484811906376e-02
-7.747780318857250270e-02
-4.253954382052238525e-02
-6.930143256193410650e-02
-5.250792499739809910e-02
-6.974855404217794597e-02
4.891947605079015327e-03
-4.885967276630732298e-02
-1.753775864933704992e-02
-2.912383767644514954e-02
-3.264491993672395675e-02
-2.694467652154100556e-03
-9.209254432905943782e-03
3.819082230402125883e-02
-5.697691299766093065e-02
3.089662208379603120e-02
7.221780521601481317e-04
-2.305694429439376220e-02
6.635152528474620032e-03
3.786606923809349851e-03
-3.170491375518047494e-02
1.235811561167026243e-02
-3.549816018227663211e-02
3.310617624032492767e-02
-1.748002971700536590e-02
7.014731782375527303e-02
4.204807292247325634e-02
6.993640485807196827e-02
3.230721173007808367e-03
1.225090285353841457e-02
6.164233649315001284e-02
4.726176167557703811e-02
5.495333089916169811e-02
1.418418274334586060e-02
2.518913963843695189e-02
4.890115604166387492e-02
6.971807848596890678e-02
1.162361089437577433e-01
1.107408959351440791e-01
6.627106275485572517e-02
1.216053370748325646e-01
9.593117926321642619e-02
1.142868364431720851e-01
8.195833331403744315e-02
1.420936899360170647e-01
1.044039722431026329e-01
1.367595835264624471e-01
1.264653331892315324e-01
1.563982433993703625e-01
1.145827026716227243e-01
1.444797888918447626e-01
9.750325300178239174e-02
1.519810080625074722e-01
1.320240969530849240e-01
1.015965797179952806e-01
1.645267750710353305e-01
4.426428008607682929e-02
1.084619650118819473e-01
1.022955485102596818e-01
9.442176204614738388e-02
1.066979405700781702e-01
1.317253263183312539e-01
1.244896470904766905e-01
5.144968834109059364e-02
6.245549272066721475e-02
6.829607868277771943e-02
1.566213865602884003e-01
1.427453381175624869e-01
1.586795965789886131e-01
1.624811332881873904e-01
2.008702968810182621e-01
2.466797045035282743e-01
2.975956918847822985e-01
3.646380773432841282e-01
4.388923370849651673e-01
5.228685905935421818e-01
6.510873216077085468e-01
7.190780817309664341e-01
8.335398794527688615e-01
9.260303279141902655e-01
1.010100968534350496e+00
1.149359998952148132e+00
1.200293788094648262e+00
1.258776112865792385e+00
1.266610871940986760e+00
1.298068813369832153e+00
1.304406712264311929e+00
1.335123059308656934e+00
1.242052232016388924e+00
1.184456623095565098e+00
1.063907005826777885e+00
9.412920837985635503e-01
8.759589759975472401e-01
7.673349081372814462e-01
6.443313940984412014e-01
5.962883048629180616e-01
4.375354677070776854e-01
4.277986707877576289e-01
3.395940648051298250e-01
2.646905829832751911e-01
1.827978518240462313e-01
2.179989603740297710e-01
7.757124294048768631e-02
9.810432918382586132e-02
1.835747564585619301e-02
2.734949150814673657e-02
1.214756946413546035e-01
2.831745246356554349e-02
7.827226741834693302e-02
7.353765609692282379e-02
1.804049647744405960e-02
4.498929689094444823e-02
7.064900693254744235e-02
8.721221101149900790e-02
1.070776242811340845e-01
9.673839626198010855e-02
7.756080449188602899e-02
5.430801354522948876e-02
7.927840888848851353e-02
8.755287624197394258e-02
2.703940995955213603e-02
8.419286130249506450e-02
9.084745082724945964e-02
1.247155104561729622e-01
6.580352422509422317e-02
1.409505544113160147e-01
1.086931715598491027e-01
1.751974226209430108e-01
1.965221603569916597e-01
1.818345164198344188e-01
2.078315135833567195e-01
1.575046205315517034e-01
1.909808718342767553e-01
1.672408571106644981e-01
2.586105110015017861e-01
2.632112696302418842e-01
2.060871336396077891e-01
2.042704372811360858e-01
1.755786523064321869e-01
2.190665907811340796e-01
2.943896221750651465e-01
1.867020499431439051e-01
2.169655680666102704e-01
2.328823520575231676e-01
2.398236059150687938e-01
2.364462969161313655e-01
1.925145135887497416e-01
2.463065378231339697e-01
2.680822546895335612e-01
2.234360749287236103e-01
2.170784217303063091e-01
2.410490749024330193e-01
2.123337258350228018e-01
2.186521725186109377e-01
3.081473973199593819e-01
2.505875601248552798e-01
2.371856286428089544e-01
1.791022603401139779e-01
2.215207394000649199e-01
2.317888013982127293e-01
2.286139044982679058e-01
1.753689391718209201e-01
1.952046149505113348e-01
1.582269950422854343e-01
1.662839937064726492e-01
2.189159209726957989e-01
2.415867369386559826e-01
1.710784458293337917e-01
1.697672416526362360e-01
1.618911491494148813e-01
2.026985699978732236e-01
9.934427363682639400e-02
1.671748381152649843e-01
1.690571896455302925e-01
1.838820630767237230e-01
9.653673693916156595e-02
1.453976254526824219e-01
1.675813666745203101e-01
9.363411233838055125e-02
1.437087315449078750e-01
1.145984140957401753e-01
9.646520298158475781e-02
9.853472671021079599e-02
6.059961857632921445e-02
1.156586335454329872e-01
8.898961220574577724e-02
4.233295619425572753e-02
4.371596042989734504e-02
5.703173952266210600e-02
5.998963446157923318e-02
3.089152255088462723e-02
4.135332787765135659e-02
3.466744226013329655e-02
4.441273367487048873e-02
3.832411175607283726e-02
4.059689556455628456e-02
2.427191494094010568e-02
1.075899604465970459e-02
3.314558113919854887e-02
3.059285713119534386e-02
2.123876151401048532e-02
3.278514746094313148e-02
4.066729814314594751e-03
1.648634369936992014e-03
3.158898490724967867e-02
-6.934417882013470952e-03
1.508020994501906714e-02
8.314267132509525760e-02
7.140867610211841521e-02
-2.474198309363555975e-02
8.632238283716939242e-02
-4.028569198072118329e-02
3.302295535992847558e-03
1.665885704287341229e-02
1.754478576310410098e-02
-5.980910554531662648e-03
2.239291033985106594e-02
-2.499160947000402325e-02
2.109233911395837907e-02
6.825931483857669568e-02
-5.607882099949879767e-03
5.905848957375028907e-02
4.239927076687599605e-02
1.180652803510181537e-01
6.003208867869826854e-02
2.079747538461219902e-02
1.929488753085304570e-02
3.405881712570198866e-02
4.490016297469440198e-02
6.831085705836591193e-02
8.267363610140096575e-02
6.337874714243627028e-02
4.551226687244874780e-02
4.548541703331532293e-02
5.198575612949427049e-02
7.718186267318508098e-02
3.577005764066491789e-02
8.108047106000039472e-02
4.400309893095668418e-02
6.178860359683557846e-02
4.426537221025007851e-02
1.067866313537376571e-01
9.845569002076222376e-02
6.931348072909235269e-02
1.880911067356660638e-01
1.717960290720711158e-01
1.015846190804901017e-01
9.641725919481722307e-02
1.176971621701754234e-01
1.018672346184253674e-01
1.150216251162645559e-01
1.057673827112568243e-01
1.208972982020732612e-01
1.749560720169255068e-01
1.413943485752668094e-01
1.441135182613643706e-01
1.539254920546736238e-01
1.830248137656085849e-01
1.235838998454775739e-01
1.966835468766717776e-01
1.588813157489585848e-01
1.922139990524440456e-01
1.823424550512869613e-01
1.460454437494440039e-01
2.014098656591548075e-01
1.624472592469070609e-01
1.673148421377947670e-01
1.421463796444083216e-01
1.425903723141903057e-01
1.191041853083695534e-01
2.244288378575780285e-01
1.679648950610214131e-01
1.404161388234844710e-01
1.093314033016718478e-01
1.029040708131551268e-01
1.207990731002470258e-01
1.034313367915018766e-01
1.285148221100922139e-01
1.421239520099364384e-01
1.428995524789624938e-01
1.723993216659953920e-01
2.015612671295609615e-01
1.485317318053848978e-01
1.499849653710147723e-01
1.804911942335844510e-01
2.814877847760594576e-01
3.281432278077052178e-01
4.432556941339878542e-01
4.115740233225662070e-01
5.756633178507130078e-01
6.289156992595931195e-01
7.373077254481458231e-01
8.519254081717284599e-01
9.280907773672746330e-01
9.808865787419988047e-01
1.095551145716355590e+00
1.180605327133698257e+00
1.264575674259600158e+00
1.284775452128927853e+00
1.344466964229632744e+00
1.320898234051757214e+00
1.304650637760322418e+00
1.314001772561765202e+00
1.231211064839221825e+00
1.220448002624548334e+00
1.075779551301986547e+00
9.912022472675307005e-01
8.626364244861182140e-01
7.897909028492378081e-01
6.864702077018711712e-01
5.952805250481532084e-01
4.706094769237971764e-01
3.611211823736580340e-01
3.124448196782478870e-01
3.616634370470246940e-01
2.119970884156013313e-01
2.482813377486054740e-01
2.233626695923190686e-01
1.569416075288068702e-01
1.193970706580869678e-01
1.109897846619942591e-01
1.346605697744512053e-01
1.639832169322112398e-01
1.113746325630460832e-01
1.376846305140597138e-01
8.259822429520616294e-02
9.150514340168658389e-02
1.067718025248019786e-01
1.247192102425375843e-01
1.399068259853458451e-01
1.224107691581033386e-01
7.972340099854427486e-02
1.556278436052765946e-01
2.170122223779914761e-01
9.408571897172449128e-02
1.508535421957769851e-01
1.723743104246738267e-01
1.676985239882700929e-01
1.610633625774367250e-01
1.442042244205035961e-01
1.742579874883962987e-01
1.595614468348145465e-01
1.773595339729817089e-01
2.132004867856528985e-01
2.504466667865401508e-01
1.768000019299849346e-01
2.631253253662048652e-01
2.185248769938300528e-01
2.670298780209037215e-01
2.642753773577541931e-01
2.830558515952595333e-01
2.748076820223689931e-01
1.863527795220098759e-01
2.529321951424049475e-01
2.877855980440992001e-01
2.682977097829478130e-01
2.376465318944486760e-01
3.220961888762595704e-01
2.584377635405633589e-01
3.267930212890938213e-01
3.254044745986646170e-01
2.663987729930963888e-01
3.195605478002117028e-01
2.961288793677840370e-01
3.331950325303197347e-01
3.524036449027485585e-01
3.067926179029919487e-01
3.170429800180343261e-01
2.640988930919233035e-01
2.825719046985003535e-01
2.697394755179837178e-01
2.582534613904497456e-01
3.157198693667878642e-01
2.854524195369921857e-01
2.975424374607634759e-01
2.297979071671235329e-01
3.248295528483294836e-01
2.288761921642500918e-01
2.236848226026361963e-01
2.219167218314883616e-01
2.106567816017180239e-01
2.033463590274907640e-01
2.290428679725375893e-01
1.807032327782099879e-01
1.578182885542295799e-01
1.555536317224266440e-01
1.721318811865858445e-01
1.561127584290857295e-01
2.046063398553711887e-01
1.666221944927130105e-01
1.735757231391709121e-01
1.848134857262221931e-01
1.786043283451264341e-01
1.510605399766229984e-01
1.633348949404264949e-01
1.202036020253799964e-01
1.794582891979799311e-01
1.026910208113624851e-01
1.646481488975686525e-01
1.083128153752249689e-01
9.397593524623944206e-02
1.275085437940441935e-01
5.810451301759129994e-02
8.412731837827028269e-02
2.885800005198681240e-02
8.253572515815407740e-02
6.486657473915859173e-02
8.501609285258705795e-02
6.955763365414316390e-02
9.117069002573274794e-02
9.991189448841356069e-02
8.533210912105235191e-02
3.159616622572075650e-02
1.378961569202646065e-01
6.446247296759910483e-02
8.581928647499140195e-02
6.365442209859212275e-02
1.009229243131620768e-01
9.719685901508484660e-02
7.476793193300125540e-02
4.450425479233406645e-02
4.986072380626854067e-02
9.340807779936685651e-02
7.708798108778283642e-02
1.121056939199780722e-01
8.672299795883650630e-02
1.030877767628350511e-01
6.884081187489063391e-02
5.977283986297368679e-02
2.673019420659243639e-02
3.234716903045377345e-02
1.138558033443012180e-02
-1.521268300091215692e-02
7.697250050778570163e-02
5.997630174966070427e-02
4.951688278754923928e-02
5.619578298662203375e-02
3.869164099914709776e-02
6.198642764174748521e-02
5.222925458911346908e-02
7.863544126226917896e-02
7.370379303039181762e-02
2.092125265858181885e-02
9.179398272656433266e-02
5.278843768850487173e-02
5.129235929156299167e-02
8.458499326916921190e-02
6.781821388817790841e-02
3.503227954710660258e-02
3.010234847345817991e-02
6.896745719934865848e-02
4.436965094882976829e-02
8.744955364905479533e-02
1.102337574482932514e-01
7.743744519305995055e-02
8.781504335576501008e-02
1.090706867763027166e-01
1.434364936004932090e-01
1.025940567383689661e-01
1.094166457718584312e-01
1.273497989899318728e-01
1.299481047784664389e-01
1.495844070316029728e-01
1.346639955042695513e-01
1.072906793115445401e-01
2.061857988343586134e-01
1.715496214460034419e-01
1.714357370877368780e-01
1.848271764355071123e-01
2.377631590877007373e-01
1.916525709208978245e-01
2.165071132024744827e-01
2.258272889427813679e-01
1.803494975125128075e-01
2.193384403906944724e-01
2.208647404189800212e-01
2.131716440084101827e-01
1.955288506191615872e-01
1.635293788142710425e-01
1.941932404523790678e-01
2.104558621228506676e-01
1.708787284846496335e-01
2.341179993699844253e-01
2.048008265497007763e-01
1.692741855208468593e-01
1.754503649155017553e-01
1.492341194343606015e-01
1.396751214848443723e-01
1.650564909544509906e-01
1.645158594795216866e-01
1.914728998902781310e-01
1.732538713812306064e-01
1.543715741053993118e-01
1.261351232131920630e-01
2.131252832209493686e-01
1.635831902420140926e-01
1.451685899103944410e-01
1.847030698309067853e-01
2.427945601696101241e-01
2.833861781792693657e-01
2.692948879367889070e-01
3.509272375630843044e-01
3.569025444123280488e-01
5.313842575081562103e-01
5.704299861527598603e-01
6.757703483542636391e-01
7.634192806602466685e-01
8.437281742941451501e-01
9.413404364163620031e-01
1.092194547164329732e+00
1.180061502975233712e+00
1.284905568216658800e+00
1.305224151100126573e+00
1.332420949355977102e+00
1.380106020452328774e+00
1.329387981149644071e+00
1.375807350843109900e+00
1.359759139779419090e+00
1.256741603005287367e+00
1.108510083778909028e+00
1.065962872228387370e+00
9.919393323331308077e-01
8.854934048946382363e-01
7.654779957972257520e-01
6.718606544801430935e-01
5.688238674075885015e-01
4.441798494337345082e-01
4.310752007840815692e-01
3.747645767524084293e-01
3.263336951613941550e-01
2.576898600395376437e-01
1.846736876405743466e-01
1.596942151035108948e-01
1.561730777218396371e-01
1.241647370137966278e-01
1.015416251145853099e-01
8.516629438603312563e-02
6.460864035945759754e-02
1.312411481219565856e-01
1.097473630822035223e-01
9.625171980526550652e-02
1.021187755295896449e-01
7.337662028548896931e-02
1.587809208150855467e-01
1.568345799534081597e-01
1.104042822270228930e-01
1.387896575385285658e-01
1.554833734266725664e-01
2.252043442363473313e-01
1.877524682016705193e-01
1.265535025832035809e-01
1.983584163832449176e-01
2.063184900203226257e-01
1.847187964007431238e-01
2.032160388914037719e-01
1.482933946777602041e-01
1.929447703669184833e-01
2.412584547747993191e-01
2.261656774990613572e-01
2.488015723772044330e-01
2.166822892976566217e-01
2.236767935136168561e-01
2.222580910725929226e-01
3.079926708158552962e-01
2.753182523320837904e-01
2.624176025454313388e-01
2.606641693370018720e-01
2.830386519293964787e-01
3.152921867502884168e-01
3.079830120439009389e-01
2.675119697835307009e-01
2.331528546496671739e-01
3.302695886397352676e-01
2.760689204377938522e-01
2.377187474267754841e-01
3.000066744019304066e-01
2.696726563501737339e-01
2.980014780319015788e-01
2.825449909514867741e-01
2.770108314075740985e-01
3.721377597538257920e-01
2.900291297628274645e-01
2.970890889196152740e-01
3.460579421971103908e-01
2.703260189896543042e-01
2.929238234674978458e-01
2.743140173114926861e-01
2.473845506484066425e-01
2.702591733312945110e-01
2.390706494015991113e-01
2.221148139367793983e-01
2.299010204525126777e-01
2.471352084189024634e-01
2.237391375975466279e-01
2.687978455534831834e-01
2.581582514858384303e-01
2.509168812308122942e-01
1.906813727668624225e-01
1.723050879508011002e-01
1.375462828912122348e-01
2.096073819079509737e-01
1.842000415650765777e-01
1.507128615872587729e-01
1.871637029930727780e-01
1.696668009566970059e-01
1.649634459073350823e-01
1.420911660286524603e-01
1.524935797893567924e-01
1.893934696254800376e-01
1.050789656015100881e-01
1.455041035845576203e-01
1.220522395823728096e-01
1.160978537311040393e-01
1.314977869553127787e-01
1.099605287656111596e-01
7.440186045561594796e-02
1.251729089216559454e-01
1.161439624548377403e-01
7.455004715091786971e-02
1.046397487760253875e-01
4.069630916212509109e-02
3.127770708905675684e-02
-2.064217913303587060e-02
7.058671835654337090e-02
1.221850688633768778e-02
6.038436698483684584e-02
4.979761518246533097e-02
5.907370426350920523e-02
1.133365803649006576e-01
9.190455663071975256e-02
4.083787002317913056e-02
1.925903246561705418e-02
8.513650649208356902e-02
2.476235868779321989e-02
3.670954465891757001e-02
3.509754938485189213e-02
4.414828048579409053e-02
6.203507491984617400e-02
1.939706805776816173e-02
2.786815666403226477e-02
5.533966586117443354e-02
3.045299434997185764e-02
1.623509995205654061e-02
3.451564120170659555e-02
3.370331014205837916e-02
7.691698489725838639e-02
2.449737302442102707e-02
6.223353430138020559e-02
6.968523335821596998e-02
-1.975224825132731316e-02
6.798876617843091497e-03
4.137274930067059292e-02
1.069272202116821474e-02
7.161399521372570354e-02
-8.858590987307731618e-03
2.568795057387330064e-02
2.530473999302253890e-02
2.919618912735675101e-02
6.069482085178053155e-03
5.002475094392166977e-03
3.122292918034540177e-02
9.510410057061985389e-02
3.592024532213382998e-02
3.683122715372967593e-02
9.461317276666328380e-02
8.215827132625601326e-02
7.865704673290396798e-02
4.563870018610277635e-03
9.772239848510493043e-02
7.411073535240475518e-02
7.361131321098539348e-02
8.861944237815241876e-02
1.437054664613011956e-01
1.486771767204282113e-01
1.068987927647181424e-01
3.474831516084611605e-02
9.235815771151312248e-02
1.013065914248262173e-01
1.305648615148075897e-01
1.309371229109019819e-01
1.109162870894389169e-01
1.312758904800609139e-01
1.201860547695458442e-01
1.193185584360859225e-01
1.559815464820377418e-01
1.839718645338939140e-01
1.500867710857615167e-01
2.007059052323020842e-01
1.907066722385902247e-01
2.162944579252729649e-01
1.335576429393285913e-01
1.602990224451483758e-01
1.363108761669045432e-01
1.224527755800308287e-01
1.427698834470978451e-01
1.947778338756573635e-01
2.004648813132480223e-01
1.363673095081095743e-01
1.463442833186452685e-01
1.584526043920794214e-01
1.771145197474884581e-01
1.224442058393222649e-01
1.292800279880693126e-01
1.326865631133523349e-01
1.350882945926230039e-01
9.562959150874693337e-02
1.167977450602579181e-01
1.513106957535284292e-01
1.029047326617797270e-01
8.085287626983943265e-02
1.487853549369504980e-01
1.728686339135626637e-01
1.385859695985442175e-01
1.377281528803937505e-01
2.366804180817409786e-01
2.644077378298495540e-01
3.425719933269024131e-01
2.950900724603390257e-01
4.718224139710049392e-01
5.838325828454142830e-01
6.385029763365225319e-01
7.100218438141862043e-01
8.690894813937849461e-01
9.202773874883295457e-01
1.101710318741671690e+00
1.126499809125062646e+00
1.228961002298496252e+00
1.296852128551915673e+00
1.353867713654580474e+00
1.342420338859164231e+00
1.359930029583178879e+00
1.280300891416143561e+00
1.244388057419382632e+00
1.203521841645912138e+00
1.083548745781860889e+00
9.427963480869891999e-01
8.771429959163745682e-01
7.879286204849187403e-01
7.589480567783292164e-01
5.859207866379887442e-01
4.722891505566635395e-01
3.923145808064836815e-01
3.743912955175691670e-01
2.918064814399057294e-01
3.180374269826554134e-01
1.511651033631109253e-01
1.623661299563162186e-01
1.224584491597406899e-01
7.875949081398572749e-02
1.424565261261847293e-01
5.957395472502131223e-02
1.047132763014014811e-01
5.903178217920279636e-02
8.088545159178760213e-02
8.561766857993656499e-02
1.061148780794281959e-01
1.231001330895424295e-01
3.026717058772818159e-02
7.283657011252195335e-02
5.896239621018294075e-02
8.745087529731318532e-02
9.859504631208852732e-02
1.105072458913573530e-01
9.462081955972949376e-02
1.697387332423865303e-01
1.742448825574310634e-01
1.439762202408148561e-01
1.461428568015958329e-01
1.749525699366640541e-01
1.387345072509922617e-01
1.831498866742028719e-01
1.707358623880074200e-01
1.641615140178833698e-01
2.209855068714618176e-01
1.781682496559549300e-01
1.755897065953077874e-01
2.508551281523636045e-01
2.260848849013139816e-01
1.527911537704396139e-01
2.561742860340421868e-01
2.210726327127182367e-01
2.636773577346434028e-01
2.015781257493531597e-01
2.456586305345929699e-01
2.105253582411875102e-01
2.302356554280823864e-01
2.188672240274480429e-01
2.704641792931448685e-01
2.377634036003153373e-01
2.498928021164160962e-01
2.526131012115426233e-01
2.676390265306557437e-01
2.595894617144922090e-01
2.892853675849108575e-01
2.547029607927482342e-01
2.846293308093625352e-01
2.273098693128573211e-01
2.072219604467941678e-01
2.260087181475180229e-01
2.221981366561717464e-01
1.986052905707808292e-01
2.340066639114108948e-01
1.801830810140033212e-01
2.263563675966372701e-01
1.994866458166063561e-01
1.950353797663670896e-01
2.007746426304602150e-01
2.030090942202906201e-01
1.471395382705516508e-01
1.923667345196453105e-01
1.677607097548198256e-01
1.837590538495293968e-01
1.296818252804569360e-01
1.332730451334648847e-01
1.571310397303393724e-01
1.581187372520974632e-01
1.353979230468169426e-01
9.892591135520410750e-02
8.174988150622293503e-02
1.116791218394728169e-01
1.164994146803344371e-01
1.240811468040082244e-01
6.688549198838747434e-02
1.375642923161523867e-01
8.381457046079121564e-02
2.310854902619415355e-02
4.551563344015753521e-02
3.403093978524963925e-02
7.706049367085310298e-02
5.131518196972625900e-02
1.450641889016225650e-02
2.986251372566327972e-02
8.342250242963215878e-02
2.655191576424961730e-02
1.897635601131917454e-02
1.541378718144005566e-02
3.271578161977329452e-02
5.290683426650617110e-02
3.346912217358095215e-02
7.453246120162834720e-04
-3.251761709610743317e-02
2.224818110983762393e-02
4.539110576208009451e-02
-1.857169283685912442e-02
4.826339741787345761e-03
-2.317946245501465233e-02
-6.303035525013819113e-03
-1.254206696516413019e-02
-2.987971289225182375e-02
-4.503506791425583577e-02
-5.873011411058946460e-03
-3.670927807508667096e-02
-4.804669875331350065e-03
2.922818751210399732e-02
-5.360468995900648931e-02
-2.002283907594874790e-04
-3.376055743937184800e-02
-1.747523395859020348e-02
-7.320528115757965471e-04
-1.385300137333504364e-02
-2.292876619933267857e-02
-2.224086515502531752e-02
-5.155978895060364664e-02
2.931260525753352775e-02
-2.226728354832291368e-02
-3.188857410580395180e-02
-8.162489862003331764e-03
-1.591319332515397922e-02
-2.136869115812648628e-02
-1.157719182711889130e-02
-1.931728873681155811e-02
-3.302521539800374467e-02
-2.028847603488345697e-02
-7.520625365874843843e-03
-6.688434178936573937e-03
3.201841086590776625e-03
4.137739325021049658e-03
2.611134071645300481e-02
2.586707713662393660e-02
3.567694021196499143e-02
3.025341573520520452e-02
3.627971358151516057e-03
-9.985603940326923111e-03
-2.895518251553848288e-02
-2.486615168007361848e-02
1.904004773671096051e-02
9.714552096917178359e-02
8.973518765395004093e-02
4.123426449012627948e-02
7.939154508584629621e-03
1.398012505660020666e-02
8.399937447587293993e-02
3.191426381906779797e-02
7.398529577326909412e-02
1.353205386000027877e-01
9.634027988032201062e-02
4.039413873793459842e-02
1.215146142141733665e-01
1.015480134376004623e-01
9.259833477554990644e-02
1.330055571249634805e-01
9.788109107500836403e-02
5.684342381880751194e-02
1.078585632305373576e-01
9.460998915474272408e-02
1.309578879403910656e-01
1.060434390649511865e-01
1.150439851874767577e-01
8.011654479430178888e-02
5.668958559201915659e-02
9.853053385046627033e-02
1.569684669610353078e-01
1.522025366318758288e-01
1.080420102597191012e-01
8.458685032217475031e-02
7.313726247941532144e-02
8.632034538585833805e-02
4.398632099422484371e-02
8.343807470897085521e-02
9.111935642023180626e-02
9.945770037946619069e-02
5.614987941404355615e-02
3.300786335358386892e-03
4.851787709946625560e-02
6.030058030309789346e-02
6.296847411421266361e-02
8.103411734627583018e-02
1.212378428772434708e-01
1.338967147359024223e-01
1.571165111897285249e-01
2.325195646818065676e-01
3.231450097544002475e-01
3.414293337352528601e-01
4.177729994184808393e-01
5.247065929897841707e-01
6.132210176579561134e-01
7.464998357475431945e-01
8.365910045988051991e-01
9.728808479886474903e-01
1.013181241387698606e+00
1.057520929833787982e+00
1.163694071001733832e+00
1.257110276152214823e+00
1.283498448514538870e+00
1.254953996536248839e+00
1.238894419855907314e+00
1.221431533293926064e+00
1.158537811562226905e+00
1.128869803935404592e+00
1.051270995361135663e+00
9.124969623164391752e-01
8.225799555005054442e-01
7.601139414407445116e-01
6.289273715527512465e-01
5.344971995029086376e-01
3.732701750807855268e-01
3.905310131978529942e-01
2.813426008288338331e-01
2.206872464865504702e-01
2.156624183369121317e-01
1.062332074673492111e-01
9.508931869192047137e-02
8.042740572102161090e-02
8.030947637994823030e-02
-1.251530921355492598e-03
-1.158399130262222076e-02
1.740475861325772866e-03
3.654409965634354551e-03
7.879054008282107557e-02
5.726852982224084343e-06
2.078574264693838075e-02
1.979177522265840317e-02
6.049534441801780044e-02
1.572730494686849084e-02
3.122658321224630606e-03
5.390256000939377956e-02
1.118945745707034534e-01
6.462984383547770717e-02
1.055888617286111497e-01
5.628761747172343621e-02
8.616738696101844397e-02
6.270292175973263271e-02
1.237482201660985714e-01
1.027159374689188970e-01
8.892873263140253781e-02
1.160114301780180851e-01
1.614701398717738878e-01
1.475837469089983645e-01
1.573641360525697142e-01
1.463333476325730798e-01
1.188513837859597466e-01
1.329428032322223507e-01
1.736954049893942031e-01
1.324909771214268506e-01
2.094206517663639855e-01
2.159272803662009022e-01
1.862159440310378611e-01
2.147843310946723761e-01
2.331859422465147325e-01
1.874226622463508463e-01
1.840229036304609211e-01
2.161105635547724557e-01
2.292295424915819502e-01
1.983676165751940279e-01
2.103595722312016081e-01
2.187860593250302021e-01
1.764008464457532677e-01
1.906008843048901114e-01
1.910262299912434125e-01
2.576156067867443888e-01
1.824183730203725040e-01
1.143712788815736958e-01
1.925390761435449294e-01
1.720868132126745220e-01
2.030722897538808080e-01
1.830543877373698169e-01
1.603652081668528462e-01
1.230891652174113532e-01
1.524371928080992811e-01
2.060035874242624188e-01
1.761284398801887807e-01
1.185694276721128149e-01
1.470363631780491898e-01
1.166609783310390280e-01
1.373992034928389616e-01
1.362101019565347682e-01
1.582015736831875741e-01
1.022500695985903707e-01
8.100792815374563416e-02
1.772399538587468570e-01
1.661857006457405639e-01
1.530850138332587873e-01
2.326861213507294690e-02
5.827890400862700132e-02
2.839691452485795103e-02
4.167135800110630117e-02
9.687694012418746059e-02
1.855392748075558595e-02
4.060921220871051979e-02
-7.649236359614758340e-03
4.705693843423391920e-02
-7.763021577536728668e-03
6.956304674955254841e-02
-6.294156514236050326e-02
2.450121279575304123e-02
-4.476992167212194562e-03
4.208113763787774131e-02
6.128183494403513509e-03
-4.205786515242201234e-02
5.537826496909092205e-02
-1.031794880086385480e-02
-1.689399471203424652e-03
-2.215274241570279815e-02
4.557128067730280285e-03
-3.002653019536960510e-02
-6.179573805904554906e-02
2.883329006115073478e-02
-2.183714737406344461e-02
-3.059715177685583959e-02
-1.933830576787549937e-02
-8.312404290910468951e-02
-1.233919668383325063e-02
-3.415209482909089406e-02
-5.422259041699398902e-02
-6.218596062305629946e-02
-8.645411187454500601e-02
-6.617260132506369574e-02
-6.802812166001641347e-02
-9.118751636584077058e-02
1.794534016248042901e-02
-1.733394322037541679e-02
-4.392361661288685798e-02
-3.570324964845048021e-02
-8.252637307745269712e-02
-8.747583887370341538e-02
-4.589842211621592699e-02
-6.054057045066747744e-02
-6.499819695120188923e-02
-2.664861589465522887e-02
-1.696374159246959862e-02
-4.759361100705050696e-02
-4.756124640116572017e-02
-3.127009636215610094e-02
-3.497688118619057124e-02
-8.314229244876422675e-02
-3.769586599761814982e-03
-6.065565110062218213e-02
-7.031665200002537586e-02
-5.934430599098908243e-02
-1.379712851407879914e-02
-3.883349774387802322e-02
-6.662397702571362657e-03
-1.581973001803835960e-02
8.099134311944353182e-03
3.126816262845512340e-02
-6.832900957915236106e-03
4.586647348606552599e-03
-2.133650839599498736e-02
-1.177954260473132453e-02
-8.241876208410728322e-03
-1.893523516927805156e-02
3.580635866878997819e-02
7.131141473287957999e-04
5.661093093291551248e-02
1.967469359620634822e-02
5.168354904493444729e-02
8.038031117273228277e-02
2.401527814098368407e-02
9.891057011786838493e-02
6.338671336424184233e-02
5.435498847316201643e-02
5.935424892907154026e-02
9.031919608511568276e-02
6.231095111243331597e-02
1.031272885990250354e-01
4.688840727011422266e-02
1.129674828703032263e-01
1.378309644384168586e-01
8.375889493591767709e-02
8.950142189782860080e-02
1.854065290989279635e-01
1.039542107955820083e-01
5.270491415430114679e-02
9.539470922965440081e-02
3.641530562625082401e-02
9.536134785097656608e-02
1.097787154623863642e-01
6.839380229165555047e-02
8.312267169189874183e-02
1.013424297190221868e-01
1.080215179823839633e-01
7.815219167146966739e-02
4.587792408210072947e-02
1.424989730903898910e-01
3.599648972986105311e-02
6.645983236855856902e-02
2.064618385461788191e-02
6.008972920538631357e-02
5.436141871701320044e-02
5.433478863904053768e-02
5.673777560426077060e-02
8.719865312167515703e-02
1.255177771432318123e-01
1.437576859633705739e-01
2.076821524875212543e-01
2.197943194845916604e-01
2.852684573794042056e-01
3.994742636249160594e-01
4.693268535538990260e-01
5.522374960308134018e-01
6.373766009173568170e-01
7.475792879114787626e-01
7.925417293628690407e-01
9.179975802232501758e-01
1.043249282788668353e+00
1.072431446742897698e+00
1.143369103339939574e+00
1.251793014806702686e+00
1.286051316499805974e+00
1.231057666734556744e+00
1.232209880956403936e+00
1.255696368900856008e+00
1.116634836586035018e+00
1.044971392285014122e+00
9.786467105708490655e-01
8.598456041396810301e-01
7.434627265476525526e-01
6.954098741170343656e-01
6.110921876454402657e-01
4.426625147892537804e-01
3.819622839697360828e-01
3.691634095319574760e-01
2.371482384463610427e-01
1.491186270929095448e-01
1.280847545906074747e-01
9.787934406363724138e-02
1.146765754069294374e-01
7.221954855929581252e-02
2.671609627309146084e-02
4.350327909895426726e-02
-3.045357066349928254e-02
4.820260216518733321e-02
-2.167278333655339728e-02
1.861239998666230910e-02
1.504341291947627890e-02
4.230700567583259297e-02
5.699482848173269972e-02
2.505536085585791800e-02
1.855825051569372219e-03
-3.778855627761881775e-04
1.040133599352794647e-01
2.851239786137808180e-02
6.887068153384211244e-02
1.606647548712976381e-02
1.125851478700485020e-01
5.520050123432417716e-02
8.793623328352170865e-02
1.353529215593927137e-01
1.132128316624717301e-01
6.985127512524627602e-02
1.481341847284742275e-01
1.325808848372211912e-01
9.329941576944733583e-02
1.556917612543735896e-01
1.533263665716966817e-01
1.355944922561054256e-01
1.890257780717150837e-01
1.561003045264163502e-01
1.613373303556168148e-01
1.681264604513930394e-01
1.915092557677679497e-01
1.325838357669119061e-01
1.550330108624144998e-01
1.829081885460965562e-01
1.641505693405598543e-01
2.413797378976974273e-01
2.019646467993386763e-01
1.751531181270830351e-01
2.259118251922072051e-01
2.117435409787553346e-01
2.334576627920472436e-01
1.643582681780269006e-01
2.036192999263065351e-01
2.335213690239174023e-01
2.111716962570874823e-01
2.309317326772399037e-01
2.219335669071504924e-01
2.432048819829342734e-01
1.784427840618979244e-01
2.307177777298197729e-01
2.239007424343792685e-01
1.705886772987737499e-01
1.612207423222581926e-01
1.684082237803852800e-01
1.847352859012688642e-01
1.851810619279721237e-01
1.885001047895540072e-01
1.654756594708456929e-01
1.574967422411351625e-01
1.643612248601074022e-01
1.084601675792353920e-01
1.751067447253313869e-01
1.127643823088975428e-01
1.252352555454222249e-01
1.269839801346401842e-01
1.167207896961382219e-01
9.219181386226803221e-02
1.176070477872044051e-01
6.994734004018118845e-02
8.027974080406269364e-02
1.194743113973124604e-01
4.106838298444600438e-02
4.545113214894563186e-02
5.167507817498129263e-02
4.399306455658594933e-02
7.788751250932669790e-02
-1.915987071460720226e-03
3.772529824691615158e-02
1.455042100485616496e-02
4.857680963136506991e-02
2.501039555436222750e-02
6.729498360228812481e-03
3.100780447137692353e-03
-1.327107124448372727e-02
-5.292203091636786538e-02
8.759943328163273535e-03
-3.381169826291863245e-02
1.153951165023379966e-02
-3.193246078423940537e-02
2.646144681989171313e-02
9.806936268343429547e-03
-4.188677433913746972e-03
-6.478826976611569421e-04
-6.469464188383261538e-02
-3.288019487749209435e-02
-6.120202865495012051e-02
8.371528386857472748e-03
-8.136957011344755214e-03
-1.514727986625524249e-02
-1.325715359692748382e-02
-2.436154862619401007e-02
-3.794712812139358626e-02
-1.593745911854953581e-02
2.167012199497856881e-02
-8.103437324132392594e-05
-8.819987556236669191e-03
-4.415592957828701204e-03
-7.776225753271186203e-03
2.403167198012614095e-02
-3.277985527926805670e-02
-1.964128002900004596e-02
-4.856205362363934241e-02
-1.838761775146028482e-02
-6.055647208335278309e-02
-2.167530695023322032e-02
-2.726921120322524719e-02
-3.954177876457929536e-02
1.835012490202167848e-02
1.879530086870057071e-02
1.067462068583297299e-02
2.151208860117112889e-02
1.290651949844802415e-02
4.729681635975167830e-03
-3.175769596877787287e-02
1.842829571029885871e-02
-4.234262571911548423e-03
-5.238575484958873929e-03
-2.514235257397446147e-02
5.485699061292838297e-02
2.262234567461748544e-02
3.079822353395295434e-02
6.174993365033611126e-02
2.444699286010293404e-03
6.958268634974250355e-02
-2.690244864907480327e-03
4.402124691903937237e-02
5.478471523606981419e-02
5.192432158013611521e-02
5.696998821162715249e-02
9.153239506591437369e-02
1.098403551344557250e-01
6.905201191375953673e-02
9.611552257277347633e-02
1.311200647312833756e-02
6.824820682795018634e-02
7.569474231451667201e-02
9.757356931409036371e-02
1.044430004198788481e-01
7.867179707082883056e-02
7.263319819531416366e-02
1.601277837183857633e-01
8.442751593600562876e-02
1.278240285151609756e-01
1.359114143134244612e-01
1.406474984856508070e-01
1.056038543596551915e-01
9.186050918532442933e-02
1.167518506406684392e-01
1.615056982523984941e-01
1.381973543340161148e-01
8.827667412951775705e-02
1.415578629978765379e-01
1.147611378909039470e-01
1.480188481521679533e-01
1.660296016765938909e-01
1.495999485786700389e-01
7.893320430828482115e-02
1.115505527822311105e-01
6.352666376387580693e-02
6.785233762191392182e-02
7.757586470842853243e-02
1.211677999128912830e-01
6.507824056217244302e-02
1.713632423415673012e-02
1.148198018317308777e-01
1.118744586746912573e-01
1.142168256531830156e-01
1.354745101813143726e-01
1.404392371111189142e-01
2.542840492254442308e-01
3.013127800961895586e-01
3.590930049493110121e-01
4.114897054368163998e-01
5.395004409154522396e-01
5.614905423088315528e-01
7.109111650389242643e-01
7.799112835653380094e-01
8.821149058380268748e-01
1.070670736189268668e+00
1.039789097853321520e+00
1.182614301073960705e+00
1.278453690986109059e+00
1.270243429728775686e+00
1.331926812389498727e+00
1.326145662672637116e+00
1.285563222777723391e+00
1.260176724894505496e+00
1.213229845424577347e+00
1.115414905073584872e+00
9.859027628983715319e-01
9.060272654642149703e-01
7.663133979579453969e-01
6.706543277529517511e-01
5.974553294711345552e-01
5.225069917094906646e-01
4.160162247935050850e-01
3.831473214460403565e-01
3.245140267252533683e-01
2.142577003301510963e-01
1.794430718840190897e-01
1.759531835812268297e-01
1.006977214566556755e-01
1.326623004736201539e-01
1.060226239001309523e-01
8.555638343950540403e-02
9.618877152930120633e-02
5.614134269488427198e-02
6.654619054832834092e-03
7.834926253017650277e-02
3.461850706684463375e-02
4.386811398816040791e-02
5.594824886673956804e-02
6.444903586514426352e-02
1.063466172661927389e-01
6.036908653835156707e-02
8.759410167053977014e-02
5.156585116358053389e-02
1.307894792403185846e-01
1.163989994718950399e-01
8.232146836469875217e-02
1.470704203009404187e-01
1.081625258033933196e-01
1.684128635861376067e-01
1.884735943410987824e-01
2.221256512798671645e-01
2.082627990529569983e-01
1.758464679622786242e-01
1.804360154637413005e-01
1.176283023804207545e-01
1.924111307971183848e-01
2.189456495859121721e-01
2.563806255632966047e-01
1.713925189288834361e-01
2.189350636598831334e-01
1.871262008026220447e-01
2.223846085088588831e-01
2.081367082129708113e-01
2.047707486121424503e-01
2.356420791063158771e-01
2.435010739978149541e-01
2.435025818542779219e-01
2.404490991164746627e-01
2.376347884864517535e-01
2.351120390797286908e-01
2.589537413278398814e-01
2.475751423381635785e-01
2.177122189624739190e-01
2.651485925970762936e-01
2.606636834086124566e-01
2.595835938674790344e-01
2.859608056243773122e-01
2.273930899452333565e-01
2.648455061140072009e-01
2.173156964274296499e-01
2.369731513806404011e-01
1.998017434149824967e-01
2.295158945672928219e-01
2.302889640171148777e-01
2.373416771020583627e-01
2.178195942340212243e-01
1.831153268057506001e-01
1.752002489872841462e-01
1.617815921594556172e-01
1.909778944469325002e-01
1.555407791978628274e-01
2.573486722918140734e-01
2.064409536349806618e-01
1.499973307592905314e-01
1.810509604198510536e-01
1.684801172341072184e-01
2.150615979046988091e-01
1.226590413655027773e-01
1.642817912960339855e-01
1.373679178887406149e-01
1.438446173826055108e-01
1.374523934709619422e-01
1.582948737681702522e-01
1.074751281164962186e-01
1.873482943460750005e-01
1.173405136870199206e-01
1.337604201153798633e-01
1.289681497136543620e-01
6.240211052772146050e-02
1.060231446078519629e-01
1.156881182246587147e-01
5.073032687700368415e-02
1.015230052066058430e-01
1.133744502986382963e-01
8.508282769722297356e-02
9.165046982942241793e-02
6.010955677159747490e-02
5.163133676471201583e-02
4.131925680043248283e-02
6.713179040197428393e-02
8.182647829170212883e-02
7.154605765410639029e-02
5.916624493582711697e-03
9.651566870679068044e-02
4.592525854890300296e-02
4.860047461112197709e-02
9.034739332692412472e-02
1.124236022524427447e-03
5.405586743608497419e-02
3.976089715270675340e-02
1.226226097298862595e-02
2.409103207782093900e-02
2.022116605985234405e-02
-1.315663019373292802e-03
5.687007672544590331e-02
2.942919939045711419e-03
3.697562657530292785e-02
8.751490770248296358e-02
-2.340175105816286183e-04
2.126319480086578603e-02
1.282993168510811188e-02
4.093627772829896289e-02
4.173853309498443132e-02
3.795029564474788897e-02
2.504823111262117694e-02
9.792491610454132078e-03
5.815714861619149245e-02
1.820042816555432486e-02
7.724157993643174236e-02
2.043080671600311024e-02
3.198168395675126535e-02
2.759943988642334783e-02
4.907813898556344367e-02
3.013123763239052705e-02
5.903460704758486943e-02
4.590732228111350788e-02
1.998128696015207331e-02
-1.159869144799712329e-02
5.541543985118840832e-02
6.472030657847258062e-02
9.708285665840374334e-02
5.919995730202150253e-02
8.838009135963925678e-02
7.515049902147075134e-02
4.169077315507691700e-02
9.219676841645171872e-02
6.427892504478348312e-02
2.078145362774510424e-02
7.303252889251460322e-02
9.613134609885042037e-02
1.409841892466247582e-01
1.436073611656571158e-01
5.370767210055502061e-02
1.601631369770684377e-01
1.307118061229718409e-01
5.495931329356317646e-02
1.391950382441969336e-01
1.243864044367916782e-01
1.727812351509894206e-01
1.667854966183318077e-01
1.776238323719765977e-01
1.831469903847583458e-01
1.919088394397855946e-01
1.607957543420686364e-01
2.014472570869481616e-01
2.006585498820088742e-01
1.935557374557033972e-01
1.491398426760028595e-01
1.369070732095518106e-01
1.696408753357853683e-01
2.389566871285219996e-01
1.841183332744591450e-01
1.619401370235547810e-01
2.086123866821945061e-01
1.936193796339613360e-01
1.922077834661137796e-01
1.698314234400121747e-01
1.499263939769724940e-01
1.799961709747492367e-01
1.414638364625184219e-01
1.513883299851485620e-01
1.586806823703342251e-01
1.491617554098849385e-01
1.186399976045396376e-01
1.134409345831739468e-01
2.018479256879710249e-01
1.796177114341150627e-01
1.943886474866472203e-01
1.666490294845135167e-01
2.592272392161742434e-01
3.166689232373916529e-01
3.628946035315806506e-01
4.222886056314496539e-01
4.567556273813433987e-01
5.586589797532196533e-01
6.521137152677591864e-01
7.914062089387449150e-01
9.670384127249656014e-01
9.615537738028455683e-01
1.062515324263036076e+00
1.165185569566466128e+00
1.320289396399399129e+00
1.369600322982593488e+00
1.402528606757967866e+00
1.393455950609404859e+00
1.281336949929035907e+00
1.271129437951235008e+00
1.292632714257735627e+00
1.204158610009452346e+00
1.107446269247129855e+00
1.025537226269885638e+00
9.133447805564401945e-01
8.048425364752151978e-01
7.419643495004704103e-01
6.240034370899922855e-01
4.940677024137954398e-01
4.297096823778819297e-01
3.697359936068748132e-01
3.438397496781047114e-01
2.568655063970782804e-01
2.120636816842521866e-01
2.130810357257214571e-01
1.822841914415570252e-01
1.574029542599741649e-01
1.168411186830383836e-01
1.304323546873839001e-01
1.129069263723008476e-01
1.507882408924273165e-01
1.286046478293033923e-01
1.218988268480863113e-01
1.267019088102915303e-01
1.264510530575954084e-01
1.450040391890367319e-01
6.015811672119483755e-02
1.274029263673368828e-01
1.317487214206852775e-01
1.601869781039483298e-01
1.984166379880100417e-01
1.957932062459530609e-01
1.726913352860805495e-01
1.749638257109053796e-01
2.016565976842523977e-01
1.581314855484015902e-01
1.819873663444929179e-01
1.669475396439496495e-01
1.777006898537635549e-01
2.215228431368505557e-01
2.837538296623542400e-01
2.538773305395782831e-01
2.074632360437273504e-01
2.419038157362125574e-01
2.359269047854146983e-01
2.651708251060662658e-01
2.275514975209092794e-01
3.146489511728346455e-01
3.432981609520218136e-01
2.506206942669455540e-01
2.391643708258439083e-01
3.039762174067898171e-01
2.957740665458767904e-01
2.658488573276542866e-01
3.050197244467817703e-01
2.563938571482809459e-01
3.066936589037904670e-01
2.783169539388276048e-01
3.509213512142989044e-01
3.308737144497183591e-01
2.524093035573928834e-01
2.818771470920785616e-01
3.162488588883315410e-01
2.800504250951101892e-01
2.415291628652501132e-01
2.762209246643584915e-01
2.846734595914515165e-01
3.115900607237979125e-01
2.663835134067935595e-01
2.629689946075332019e-01
2.578703978576408207e-01
3.417625595420670237e-01
2.351076238253024531e-01
2.840036379551829082e-01
2.310859936824304905e-01
2.459848318627187447e-01
2.122718163346584141e-01
2.449908685319381885e-01
2.993333516241244441e-01
2.824028486782862446e-01
1.827142065975932705e-01
1.715443529331241446e-01
2.259593936737582520e-01
2.013770342988584483e-01
1.917168587167738802e-01
1.596257125133675736e-01
1.671835769511378356e-01
1.540648229980731698e-01
1.662482448593676498e-01
1.656006651193955848e-01
1.253123712442122950e-01
1.061450528129079807e-01
1.720884942902435599e-01
6.954223819871582779e-02
1.246304385303664830e-01
1.680092565185859199e-01
1.465498990521586498e-01
1.179604305460283109e-01
1.050803353735238616e-01
1.601409807421773357e-01
8.926487006558389559e-02
9.886195038939507573e-02
1.058469368530931959e-01
1.138919080670225126e-01
5.774412696888835822e-02
6.624797238485921613e-02
1.417676506489758126e-01
7.938071125967685604e-02
1.001124804076014702e-01
4.246120912760760480e-02
4.960551898618480171e-02
7.499571499141538533e-02
6.730388675565705803e-02
1.102157301777593468e-01
1.134228676558256266e-01
9.394471782948632388e-02
1.271208787968282350e-02
7.173439167216189016e-02
5.783601126649243890e-02
5.579885345879338765e-03
3.440180526653343479e-02
-8.884173072349461908e-03
4.127556758363652711e-02
5.526379629077358968e-02
5.750967561605134504e-02
5.081318598196028075e-02
5.632720063334421823e-02
-3.177073713054034965e-03
5.239501271835172308e-02
2.154418371072892857e-02
4.269435508425770132e-02
1.002340381229784583e-01
3.321415378653950340e-02
7.821849071966549549e-02
2.172493245374980744e-02
3.329185931982734520e-02
3.985411237740392465e-02
6.572690406356422599e-02
6.489004920295886325e-02
6.136923471790309281e-02
7.361464776996638759e-02
5.246583992910578559e-02
5.262021808113005045e-02
7.244130496490558402e-02
7.385664050162975280e-02
1.192462009327234645e-01
1.073531467494418801e-01
9.015951710608177683e-02
1.023623445809641597e-01
1.046488758134622721e-01
1.055032053221061084e-01
8.824429116330644030e-02
7.867604853587996383e-02
4.764949434253103189e-02
4.889690863846195973e-02
9.792313536909355576e-02
1.350410322848996647e-01
1.166913694702078896e-01
8.673317996411887554e-02
1.797445031207390853e-01
1.437543873882596579e-01
1.624748344001134548e-01
1.640623829457935334e-01
1.213227484597915184e-01
1.492621916664010340e-01
1.755231625157318565e-01
1.933948423684174467e-01
1.471711466775131039e-01
1.866037461399000230e-01
1.484946159047516867e-01
1.823772946485940627e-01
1.886731619966099116e-01
1.721301476235172767e-01
2.097176948026927001e-01
2.399955818000197860e-01
2.787181263152441191e-01
2.631867939695086145e-01
2.067594319744580633e-01
1.898684348294766289e-01
1.727146272350008338e-01
2.107036644040609363e-01
1.960339549474706122e-01
1.459561318040603906e-01
2.093277496265934789e-01
1.604645964843983141e-01
1.305215620479541205e-01
1.235050686369156825e-01
1.627657798245854548e-01
1.420792899785646435e-01
1.118754144728737882e-01
1.243703818860634747e-01
1.627715457534229526e-01
1.662411140099150919e-01
1.652113942815516823e-01
2.280813082101422751e-01
1.894814428028676612e-01
2.122523901177277295e-01
2.885154119492858715e-01
3.780400842796353134e-01
3.545352094864270276e-01
4.077776719100507652e-01
5.714784739362420707e-01
6.701963591034147960e-01
7.015794491433916535e-01
8.348857705292442866e-01
9.085264969694822890e-01
1.006631542272674595e+00
1.137418959382666239e+00
1.203186557169162008e+00
1.296631099452197899e+00
1.356449330758450866e+00
1.361797433362654575e+00
1.365272536749837728e+00
1.369595788643542367e+00
1.404964694914187628e+00
1.284339448602409339e+00
1.204716338584637558e+00
1.115567732586649097e+00
1.021565750992363020e+00
9.180048493770606166e-01
8.006464816626110981e-01
6.527855320226412239e-01
6.284574847318011859e-01
4.550455882163632060e-01
4.732592872949363261e-01
3.227311950102095817e-01
3.265478011140904302e-01
2.298798115247011609e-01
2.097296566300772269e-01
1.867755238573517440e-01
1.323570760648698497e-01
1.258240640656154430e-01
8.672522018910447383e-02
1.200925648622384601e-01
1.348466033150348686e-01
1.330732029641900904e-01
6.469605542960146782e-02
1.238772392697073954e-01
1.314135154090995683e-01
3.699382839056757771e-02
1.972223664118011865e-01
1.218463000217813730e-01
1.068042133513192604e-01
1.418600643523146854e-01
1.299689400925793659e-01
1.604731188318328783e-01
1.573708627117675896e-01
1.352345968894629602e-01
1.901629395010190071e-01
1.872475837160492707e-01
2.246695030548409577e-01
2.021135558213281169e-01
2.490454070442822965e-01
1.473833114615383522e-01
2.124447809425056288e-01
1.804657381942193772e-01
2.320000424625365265e-01
2.399630939603766278e-01
1.913814520902115124e-01
2.175938153774100992e-01
2.825497511402597639e-01
2.219900404604274458e-01
2.328134824274698533e-01
2.809728486016687121e-01
2.730901773208143646e-01
2.645528264347734582e-01
2.877693067525354254e-01
2.970771445470988814e-01
3.194830770947975629e-01
3.250099371447125463e-01
2.600401995452700787e-01
3.156028265241508368e-01
3.171240168726950914e-01
2.285317877964104516e-01
2.147253146296842774e-01
2.444670532448642852e-01
2.723997279649119641e-01
2.806953927372681235e-01
2.928333721851801852e-01
2.951973191237488026e-01
2.661046126378165400e-01
2.405940013327410032e-01
2.057809351772979245e-01
2.848189749229133039e-01
2.448662991163547686e-01
2.593213356078892806e-01
2.626101201701701027e-01
2.697510206831690294e-01
2.892574234920215481e-01
2.132635790221748262e-01
2.447571316317796453e-01
2.898245829116605776e-01
1.774802038264377269e-01
2.143888896263241306e-01
2.147194645696267890e-01
1.814573495463532860e-01
1.607444760446316567e-01
1.910695628560176995e-01
2.109208731805265191e-01
1.944347866055063379e-01
1.338120792877210419e-01
1.987875162862299261e-01
1.286492585763255869e-01
1.216016229982384844e-01
1.272490185921341943e-01
1.427012645030569238e-01
1.276371676907979980e-01
1.259031317310410070e-01
8.531135757763277927e-02
1.002410868391402921e-01
1.439030808121953275e-01
7.487306012498584629e-02
1.217894770684919137e-01
8.795814077490285432e-02
1.004898031243812995e-01
9.351462538635650634e-02
9.124264426637054837e-02
4.925942943801808749e-02
2.374551809620330245e-02
5.664647978770079306e-02
6.140402649740886454e-02
9.925301338134616402e-02
5.548377685347805066e-02
2.795582626602698476e-02
-3.082037154677232799e-02
3.012886238673347788e-03
2.027946951801776546e-02
2.350668009095429473e-02
4.181572809968710225e-02
3.529516630628570795e-02
2.439018465063035393e-02
1.986936317112972250e-02
3.101085428049111040e-02
2.405361059429075854e-02
4.594786303243035552e-02
1.945762439960998028e-02
4.649443859454151229e-02
7.680013314012754111e-02
4.863102978883465655e-02
1.458556127672005348e-02
4.713043115282021522e-02
-6.425676267787831797e-03
9.534355482331770271e-02
-1.017854918982716989e-02
-2.581543994278126183e-02
1.442060335264124318e-02
5.913778876349669311e-02
-3.790572344542250671e-02
-9.405752668990088883e-04
1.879490090740724983e-02
