1.409191083176006165e+00
1.456299723752535691e+00
1.328822791497899392e+00
1.341310939716844342e+00
1.231362977975276163e+00
1.106305818015277831e+00
1.086734336213884822e+00
9.473466880150807068e-01
8.116085524384984984e-01
6.750979617888277495e-01
6.346127230059833702e-01
5.378181260816470299e-01
4.542239744290653136e-01
3.411600664732051258e-01
3.546627146087478200e-01
2.658565622033322029e-01
2.267341675446004068e-01
1.883389161792755895e-01
1.296580697564244100e-01
5.280137451486187350e-02
1.200102696444826228e-01
8.883462892165544522e-02
1.239647027761100889e-01
1.038991451104613051e-01
7.937308049067491600e-02
9.282159529565683909e-02
9.261094485059478965e-02
1.296987743655065584e-01
1.214613862791899951e-01
1.031706914711705558e-01
1.116541099241711438e-01
7.628601749330277126e-02
5.565899785684378515e-02
8.859321233960072706e-02
1.120625545939061551e-01
1.189565756693907045e-01
1.259761553256034949e-01
1.215512249052254773e-01
1.113886736151146750e-01
1.571042560562635471e-01
2.046242454490933005e-01
1.690096821298910368e-01
1.353267894173034724e-01
1.888114410729966608e-01
1.968917397830456106e-01
1.775211778500851711e-01
1.914846926402194449e-01
2.067037064809248703e-01
1.643573709528926841e-01
1.867736715489809463e-01
2.206338976574439836e-01
2.659742412356760899e-01
2.547895385940128765e-01
2.156757566663108083e-01
2.793830657411027207e-01
2.629466622802977271e-01
2.371693999403965414e-01
2.531904229255023675e-01
2.575923591652597433e-01
2.267161146669556537e-01
2.797873160353657185e-01
2.722644788686344741e-01
2.317643166071291227e-01
2.626652539582501888e-01
2.714925659596949536e-01
2.548972491382925920e-01
2.559578971054115581e-01
2.116493637593068189e-01
2.345638115906607535e-01
2.333918355945618361e-01
2.688269784680903940e-01
2.759236564590983320e-01
2.792904264452557017e-01
2.268567888844589819e-01
2.711953631075152971e-01
2.562551759693609266e-01
1.763855337332701501e-01
2.099883773286050082e-01
2.113861566206715614e-01
1.792818824859283289e-01
1.856858370583965856e-01
1.643500287109236069e-01
1.568844242081471885e-01
1.629583186174985154e-01
1.919729961001267193e-01
1.280507337543338731e-01
1.324984199801656770e-01
1.673654656413613162e-01
8.095578087657502586e-02
1.638727022223664676e-01
1.253416300564303698e-01
1.496198184458010783e-01
1.585760541425699777e-01
5.572042099357168293e-02
8.227968288533353547e-02
7.976034427990393028e-02
4.842260230319018338e-02
1.145197242327059689e-01
6.897838224536818885e-02
1.086008654890924519e-01
4.223903157769311884e-02
4.308699497399311878e-02
1.166629713647564515e-01
7.264559076985635522e-02
4.547696897525499438e-02
-1.019101842589343297e-02
4.982710103690510262e-02
3.906055394312461099e-02
-2.454238377871715421e-02
-1.335363188539347330e-02
2.383267570929969992e-02
3.487258666039506211e-02
-1.940827484040091172e-02
5.325285984035021958e-02
-7.921238924534161618e-03
-2.389836197885113200e-02
-2.805019233497138206e-02
1.734288885589344714e-02
-4.885410553904822803e-03
-1.608703138815955475e-02
-1.503674281563397754e-02
4.408989323842690822e-02
1.672210857680122426e-02
1.566813373176051058e-02
-1.203489374891190435e-02
-1.097307457955142701e-02
-2.919522881508593293e-02
-1.085391872261114166e-02
7.993677826323731042e-03
-2.547522480980628917e-02
3.115851799077098624e-02
-4.071127283061345969e-02
-1.709235812571069726e-02
-1.453322942602369543e-02
-1.846625985523340369e-02
-9.266158876220436519e-03
2.435634215924164722e-03
6.318661289312015039e-03
3.923006403332592040e-02
-6.168042887204356305e-03
6.433772570977484839e-03
7.226604077103765400e-02
2.046603208749544350e-02
2.097609287968856678e-02
1.645015262808432674e-02
-3.993340138784542623e-03
5.934432490024892093e-02
-2.205707012474461895e-03
3.746834471615070883e-02
7.070410390575293524e-03
2.056542842500761262e-02
1.165473769633958157e-02
1.527329768408439842e-02
4.625412609854319401e-02
3.484997562029767959e-02
6.637364249887381384e-02
5.955318833408235202e-02
3.051435737565487763e-02
9.581484992482032503e-02
8.164334721315677501e-02
5.996691165533507561e-02
4.683589739632275373e-02
1.016954883408807409e-01
1.221419054931053294e-01
1.165980179296712271e-01
1.028813630009808994e-01
1.331916526109668542e-01
1.836898650176874148e-03
9.428443556778415280e-02
1.164715712308244666e-01
1.141245448834231485e-01
1.797156360732249381e-01
1.461271068099141424e-01
1.569666504545971508e-01
9.987639823778500514e-02
1.747492757288727772e-01
1.900449101677676167e-01
1.377554349573241188e-01
1.482433130525732112e-01
9.912871331737813096e-02
9.956009623371128714e-02
1.668212661741063918e-01
1.133682641973592919e-01
1.600247570948173104e-01
1.521750534822493006e-01
9.692838127652544933e-02
3.757836530253899632e-02
8.048906809605745061e-02
8.162109345570869867e-02
2.746932650568934681e-02
5.296045179255937096e-02
5.174640747086592385e-02
6.714373843768746408e-02
8.325049051490113206e-02
1.088042652908136898e-01
8.310605988302362246e-02
1.096561605765117575e-01
2.230228280095589710e-01
2.164130325473608840e-01
2.721256629335515598e-01
3.286706632450545618e-01
4.178654938256645690e-01
4.791946572818719385e-01
5.678775989259269297e-01
6.698189245125845126e-01
7.717465419873787980e-01
8.233407128675429565e-01
1.011184264907041497e+00
1.088744818431509831e+00
1.203673125066041738e+00
1.213114158887090399e+00
1.305654277552257492e+00
1.333378267618703594e+00
1.395548401495160240e+00
1.367606492554411135e+00
1.271029824368574035e+00
1.247001658263683810e+00
1.187150110811091341e+00
1.070172969127209939e+00
1.007617860399386833e+00
8.765108097146103727e-01
7.758288513918299989e-01
6.716424916327916605e-01
5.359168543668273443e-01
4.151720809677417745e-01
4.365994614017506548e-01
2.744460022784351305e-01
2.106220902808971784e-01
1.899122113627305097e-01
1.128265797560274730e-01
1.418611464951686496e-01
4.997754760265954443e-02
6.518048002779611161e-02
6.752047815231948524e-02
-6.724192234829041992e-03
2.596457414233810379e-02
2.680052270736033027e-02
7.059203614784256842e-02
5.573683734529081418e-02
8.413159113077409157e-02
3.278791165341635866e-02
2.277298926856146516e-02
8.082058192292149168e-02
2.881203654891174165e-02
7.298920909888059749e-02
8.589068255590064094e-02
5.811591054900355074e-02
5.717032812691113380e-02
7.095334407358652729e-02
2.542727284232589036e-02
1.310632465056283391e-01
8.785049289932120309e-02
8.566093226007769068e-02
1.506423287075552009e-01
8.035058782853024550e-02
7.027751573530433005e-02
1.669090785965180734e-01
1.539094472136293135e-01
1.399388362137599928e-01
1.222473169341325855e-01
2.107677692079139020e-01
1.691444137362504707e-01
1.648958047422568463e-01
1.865756968007198369e-01
1.270027514151784165e-01
1.878362006545123697e-01
2.246363392120298286e-01
1.520404154903669258e-01
1.516779998294804921e-01
1.986952419276291626e-01
1.655399755674605289e-01
1.701794124343434245e-01
2.354491077190300485e-01
2.027560587530876646e-01
2.134832138405849400e-01
1.652572026406848027e-01
2.308303574153282023e-01
2.342526424319708866e-01
2.143813828559116841e-01
1.902230442062625981e-01
2.357145242416994468e-01
2.666845252502438313e-01
2.388867865986719075e-01
2.420275246341225261e-01
1.812115026854538846e-01
2.152905898866671885e-01
1.762306610599090051e-01
2.046960925677911436e-01
1.918845318923657894e-01
1.553939166022689777e-01
1.077091645710652190e-01
1.840239287502004606e-01
2.090825710835741980e-01
1.771960603053233108e-01
1.724948161284917403e-01
1.291677219500151352e-01
1.394421095424901447e-01
1.059996131900523969e-01
1.355318800838350990e-01
1.107815833878219303e-01
1.254419551756417728e-01
1.467552797137570419e-01
3.264765943246526053e-02
7.390486039063789980e-02
5.340605405509742110e-02
4.956394146515136212e-04
6.594789801255469819e-02
3.326193446507222373e-02
1.324324107540711393e-02
3.079024045923060837e-02
1.997079979896306673e-02
1.512923086293992830e-02
-8.334080272144203660e-03
2.765768680576541350e-04
1.871983673958954597e-02
4.888805968211203112e-02
-1.720291041204035504e-02
1.844290892028851298e-02
4.685456916453903387e-03
-1.355713980322882650e-02
1.674587925545457934e-02
-2.373650060345757623e-02
-7.754720503332014625e-03
-2.275101717203298346e-03
-4.217823605846103552e-02
-5.512591721042980897e-02
-3.951178544631069045e-03
-3.118113174119489100e-02
-2.584984126302945079e-02
-2.701945941069584800e-02
-8.973153081142899723e-02
-8.902021571721248361e-02
-2.630480519715455712e-02
-3.703004457391446957e-02
-7.979459217894058209e-02
-1.038711878890950374e-01
-4.877773347024404876e-02
-7.509360908485812613e-02
-3.030184566099872537e-02
-2.074123260100155242e-02
-2.606801035556987473e-02
-5.635108905389305672e-02
-3.066694218118806367e-02
4.147035895978562481e-03
-6.998967819404044999e-02
-3.135726687174353322e-02
-6.610828256982591300e-02
-1.016950403687535837e-01
-6.037389027966937743e-02
-7.037982060084999048e-02
-4.322307811030445812e-02
-3.807531887006013194e-03
-3.957299350387646908e-03
2.334861525733478160e-04
-3.080842802309258915e-02
-7.601794200913988830e-04
-2.310940551038346419e-02
-9.755319373069099020e-02
-6.820556072834872696e-02
-4.662437972271553377e-03
-2.154679373271408543e-02
-8.431951803977093263e-03
2.964360961916184811e-03
-1.347634001700577511e-03
-5.572213594737350506e-02
-1.427684604647918437e-02
-4.783773664033097450e-03
2.680889778133330875e-02
1.672011694127959608e-02
-1.479658404822998402e-02
-1.826503062710221198e-02
5.604994572953146681e-02
7.118569201903304777e-02
7.534179652291458917e-03
5.793837494276789235e-03
4.793217746491708342e-02
4.575882234331483944e-02
3.369249954274813885e-02
1.188076981872243643e-01
5.511434886459515292e-02
5.994435977705783042e-02
5.555227992983893803e-02
9.705500257744609227e-02
4.727843872632171707e-02
1.411304844796822805e-02
4.639249145317525524e-02
1.079210355103105978e-01
8.129493751244154520e-02
7.223479991605835648e-02
1.198967675584438342e-01
6.655776701618357216e-02
1.265522058906350389e-01
9.109818532601826613e-02
3.625292278226520393e-02
6.949765277561764654e-02
1.117086317366140641e-01
6.973731120418505403e-02
1.361392201124042578e-02
8.524537458545830559e-02
5.296142771967830842e-02
1.019661502479466408e-01
8.457861950031919651e-02
2.744956553390846821e-02
1.000755296212327422e-01
1.415606570432071942e-01
1.004942740196751449e-01
4.208131518869236837e-02
2.741771782210185304e-02
1.175713485552366405e-01
1.072563619060968032e-01
1.146699161388314847e-01
1.710024272363875886e-01
2.423764238624883938e-01
3.126473572910057341e-01
3.474394596652065070e-01
4.246177242771654869e-01
5.344374052180689283e-01
6.218035982932855754e-01
6.918284449625402566e-01
8.602589668960390901e-01
9.856908964594427447e-01
1.029382585954503826e+00
1.177732928424723324e+00
1.222333028253556941e+00
1.320434784706794540e+00
1.378932328771865334e+00
1.298400199223776141e+00
1.275048687446250328e+00
1.267930868086228458e+00
1.328308115820477031e+00
1.139590558919706176e+00
1.065252103421266083e+00
9.954591962514816039e-01
9.013747147718772501e-01
7.554186915558889215e-01
6.191931209657857149e-01
5.867196347247111143e-01
4.482946538581475959e-01
3.730818052957218245e-01
2.564553802374523461e-01
1.765920412748010482e-01
1.473877779329231530e-01
1.661069044875396472e-01
1.124325059093637669e-01
8.474776207575049347e-02
1.412824808444654301e-02
6.911884985321367636e-02
-3.113530118741437286e-02
2.100957126974016542e-02
5.244574817166630654e-02
4.044025685020681549e-02
5.079487890545945905e-02
3.723699576538812978e-02
5.504991789282556724e-03
-5.959050436159914199e-03
5.696623257483296454e-03
4.650952341420749869e-02
2.680823686401367922e-02
6.737638735250854605e-02
5.512604299309416950e-02
5.823149913333414140e-02
9.187826939704962781e-02
8.027048335814057634e-02
4.591580299448221741e-02
2.061588751233898315e-02
1.053479580971317248e-01
1.106398537152517014e-01
1.390617166637615754e-01
1.677732037611204818e-01
1.521547671212571118e-01
9.779838925387626669e-02
1.389231851796714212e-01
1.548984819457712991e-01
1.335174732139605969e-01
1.746863974073017411e-01
1.840493892823179822e-01
2.027255253879864383e-01
1.575945191406691592e-01
1.337370260638314490e-01
1.619120680266051826e-01
2.110850174314164440e-01
2.376137343045811035e-01
2.169877026502671225e-01
1.818579594561700319e-01
2.421378002737113178e-01
2.311772669600541119e-01
1.976336205940565360e-01
2.536049993446854445e-01
2.858590704422916406e-01
2.680237804968025328e-01
2.181161587152613546e-01
2.022685481592838286e-01
2.050797442832969220e-01
1.730383635972463918e-01
2.624691382082356972e-01
1.945986861706887616e-01
1.644969400471875676e-01
1.746781154945862835e-01
1.782401999051745345e-01
1.601203366402984274e-01
1.664554907675125928e-01
1.786989657194486825e-01
1.952746999064489675e-01
1.609637731150478923e-01
1.511000786352309500e-01
1.605967443628731617e-01
1.117234532864490038e-01
1.095075114877113592e-01
8.070897855230660389e-02
9.789735523904061210e-02
1.069432113722478123e-01
6.688477880746736270e-02
1.226418846288985509e-01
8.953363273057332594e-02
7.147858074559657049e-02
4.443266868633893862e-02
2.398198123599458442e-02
7.558889825556189268e-02
8.159792183459775583e-02
6.773286780195753032e-02
7.356612113318221347e-02
4.184958867043876013e-02
3.346915977741747594e-02
3.854367840615731400e-02
2.340300301883005418e-02
1.266424132062894670e-02
7.861559582615189334e-03
8.893274474116787121e-03
-2.413173927705339339e-02
3.769115169063831650e-02
3.980729187469483205e-02
-1.055828464885624068e-02
-4.722531033761964009e-02
-1.921251054264432045e-02
3.551333021288632930e-02
2.199938692319941547e-02
4.243817667462512766e-04
-1.647024329371957196e-04
-4.964991807988275441e-02
-5.631630521621514007e-02
-4.105086751994853345e-02
-4.567058092728847052e-02
-4.165121292745540410e-02
2.780113111561791084e-02
-3.854498721058453869e-03
-7.631940221862144880e-02
2.148423393019707750e-02
-1.665265454866227124e-02
-2.869839971464127615e-02
-3.761682592834057759e-02
-9.109563653817570605e-04
-5.832795499215005092e-02
3.457410336833015296e-02
-6.561980026407990274e-02
-2.982679841359612422e-02
-7.110083330058319939e-02
-6.850335132876442246e-02
-3.485743529751266639e-02
-5.416682155820227301e-02
-1.763883046817364686e-02
-4.200456981213930574e-02
-7.121835162941397845e-02
-3.827569894308058968e-02
-8.868629754666706999e-03
-4.460003869073440180e-02
-3.780717294134081086e-02
-3.561994066706302559e-03
-7.161007940559849239e-04
4.823707672393669904e-02
-7.845701381913428030e-03
-1.664565884048977915e-02
2.317124319242164221e-02
-1.943197912104093622e-02
8.197209409817843295e-03
2.559438599386659047e-02
-3.428023617691022124e-02
1.359953706384733202e-02
2.388965150207241275e-02
7.848253586734482701e-02
7.660124638998157265e-02
-6.494475837838374621e-03
7.241094416004408008e-02
6.214071243639193720e-04
7.339892786569926497e-02
5.639620766062573842e-02
2.706251906430068646e-02
7.654031235849327597e-02
7.402333376875724902e-02
9.484393453891915016e-02
7.577694094730293151e-02
8.838194841770323495e-02
8.651349310607708842e-02
4.985149053985411804e-02
8.428811109091396969e-02
5.100188633329449245e-02
1.067198125002538911e-01
1.173295302044500554e-01
1.151476045089145361e-01
1.139234369226923838e-01
1.233375274861096271e-01
1.509276044830632768e-01
8.623496469716512847e-02
1.008123567290592631e-01
1.718225784345493445e-01
8.937640966032497913e-02
1.024753558227331912e-01
1.086634620873264123e-01
9.807883061182412487e-02
9.732875267110763229e-02
1.133663822362465379e-01
9.289284007606302129e-02
1.399589290376916373e-01
9.376184979965378197e-02
9.747074893750913571e-02
1.042344832548424693e-01
7.120495615783403731e-02
1.375248316176516661e-01
6.764686436174378870e-02
1.108195535700613188e-01
1.169123210284822856e-01
7.816670003157429047e-02
1.539320790647390191e-01
1.371218985942476709e-01
1.647231547603258406e-01
2.267190130507406864e-01
2.297896780286821650e-01
3.250238092989782834e-01
3.474513278581736198e-01
4.824554968052108261e-01
6.191614417842874474e-01
6.816190367362539027e-01
7.805863604651642751e-01
8.614419920146775267e-01
1.028362759909442703e+00
1.099613335492045207e+00
1.159038214481147300e+00
1.270363696970172596e+00
1.374063723941663540e+00
1.378286197258157264e+00
1.380059779110453633e+00
1.408175570428249479e+00
1.376497048351654318e+00
1.280109510616324275e+00
1.217187702123062598e+00
1.118156892339572162e+00
9.988141027900990787e-01
8.926786415702803179e-01
8.099698693141205164e-01
8.019782087492938194e-01
5.967309677327753414e-01
4.704150566646451148e-01
4.538899940648697950e-01
3.955874610229636046e-01
2.608341905983236342e-01
2.456686879439246851e-01
1.814336689723051732e-01
1.300210387505456588e-01
1.584380448053853419e-01
8.801614021379471076e-02
3.380666266116483243e-02
7.999032920793411328e-02
1.011413993679606826e-01
4.799948588742475319e-02
6.374560168585430286e-02
5.212076314504024421e-02
9.650882386412099057e-02
6.250994814865754035e-02
8.681502441745324317e-02
6.124933789524758532e-02
4.369043382072003434e-02
1.105210021020354011e-01
1.330874777267190279e-01
2.777420095590812932e-02
6.527226727076883284e-02
6.114256206075642519e-02
1.418393601558903538e-01
1.536084198490163810e-01
7.675515672821346669e-02
1.309996950756893430e-01
7.955176152697182590e-02
1.299658214737918205e-01
1.767057193350525801e-01
1.352408410752939105e-01
1.387679610762259375e-01
1.070533214823051887e-01
2.146770342952326327e-01
1.650417999998908258e-01
1.988307919338611618e-01
2.153834803022063593e-01
2.040257461031226849e-01
2.650811508821796503e-01
2.414147779806337935e-01
2.132869277684694420e-01
2.413421927677493750e-01
1.781129730313208148e-01
1.953661157304137364e-01
2.510599254407921421e-01
2.870469312408683860e-01
2.606469443242540596e-01
2.641389952706381661e-01
2.235347744864089048e-01
2.161653398299552276e-01
2.813341482176228703e-01
2.742940987268965847e-01
2.522988356879924399e-01
2.352912901566188431e-01
2.651740347741952664e-01
2.285941013433006874e-01
2.631024664004066316e-01
1.867452394991645781e-01
2.475851972330021245e-01
2.174542280955957529e-01
1.689836117889828015e-01
2.051053988241408887e-01
2.453671115942215875e-01
2.410795265048122360e-01
1.468513337210982928e-01
1.953842574581742819e-01
1.433639844487435144e-01
2.199260778726172816e-01
1.445531447227751121e-01
1.709390032320708130e-01
1.829485690315210134e-01
1.751131664685049161e-01
1.739562519729181134e-01
1.508474042277711535e-01
1.160576952491349512e-01
1.316849031629811484e-01
1.678010784799116306e-01
1.124841110875820643e-01
1.079837757579098639e-01
1.411044561853721513e-01
9.895869509222567084e-02
1.206609503669502509e-01
7.823009875929964885e-02
3.090672001567913371e-02
7.554939140556135579e-02
9.005082483510137847e-02
8.508426025902780798e-02
6.438457465075621278e-02
6.871268160863652774e-02
7.960578839539392271e-02
9.860227350454067730e-02
4.946689382193576734e-02
5.229161709651602985e-02
2.122682169531619339e-02
3.419535180976569777e-02
6.548633322810570867e-02
3.737336144584103848e-02
4.080253024805188811e-02
8.120542301024812060e-02
9.714055379320238326e-02
4.623952589612015385e-02
3.001969302911036697e-02
7.579706283103079811e-02
3.254003119364036467e-02
-8.886930416701367338e-03
-4.253535027922051431e-02
1.286978105668897844e-02
2.897823464984868730e-02
-1.584312485160854073e-02
5.695369659609950119e-02
-1.734399172697959068e-02
-5.695708849410424657e-05
-6.650396218380320856e-02
1.993559034430503890e-02
3.905876588401212268e-02
-8.379307116742952879e-03
3.552886637015101323e-02
1.093628848776314472e-02
6.612263145206677406e-02
9.275941860309090681e-03
-1.899661069151842990e-02
2.007167934722747446e-02
3.459991928436548236e-02
2.971119748034975819e-02
3.594745711872392863e-02
1.900647977027266136e-02
2.274247125839208572e-02
4.764742783335525200e-02
5.746411511680706019e-02
2.784218015931562429e-02
4.793051986318602048e-02
7.120826082072648222e-02
4.953349566300378759e-02
6.309893568203922554e-02
-7.659603392434141678e-04
4.951549712164869665e-02
4.688873196961857587e-02
1.110069203375695368e-01
7.866781247408717592e-02
1.159827959892357763e-01
4.689098448427835020e-02
1.779556557517342902e-03
6.391472085740387832e-02
3.877724041482453338e-02
5.764708455009293075e-02
1.329875489401919908e-01
5.819954802883174627e-02
1.588109478661574592e-01
1.310500412858753572e-01
8.934736194244707885e-02
1.127190575850657711e-01
1.476586268921048217e-01
1.225400695819225394e-01
1.355951200276877822e-01
1.303562984910855704e-01
1.597726434419150798e-01
2.021796253946162580e-01
1.242811203285543037e-01
1.478333920307848548e-01
1.894519378581185909e-01
1.439771264612234591e-01
1.883897733067171620e-01
1.615827233871708901e-01
1.777293564619439603e-01
1.786977405228364901e-01
1.836568590878388529e-01
1.308937729045122067e-01
1.382516209235738758e-01
1.967235140317421804e-01
2.025154386005918739e-01
2.007284661237327406e-01
1.465757185766932424e-01
1.316558040490763970e-01
2.048887102332337395e-01
1.343682032914728097e-01
1.687629425001311578e-01
1.139093349547093126e-01
1.198730070309452500e-01
9.381799576934463092e-02
1.263528008929211410e-01
1.550414663690055372e-01
1.483668095319297664e-01
1.538542721607421004e-01
1.575911719515600273e-01
1.624021111590092381e-01
2.789105165935415465e-01
2.847116324409404986e-01
3.765175359774994845e-01
4.592221013815539488e-01
4.518972744764672145e-01
5.872399794385522176e-01
6.996541655760484257e-01
8.372620918765214526e-01
9.086138603152650317e-01
9.889899245093847213e-01
1.138512798676936111e+00
1.185363751355967832e+00
1.275678324471415825e+00
1.359249937962357269e+00
1.406224157656688956e+00
1.443734424517528314e+00
1.385621840988756182e+00
1.399666023852923935e+00
1.377807432727061521e+00
1.294622705320948697e+00
1.217274935073703768e+00
1.097610698669075235e+00
1.007512972460584466e+00
8.800765443418295808e-01
7.533005184157801626e-01
6.441232280761992612e-01
5.816047685726549732e-01
4.722506891343619118e-01
4.214289438438182933e-01
2.877693900092472834e-01
2.637277959893766788e-01
2.204235990548329693e-01
1.803302854380903764e-01
1.361842564551771217e-01
1.073947937551264220e-01
1.078656503736067640e-01
5.373100680575407934e-02
1.015016329494443509e-01
1.182081174422405789e-01
1.023136684748310876e-01
1.457190670065199589e-01
1.347495135736490046e-01
1.290013262877435507e-01
5.884046248694149717e-02
1.358548429006571912e-01
1.521258806184666024e-01
8.649919974644158793e-02
8.594893158008336254e-02
1.372872188102627344e-01
1.565914989948156422e-01
1.432541454558296234e-01
1.589857901346334035e-01
2.314569134616074331e-01
1.854152274585615101e-01
1.601463995958673781e-01
1.752249214807533040e-01
1.526852015793638273e-01
2.102441428920231170e-01
2.182304234157635969e-01
2.464072023956659641e-01
2.331101891519765656e-01
2.660777507113641915e-01
2.655628524114760358e-01
2.487039977994796869e-01
2.288694552106786684e-01
2.784980142365066080e-01
2.214676136705711063e-01
1.947994451093960078e-01
2.684666637482342466e-01
2.858111735876327497e-01
2.989432817588899560e-01
3.059958911435666784e-01
3.201775851214631041e-01
3.102746593045144774e-01
2.854767146696128299e-01
2.753175528468664868e-01
2.566534981326928366e-01
2.883883632794425056e-01
3.163850787665618003e-01
2.640328905069520005e-01
3.639877229432578742e-01
2.877208476792193492e-01
2.841068338948280481e-01
2.567324485242092891e-01
2.574712543303702139e-01
2.875291736582611390e-01
2.440085877327308750e-01
3.332023215467942445e-01
3.038399716656305927e-01
2.621925862446573552e-01
2.903700907263395692e-01
2.357541139420677168e-01
2.478376532024664791e-01
2.733622898033434279e-01
2.676325371911101314e-01
2.155816387963153669e-01
2.684685349753212491e-01
2.034059154740431863e-01
2.284194846756012753e-01
2.298179043024323742e-01
2.153117383929874507e-01
1.704706460946762425e-01
1.775761081092520066e-01
1.727991444917686414e-01
2.323340103327007355e-01
1.902283378808746761e-01
1.127639141862119554e-01
9.810664459714925345e-02
1.217542928637740662e-01
1.105788574221001352e-01
1.242374987887341908e-01
1.196903988316303513e-01
1.079627481289524848e-01
1.044781341392697210e-01
1.133961714408691923e-01
1.046307977031187830e-01
9.853833832925673608e-02
1.154123287558035948e-01
8.034647749890498625e-02
5.538019907754267862e-02
8.041938114743471533e-02
7.617004012298554672e-02
-2.350096969589536566e-03
9.430841920380786392e-02
5.623141775379240925e-02
9.339941239200755252e-02
8.816660908630011284e-02
4.967661894599498251e-02
6.828774574445138634e-02
3.392859143638714270e-02
6.121092409452034283e-02
8.531283080036139443e-02
7.275577930421298078e-02
6.781043893435353964e-02
8.964529061857642867e-02
1.782254901348308967e-02
8.168013681852749619e-02
6.743017261219003133e-02
9.036505695700162988e-02
7.856314408259158777e-02
1.230858119559315178e-01
4.519423496696937936e-02
6.169662308341244267e-02
4.336065442555013527e-02
7.251021690433984146e-03
9.021575690546815296e-02
5.691031849488360078e-02
6.639466534104056239e-02
3.119827314821032108e-02
7.658365937222071096e-02
4.680542875568811934e-02
9.018077472525994065e-02
7.098812899946657651e-02
4.425733905069090257e-02
3.812078892355977300e-02
5.710990195018732923e-02
2.932887609537641188e-02
5.855784103381880823e-02
9.129085277126267051e-02
7.693696741542599415e-02
6.001899336248165545e-02
5.366123489609441605e-02
1.035073353627155857e-01
9.028938519369170135e-02
1.029806143103954852e-01
7.634228297138036246e-02
1.206311149526039239e-01
5.681573679429207518e-02
1.139383741597148891e-01
5.037931376699688463e-02
7.974919306121534823e-02
1.478782514638566081e-01
9.389225384444060962e-02
1.277644167095240424e-01
1.046982997717259278e-01
1.774559148828990240e-01
1.553679906958452817e-01
1.473905120797011914e-01
1.258787723098115652e-01
1.931438590467940697e-01
1.531508424004536240e-01
2.008341859601570079e-01
1.715123798060883831e-01
1.963423466315212251e-01
1.232238267003329391e-01
1.781701232119715095e-01
2.026023425220704610e-01
2.291633933190871664e-01
2.045426233072942523e-01
1.802840625174256250e-01
1.767922411513144776e-01
1.334366480676850708e-01
1.803202120998323443e-01
2.209049909842842330e-01
2.263897850914270982e-01
2.127169683696298053e-01
2.044993110030547678e-01
1.852800770767389360e-01
2.229887487943328084e-01
1.542933321481967379e-01
2.114273231053947211e-01
1.805094674620408013e-01
2.107980479186450928e-01
1.550851712373916558e-01
1.609704763478188583e-01
1.310039123706481512e-01
1.370597328766914313e-01
1.416906154158855125e-01
1.587069224189229799e-01
1.332135227396268884e-01
1.351546573554283925e-01
2.050310105049651388e-01
2.244382698299360879e-01
2.447431563977120472e-01
3.866812549452022241e-01
3.638063552494570918e-01
4.379479820570744142e-01
5.083012081039034458e-01
6.196443761531613692e-01
6.673852558053448014e-01
7.896673779729745934e-01
9.255440750067691624e-01
1.071516820782490331e+00
1.147282864494134857e+00
1.177722570736566388e+00
1.325526730360355732e+00
1.406809987787497773e+00
1.450793893243711219e+00
1.460203263336348867e+00
1.463474993598883556e+00
1.384503891425571620e+00
1.378570081783783596e+00
1.266374635197369924e+00
1.221067205078899764e+00
1.128608880522378399e+00
9.817469287112299270e-01
8.557694882584943041e-01
7.699119595291435969e-01
6.497454313661034098e-01
5.592617065066596282e-01
4.778561788791679810e-01
4.302857506434069612e-01
3.386111159870732745e-01
2.722515272019490062e-01
2.636284921370376511e-01
1.731492749572739742e-01
2.102610943968392099e-01
1.273093570760346349e-01
1.969709427661928136e-01
1.792765465493382782e-01
9.630686071421185046e-02
1.483795170964761212e-01
1.039259302818801023e-01
7.381076615442276612e-02
1.261447126743254765e-01
1.314629096080607296e-01
1.009091761870567344e-01
1.616879531153204708e-01
1.119998755920897371e-01
1.930838832835109209e-01
1.907759972661327297e-01
1.210517703866838130e-01
2.108257567727878090e-01
1.546390947536057103e-01
1.867585004312156682e-01
2.263156206180342300e-01
2.123400232957719791e-01
2.045006270547099492e-01
2.154663437817253002e-01
1.661836623635521981e-01
2.621813457251482293e-01
2.236325614488365865e-01
2.483555926089419386e-01
2.321973460454563876e-01
1.825016312294070187e-01
2.244493756200943158e-01
2.536341051111706268e-01
2.663937919718556424e-01
2.747177890082792007e-01
2.874496807797078946e-01
2.754731351433332698e-01
2.725110084134112487e-01
2.581363401948465475e-01
2.762433970460607124e-01
2.235098136990809337e-01
2.869328122812753179e-01
3.279949012225649163e-01
2.790378235471104307e-01
3.165902111613778658e-01
2.851576410755468638e-01
2.255185855829505148e-01
3.244359205816851888e-01
2.870068353815083406e-01
2.858728054982107025e-01
2.864939993807347762e-01
2.895845695905021611e-01
2.742936805851889925e-01
2.738548444907009105e-01
2.980027358246380431e-01
2.459839860739288231e-01
2.305631123238836289e-01
2.963212945592930692e-01
2.332835611368861417e-01
3.011785616304117896e-01
2.186079560616827622e-01
2.346592049565764948e-01
2.685842809191745229e-01
2.261404687098338695e-01
2.886226152121273425e-01
1.784447486759702939e-01
2.514230525365284685e-01
2.179059315583139478e-01
2.044316639519806744e-01
1.506387333814079854e-01
2.060292895829368143e-01
2.325181098018082038e-01
1.932342766094729825e-01
2.380896717473696134e-01
1.769486071138786087e-01
1.223295412541484106e-01
1.364229240813780164e-01
1.936391070886780419e-01
1.443787392777322598e-01
1.398377432813726340e-01
9.964421098520576114e-02
8.687450843679200840e-02
1.249944396584876799e-01
1.257971788676251479e-01
1.260216763442754684e-01
1.391836172463588595e-01
1.061293569864108083e-01
4.658129319680601871e-02
6.327967611037467466e-02
9.377912297038323852e-02
5.261937860099581699e-02
7.708409794934298342e-03
1.140015867733238375e-01
1.684849800925992264e-02
1.224949176326029510e-01
1.341416262322950650e-02
4.659286051580804888e-02
3.563025937459411707e-02
3.567216735322323307e-02
4.571812958029677909e-02
5.488847653609135735e-02
9.304240592218959716e-02
1.176096602014635728e-01
5.920374861404166522e-02
1.696396961482068977e-02
3.673067449110384297e-02
4.175594792065182026e-02
3.147636035895425011e-02
6.098702385460470776e-02
5.025476811086343476e-02
4.248607558134086248e-02
3.063079646284600638e-02
4.145528678715818677e-02
4.144039470321259772e-03
4.516233827538684159e-02
2.974985560648393812e-02
4.860416232459757041e-02
2.192978450326732789e-02
7.978581615541813221e-02
2.800184582242956979e-02
4.699286173536859623e-02
9.293614030117486324e-02
8.031537427241253191e-02
6.577084742679192852e-02
2.084325015310345419e-02
3.566842634957550356e-02
6.483611304460605573e-02
1.187900967662891133e-01
5.689774038780815585e-02
3.255051020556118391e-02
1.726639784539938521e-02
3.966705986209034807e-02
2.752163080276885665e-02
5.163061165693245969e-02
1.063785147254239227e-01
9.140604412928081401e-02
1.036446493018269854e-02
1.635611312872009560e-02
4.879926800857527919e-02
4.799278471544995983e-02
6.484885287194741554e-02
5.560653507791530475e-02
6.714565610455697220e-02
1.165180376033249088e-01
5.724752326571087152e-02
1.896538055626625086e-01
1.593479735968486299e-01
1.092820819232579455e-01
1.303620494136132346e-01
9.766708332867625464e-02
1.835227233416572568e-01
1.836570248293815377e-01
1.695958504294587943e-01
1.778660370517448075e-01
1.725955752780035934e-01
1.902376288693624629e-01
1.920518883845477587e-01
1.455385381685188328e-01
1.794146346850984397e-01
1.342176603957270509e-01
1.962188324548962692e-01
1.851773756138202498e-01
2.065084226996668215e-01
1.187446696245337274e-01
1.710011883205126981e-01
1.554829357528463296e-01
1.872670155198403186e-01
2.036344417561426479e-01
1.132745700540326306e-01
1.937312563473284621e-01
1.264060190649720639e-01
1.676180816397072615e-01
1.240500222447567941e-01
1.633566463055618478e-01
1.446204319088000567e-01
1.685117459264989515e-01
1.232146127570080962e-01
1.688370746401738620e-01
5.753995716635025570e-02
1.703189360642758110e-01
1.619967022852852878e-01
1.922928345186525056e-01
2.255017965990243067e-01
2.831501355829384448e-01
2.722702890199540926e-01
3.517425309152546475e-01
5.218968556010442628e-01
5.775840206335099980e-01
6.509482919667354262e-01
7.620517648657553211e-01
8.904584601013562084e-01
9.479222530746838071e-01
1.110665145991754477e+00
1.211789864357749602e+00
1.240420329917354181e+00
1.371156748684186244e+00
1.403826827392018917e+00
1.436199235796951079e+00
1.350360193139126697e+00
1.384160493793890723e+00
1.360321596954453538e+00
1.309114386804703711e+00
1.177778714144460004e+00
1.150518634055296641e+00
1.010040060457898070e+00
9.326906746721992381e-01
7.884111349351685671e-01
6.935968497376711062e-01
6.023214151980049724e-01
4.208940913153930152e-01
3.380031006558085194e-01
2.933793868147908102e-01
2.487552620669905568e-01
1.948104677866081269e-01
1.924829602039868359e-01
1.675947276080043957e-01
1.089580162330008595e-01
9.628371798609050569e-02
1.295517802038234911e-01
1.114426126170827841e-01
8.844834040518591289e-02
1.055833099022094601e-01
6.258457189878509005e-03
1.125241005582622855e-01
3.563680644848604695e-02
6.419972537042913097e-02
9.140258400616275980e-02
4.291713820571949056e-02
1.057013594976392995e-01
7.458206019791950581e-02
1.240574953563997329e-01
1.149485372573659236e-01
9.045279507795675467e-02
1.239344745152835686e-01
1.711776748379877089e-01
1.470947801648418707e-01
1.579993823145600385e-01
1.449162520615052130e-01
1.755654184825926611e-01
1.930214858266247058e-01
1.699236455744721763e-01
1.551285480100002834e-01
1.698397307296350411e-01
1.959414666122439863e-01
2.420060979304465842e-01
1.718351879912584368e-01
1.921865349446891802e-01
1.815912830637671782e-01
2.016546188344075230e-01
2.687545121756859112e-01
2.505581834287191612e-01
2.322628106720339147e-01
2.099031398614384647e-01
1.976136861483527574e-01
2.195269771310426332e-01
2.397199416537792727e-01
3.092424660361670630e-01
2.107196820686453587e-01
2.489803440924667488e-01
2.947119157456680183e-01
2.328651307892831979e-01
3.012200366281623243e-01
2.714229033044197603e-01
2.593303779086096328e-01
2.781727189254656341e-01
2.526675302718417448e-01
2.587616476997631754e-01
1.719335520463713407e-01
2.105770433302549538e-01
2.558727060428472311e-01
2.139192788030248316e-01
2.301710990612414187e-01
1.519266801087844898e-01
2.286950387556953845e-01
2.207314437455522860e-01
1.692912194765055500e-01
1.631426925785556536e-01
1.505449915070994349e-01
1.509771760783492900e-01
1.584593603848057364e-01
1.469410968218270996e-01
1.886856275427355734e-01
8.486488012700776906e-02
1.202246034230165933e-01
1.320263141259151174e-01
9.988166763253961133e-02
1.475829555059180176e-01
1.273907845138239625e-01
7.599644053614701411e-02
1.279509448120984272e-01
5.460988766105816239e-02
6.146408454486768091e-02
1.366141722160235938e-01
8.991038192115037575e-02
3.961832575585083616e-02
1.164016859151903449e-02
8.940440158795943948e-02
1.244012686813979196e-01
9.374579923705979312e-02
6.733607463835039608e-02
-3.908390540682617903e-03
4.318586322535380301e-02
-4.148045782288586891e-02
1.538225078036567495e-03
2.544373863606533975e-02
4.961704921985481131e-02
2.157423730140620860e-02
6.111108203843673703e-02
3.542314532163393787e-02
3.223761723240407828e-02
7.083552039456936233e-02
2.559549085751355174e-02
4.860648125783437884e-02
-7.403354425964249128e-03
-1.679803639646183788e-02
-3.450090164543766214e-02
-1.329993048195305880e-02
-9.193734122361936836e-03
1.518551626548866884e-02
2.632653893264016304e-02
4.441700124126889138e-03
4.105396534558232446e-02
-1.550395574508707519e-03
9.666138215204050227e-03
-4.021216766872820481e-02
-5.476130070677649730e-02
3.812397602756884690e-03
4.422711926879688976e-02
-6.553863402408094396e-02
-3.494477541274108867e-02
-1.950816242731553268e-02
-1.356344106831073107e-02
-6.923241587884557124e-04
2.988434506595729137e-02
-1.067559260933658750e-02
1.228856103088959983e-02
3.309766425541606910e-02
-4.457169281675936456e-03
-1.625857425487063634e-04
-2.447655971953370188e-02
6.274617222725560606e-02
2.101275928087863176e-03
4.156721039825245212e-02
5.381935995471848200e-02
-5.905220023984289468e-03
-2.884758926876208884e-03
-4.231358267023273279e-02
2.246081774408787216e-02
1.056490844500921136e-02
2.762239311983090070e-02
3.554395467158105726e-02
-2.596538379603489932e-04
3.883609493428863413e-04
6.007010398619433422e-02
1.156370617751773938e-01
1.749823112995871344e-02
2.700902347311309737e-03
7.406852280998418858e-02
4.219765428068197877e-02
8.284177425034526532e-02
7.093971021274513011e-02
1.405781476646681960e-01
8.936766134190218813e-02
1.155795877950588774e-01
4.867401050671518736e-02
9.521229843135990689e-02
9.761539179376935160e-02
1.097826605187617877e-01
8.268020422032040795e-02
1.143400378380893534e-01
1.442659805704470111e-01
1.311342738495606675e-01
1.005412609873335555e-01
1.081577584124638475e-01
1.242694561965960176e-01
1.442718764260327302e-01
1.422511809137868011e-01
1.225209099573800337e-01
5.252890526161277385e-02
1.650053315493324457e-01
1.604672157091159845e-01
1.009751814610298504e-01
5.592216477748354619e-02
1.117328631785867166e-01
1.289527460639535716e-01
5.719956104305910782e-02
9.743719654725209456e-02
8.310712917662338439e-02
4.797449647543060303e-02
8.734107324603807010e-02
4.960365551326877814e-02
8.398997621174397743e-02
6.774167496474708949e-02
1.050201286308098114e-01
1.852468779601182391e-01
1.781121525991686272e-01
2.367959255414495423e-01
2.564590318806946323e-01
4.120219637763934406e-01
4.192998535072595678e-01
5.220777093996752383e-01
6.777487942706436064e-01
7.214033847117649056e-01
8.271850095889710097e-01
9.186164971822105008e-01
1.052992731159510198e+00
1.150504051863456834e+00
1.244708059300243530e+00
1.257516993819431939e+00
1.329182442457714330e+00
1.336841332083853251e+00
1.372697661623459853e+00
1.329543217985224679e+00
1.325984449541035337e+00
1.219857649436929536e+00
1.159248688474933120e+00
1.102788518901973713e+00
9.170250181813264234e-01
8.208448154207523828e-01
6.833384096624598447e-01
6.583249079590175468e-01
5.354025156225665771e-01
4.030074448420147837e-01
3.799551584402396376e-01
2.523878716599895489e-01
1.684415527290860914e-01
2.383614758483983964e-01
1.114109254204714849e-01
4.692542035411630119e-02
1.372556174348590896e-02
5.057454925755724973e-02
2.513116139185233439e-02
1.008981149844197928e-02
4.153602160293433376e-02
-3.137751405465634413e-03
7.275572715308253890e-02
-9.466083477920175793e-03
4.160382762338180745e-02
4.818750576505992367e-02
1.053834279825751064e-01
6.580292399309899121e-02
5.370104241248677829e-02
1.047022486119770501e-01
4.365341683473809159e-02
5.223795291110269051e-02
1.007725299410139608e-01
5.044369916559700989e-02
8.107387758045790649e-02
1.343423901112966445e-01
4.450973621160742716e-02
1.173451032695157770e-01
1.246476179410767882e-01
1.083410930147161999e-01
1.386736369928867341e-01
9.333714757916561355e-02
1.416567956585076116e-01
1.074218635103794672e-01
1.560175611752836478e-01
2.043526809417328394e-01
1.884909965149009214e-01
1.580721577352002527e-01
2.128641212650306813e-01
1.845773453224079375e-01
1.440028892993021614e-01
1.841645976845905919e-01
2.075054450244805671e-01
1.960361085963525096e-01
2.544597756430951319e-01
1.814252047757139996e-01
1.715907404975302308e-01
2.198152945170083472e-01
2.235726896267566655e-01
2.736915150409999220e-01
2.821561756276418365e-01
2.129783798033380027e-01
2.084482808065669657e-01
2.413343976574922056e-01
2.164823731053417410e-01
1.915443233946144130e-01
1.600823914458001651e-01
2.135593570126893548e-01
1.806615499271436720e-01
2.222862201682910821e-01
2.229906639252666745e-01
1.803406995452326023e-01
1.752361133830130369e-01
1.813654597030159299e-01
1.422710559507191497e-01
1.152980137721430487e-01
1.589170405579080625e-01
1.319074516392124696e-01
1.003989897577906021e-01
1.287421051462568911e-01
1.052965634570264125e-01
1.547643205108318876e-01
1.332816214916279218e-01
9.056380811166628297e-02
1.139933786911901947e-01
7.214193732135566750e-02
8.458701117110686840e-02
6.004307271208041141e-02
7.297369456506458407e-02
4.250445097982953613e-02
8.344186297256740714e-02
3.366279071315932125e-02
7.104431965174934360e-02
2.348083792956266042e-02
-2.417403715817941640e-02
4.895129259178777892e-02
4.012427878042072044e-02
5.227648776712692791e-02
2.865253599283677094e-02
2.315204473129349461e-03
-5.335656735046680893e-02
-1.164968950333336584e-02
-2.698192711447709030e-02
-1.323330449219104615e-02
5.041255332987319704e-03
-2.040315705870294344e-02
-4.123163165831091048e-02
9.546683799841811091e-03
1.219904712402379576e-02
-4.140438681380453900e-02
-2.580553547359542774e-02
-7.997147032054356675e-02
-4.170138701820792076e-02
9.569069644347477643e-05
-5.493065638074573487e-02
-2.691841061492063897e-02
-7.632830790284338141e-03
-2.480200840685888031e-02
-3.213734256828773561e-02
-4.519957389288034588e-02
-2.032897591473897467e-02
-7.321316358876109320e-02
-7.239247020285784207e-02
-9.204030266956801654e-02
3.840915333272250376e-03
-4.747735800152576985e-02
-2.891049685982233219e-02
-7.432340787684663108e-02
-3.748113644532119482e-02
-4.145429278316461325e-02
-5.308251364357447627e-02
-9.308558787414825120e-02
-8.290007964310737443e-03
-3.193429541550762973e-02
-9.512814338551071891e-02
-2.965433356655174102e-03
-2.820138288024706674e-02
-4.803725889622312284e-02
1.375194400700923553e-02
-7.078208500511062873e-02
-1.687815451621148960e-02
-8.674605497604309656e-02
-7.123458402850850468e-02
3.504371343866691246e-02
-4.877231242139233591e-02
-2.346191575579652244e-02
-3.072571479764730357e-02
-1.848368918918215364e-02
-2.566358688380306063e-02
5.846508119904357537e-03
-3.844619987782544462e-02
2.936289677103146034e-03
2.897569965507084538e-02
4.772067736756543943e-02
2.821117590497401739e-02
3.124486967564170381e-02
-1.518555599333241274e-02
-3.608859918084711405e-03
5.756132722997517326e-02
5.407333960309901322e-02
4.088192183075414765e-02
-8.895054469563443145e-03
5.554742217684628669e-02
6.033189809637848344e-02
7.366840442761835028e-02
7.261599668190071855e-02
8.773038068770705467e-02
9.972476505177951811e-02
5.801333385414933486e-02
1.159769366148757919e-01
1.197931984572904174e-01
9.807994317553039854e-02
8.986817511588113261e-02
3.798932095837431050e-02
1.150875986469696299e-01
9.979929335904022536e-02
1.402588397643855234e-01
8.353000327240189815e-02
1.136192058552241979e-01
1.042139378244779369e-01
9.263424184024207642e-02
4.883642501474805275e-02
3.119509112893879832e-02
1.170185051362714890e-01
5.725114158026088640e-02
4.298222722694316350e-02
5.872312570711658158e-02
1.183499533964315897e-01
5.813588865570252368e-02
6.155020363172819531e-02
5.362718688215596663e-02
5.293953708117005164e-02
4.442945038033933869e-02
1.250258319177087185e-01
1.460351327584993308e-01
2.132801568670514569e-01
2.144438862319212880e-01
2.365381163596387004e-01
3.810081044063436950e-01
4.056913127996631951e-01
4.990048713305513806e-01
5.731372340603037019e-01
6.903588159014335535e-01
8.014744564618985212e-01
9.140062173534351242e-01
9.410682581849760808e-01
1.093761965291745852e+00
1.234831779455972889e+00
1.263842566589949534e+00
1.295211467751351320e+00
1.363829847062860257e+00
1.367881237903926017e+00
1.352591323074058050e+00
1.280164737078059778e+00
1.258699180707547827e+00
1.177248621873209222e+00
1.083117174765057422e+00
9.040756859690018965e-01
8.711290735653608452e-01
8.039707574029935078e-01
5.857327860204379899e-01
5.399671070447543686e-01
3.692043769889661320e-01
3.379935007429517024e-01
2.765382002206596690e-01
2.057336534058925304e-01
1.099931788713396918e-01
9.851295299640368264e-02
2.334697843549728841e-02
5.619455125656483419e-02
-2.747741921963103851e-02
3.287642049148596646e-02
-8.789082632819730789e-03
6.365506578834306817e-02
-6.730277502578929649e-03
5.807695855467030072e-02
3.611591345339512649e-02
2.858956050709578894e-02
2.895470893026184239e-02
6.067651165620836784e-02
2.051676945996203094e-02
4.317154096163495353e-02
2.116540851864295858e-02
1.386096045670496407e-02
-1.958964596821180515e-02
5.763132306956621209e-02
6.071270518523902426e-02
8.679893305609170939e-02
6.911194467475720304e-02
1.218291062789237378e-01
1.161548521469014383e-01
7.838358555982030684e-02
8.636372304874795347e-02
8.386593103686007522e-02
7.401419393729938290e-02
1.472219607230594862e-01
1.477854781949986263e-01
1.846224393410118292e-01
1.902449334370912848e-01
1.487836952864208806e-01
2.640560273911323752e-01
1.887309504067035681e-01
1.814905427049088305e-01
1.917116073821799049e-01
2.498369202139057998e-01
1.860772252893964640e-01
2.328293478353644363e-01
1.573514616169532920e-01
1.477128558210985820e-01
1.969163846542165974e-01
2.217023042651629638e-01
1.853658649967778738e-01
2.185048475954627922e-01
2.053520088839958513e-01
1.774559426936619388e-01
1.959292865660904326e-01
1.761393189609422316e-01
2.313582083430947289e-01
2.010019426847514390e-01
1.644513240468797877e-01
2.019220532882009811e-01
2.005468724080758935e-01
2.649899154495436449e-01
1.966760148476413006e-01
1.658555276519661503e-01
1.968361618925775491e-01
1.439946808295158864e-01
1.833587553350121413e-01
1.917799752292270732e-01
1.330731650971263558e-01
1.558785931455273222e-01
1.950121723501968829e-01
1.811287527390334495e-01
1.530347172710858072e-01
1.018079765101649187e-01
1.190790593105263973e-01
1.549697172259738576e-01
8.873488509417437609e-02
8.255845046809320853e-02
8.769908747255583670e-02
1.072696011495539031e-01
8.373111028065294281e-02
4.828237753693264550e-02
6.536248472656341901e-02
8.511898081598703869e-02
9.264850624804253643e-02
4.738352308010086028e-02
6.062026183322061917e-02
4.992695306222750401e-02
1.949988707724235187e-02
3.226188241289854042e-02
1.286071282368132784e-02
6.497052001948883104e-02
6.225366580515243747e-02
1.136644389482836803e-02
-2.899502548865388885e-03
1.396265638052737040e-02
4.623334033885086874e-02
-5.614607863881604377e-02
-1.118245630997645457e-02
-2.863403130746354844e-02
-4.128600074989424717e-02
-1.488333206396551603e-02
2.210084054485386001e-02
-3.237049843159541668e-02
-8.051843835185146236e-03
-1.224670022687868870e-02
-5.640698397734879993e-02
-7.624668529811230722e-03
-2.849307311705447446e-02
-8.410502249288381860e-03
-2.037545441813690475e-02
-2.265433248278825307e-03
1.376659964149734572e-04
-7.550266142157048554e-02
-4.473155413843584588e-02
-4.186492634625570836e-02
3.901401469612767597e-03
-2.872364539657248916e-02
-9.328231283070205493e-03
-3.874393820368550456e-02
-7.911871242399400039e-03
-5.016590879592255220e-02
-3.213737744712046734e-03
-2.860574603342246405e-02
-1.390871414933193828e-02
-3.494808709622571063e-03
1.440369896499702623e-02
-1.393901779592396015e-02
-2.816827457254363412e-02
-4.278499043866595963e-02
1.728795943852606820e-02
-1.286455233450362057e-03
-3.746562259050841698e-03
-4.831779927089500243e-03
-6.571892726820363628e-02
-1.987052472326023000e-02
-1.372793402333436115e-02
-1.262303195350904760e-02
1.181036843162766581e-02
2.707205085840634975e-02
3.362319438853375586e-02
1.685909253102934810e-02
4.921346319846277989e-03
4.812320531689102954e-02
2.146886353144436890e-02
5.645902920569727257e-02
4.602655446361383906e-02
8.865121113383084284e-02
4.908997264877298927e-02
5.925488105168569275e-02
7.527663333150112768e-02
2.479287433954021833e-02
8.261281042991887313e-02
1.021387241544668839e-01
5.269462406779792940e-02
4.936408242165209181e-02
1.038174095994361112e-01
6.243067231135898676e-02
1.141978527810726673e-01
1.073443940216249198e-01
1.258645487586115552e-01
1.930774336607550268e-01
1.027391932669538266e-01
9.998408965665225856e-02
1.542113586524166691e-01
1.422415512358645440e-01
1.663779517652077267e-01
1.549999263291396145e-01
1.620587270811723879e-01
1.297463189696741181e-01
1.688244537974071813e-01
1.448992627176521886e-01
1.325590272723897178e-01
1.099959831234256780e-01
9.777469153999585050e-02
7.134898935597973335e-02
6.889177558714978944e-02
9.998794415728134988e-02
6.536929864496032749e-02
1.014246275418744792e-01
2.828779123174192736e-02
7.729588790886790517e-02
9.524004089157417363e-02
6.455986270243631309e-02
1.133303842185615640e-01
9.610698714786748698e-02
1.525336008149259792e-01
2.131404171684338211e-01
2.356094423792425008e-01
2.715847242124776462e-01
3.278854697569392740e-01
3.791200653647601171e-01
5.292637069507192260e-01
6.422745264508559204e-01
7.006157530355444640e-01
8.534376507502399178e-01
9.321650116395507890e-01
1.017328035827834487e+00
1.163583766914696893e+00
1.275090710453159693e+00
1.355684644185827237e+00
1.370553791485598527e+00
1.367684986510590228e+00
1.380806322531120678e+00
1.401616851362868843e+00
1.336020591246835698e+00
1.287450522604216108e+00
1.182264546543303485e+00
1.102627790673633257e+00
9.668808366896531892e-01
8.419760152850266355e-01
7.349151392650189463e-01
6.736261475230908014e-01
5.061818650728657776e-01
4.582871193188984282e-01
3.939097104068282063e-01
3.333227165529305536e-01
2.621577523112480490e-01
1.563405333588642754e-01
1.535643024911367005e-01
1.143467973570363172e-01
1.214703498512232638e-01
1.077923800026816953e-01
1.072260461196086617e-01
6.183609149803927924e-02
8.519716502746096931e-02
9.593854782369165557e-02
6.068165955957281754e-02
7.411423689168458728e-02
6.237482007480102397e-02
4.229977129783778905e-02
3.741765289944352230e-02
9.883936879376510609e-02
1.120067301699341350e-01
1.569033401609223610e-01
9.251435535233890062e-02
1.151211295074020952e-01
1.334419750302462127e-01
1.109939808526099747e-01
1.022144685499596500e-01
1.361332703648584219e-01
1.195291144968561176e-01
1.401265727812701367e-01
1.172939968714235143e-01
2.136820251701019302e-01
1.731394398124034006e-01
1.803137068112879160e-01
1.901719062375172298e-01
2.180773785276023113e-01
1.521079086143223846e-01
2.042260492591793375e-01
1.869433337887335123e-01
2.307499985808632303e-01
2.095145638455545578e-01
2.175147531677296131e-01
2.403330967469522184e-01
2.279822663366203594e-01
1.849388314282777723e-01
1.906037315544254485e-01
2.236899166904466607e-01
2.938283018331186991e-01
2.431178417201679542e-01
2.507714770835287599e-01
2.497868758193291239e-01
2.320156363523167009e-01
2.005397311309093378e-01
2.544732190535631822e-01
2.714324350500195160e-01
2.654917532178254769e-01
2.089292469383419726e-01
2.316848358268620844e-01
2.447392065346168377e-01
2.243334134382152512e-01
2.257797552287197085e-01
2.498643278859383754e-01
2.518967831233592802e-01
2.319941708258908830e-01
2.312312157501300314e-01
2.299083074042321539e-01
2.289813835369897965e-01
2.026799459491483435e-01
2.270507950709769740e-01
2.097541426947995002e-01
1.421538656139793022e-01
2.122206010212610572e-01
2.072004078591273279e-01
1.721750096724097012e-01
1.753590580740613525e-01
1.699725255664262524e-01
1.551767416461130589e-01
1.674583809390582656e-01
1.170857669921612082e-01
1.321362312204646117e-01
9.296882347995830131e-02
9.972854831348210158e-02
1.404373661532357098e-01
7.788456302297569467e-02
4.690504486474100787e-02
6.461272404592507956e-02
8.463583807911295720e-02
9.337067806284893301e-02
1.009124826215006265e-01
6.974109825946037122e-02
7.991750631706794061e-02
8.225163382102959608e-02
5.880434568452840016e-02
9.627843959698438592e-02
9.285904501458236426e-02
7.891428477890784221e-02
5.494217932532105553e-02
8.724118001617214846e-02
-4.938954942590270680e-02
3.401919955377176452e-02
3.557456540663184869e-02
6.378678515123749337e-02
4.642393441860179909e-02
4.145597760215846694e-02
4.541189578615494743e-02
9.619101316720320149e-02
-2.937099379620482925e-03
-4.312569607309232889e-03
-1.467320344092628431e-02
5.177835188215162976e-02
5.160646376457892620e-02
-2.299643666099186745e-04
-6.593928706878060542e-02
5.848327035290587506e-02
6.975719159011377346e-02
-8.864176391224085766e-03
-1.533524195956168998e-02
8.336558714126858505e-02
1.830572044195391199e-02
3.944540303744352439e-02
3.186175162769860902e-02
9.747515925252438901e-03
2.967903395697998187e-02
7.676213061476451494e-02
1.142344223163427874e-01
-2.026652417729496100e-02
3.298141374325155167e-02
3.231787523922433070e-02
4.810975439259186637e-02
2.518574935274854598e-02
2.093978321636574130e-02
-6.726090645939354629e-03
6.369035217412984118e-02
4.738461101547176979e-02
3.648830565631797779e-02
3.607519332507497928e-02
8.632163320035474152e-02
7.381088765678855967e-02
4.780421072606384075e-02
1.322976665308555622e-01
6.002422383417256591e-03
9.684644407064590954e-02
1.338072458444334589e-01
1.012207014642704794e-01
5.114641594145043213e-02
6.359979758348188739e-02
9.586868257814668004e-02
1.306130137370093147e-01
1.904797470607560439e-01
9.060897267658163390e-02
1.106608476617066128e-01
1.038967777571105228e-01
1.253790244128404896e-01
1.349674793929440675e-01
1.155758233546261005e-01
1.730079605377015939e-01
2.004035535466211215e-01
1.568679759972788912e-01
1.934604202532897443e-01
1.828635774760591914e-01
1.832032897444366426e-01
1.300761927644170923e-01
2.343696402315511573e-01
1.689163831919690550e-01
1.745988821993054163e-01
1.688869234558113552e-01
1.946424784130060259e-01
1.918076639705103836e-01
1.501114077482101627e-01
1.791549240597616888e-01
2.272997569512993365e-01
1.651050554190323094e-01
2.046820629324299090e-01
2.175567646334672922e-01
1.820069997929372740e-01
1.140902854261119925e-01
1.554477937735759263e-01
1.423535832729377892e-01
9.399749127877164712e-02
1.236420684487132271e-01
1.495925994312173046e-01
1.340453156028932613e-01
1.193253339967711157e-01
1.850505892056151791e-01
1.630895979572026255e-01
2.152772993365513199e-01
2.271973051487143069e-01
2.224076120454978323e-01
3.369058707605682157e-01
3.499382686608518145e-01
3.960022640503264024e-01
4.496754464057260980e-01
5.579023614088803873e-01
6.542261700723309703e-01
7.567369051707369954e-01
8.493889802814992285e-01
9.580706150478260907e-01
1.063624883636728136e+00
1.195227996953293736e+00
1.263123534775018042e+00
1.310133461920600428e+00
1.420768357877653987e+00
1.434755645825295911e+00
1.401804811122542738e+00
1.413435511359574459e+00
1.403100712885332335e+00
1.321346280668840967e+00
1.233157544338209233e+00
1.150051683834046656e+00
1.021276976123373981e+00
9.364244109990025322e-01
8.034121709775511322e-01
6.797102777509376192e-01
6.380351260552258319e-01
5.294076986658701189e-01
4.528584964294059545e-01
3.129304669884884760e-01
2.569260451892805275e-01
1.971439690940683942e-01
2.244786388078588990e-01
1.295659044970680074e-01
1.288526259417054620e-01
1.657114975284174618e-01
1.835956828027769938e-01
1.281406051219212416e-01
8.095234316035829214e-02
7.955323136419842345e-02
6.818793938261272225e-02
6.712740340468754952e-02
1.338026324077890850e-01
4.412491068641911235e-02
5.320088912961069838e-02
4.983416311275559729e-02
1.848452783868805849e-01
1.321135402201336073e-01
1.334782759838503974e-01
8.784212240505744063e-02
1.379430880511539059e-01
1.456186603125755041e-01
1.517154732015780771e-01
9.934226412740002066e-02
2.383756585268126948e-01
1.914107306472643821e-01
1.826980430430993896e-01
1.454440664011394935e-01
1.942539957670801343e-01
1.889591181260451558e-01
2.157434047951062861e-01
2.299538970425112072e-01
2.195574470328419125e-01
2.152278446111741128e-01
2.759152667083913935e-01
2.450296153567077528e-01
2.443255858467528463e-01
2.474599909330048586e-01
2.489325830101337400e-01
2.835348839602793714e-01
2.138163509118417294e-01
2.986924711825964529e-01
3.230679889187266229e-01
2.395974432490166894e-01
2.859600125363616629e-01
2.655935565026273371e-01
3.245319079664692463e-01
2.544284399039296596e-01
3.121271557725993628e-01
3.596482137282518421e-01
3.525321368116953735e-01
2.685244152521623073e-01
2.974783916496737124e-01
3.079160607542339445e-01
3.365846490783283018e-01
2.591995017735425622e-01
3.116418526853636517e-01
2.971012457633613324e-01
2.767581525056143632e-01
2.830137778389689163e-01
2.641854200535063146e-01
2.889746803152430377e-01
2.534166586610350214e-01
2.650195156243466132e-01
2.256318611018553744e-01
2.361563377050575341e-01
2.078777983661392603e-01
2.372036451287309333e-01
1.551137244824634109e-01
2.198010426210336155e-01
2.267369806091064366e-01
1.494970739806948945e-01
1.693550343566508909e-01
2.188383304007317232e-01
1.347295733453041100e-01
1.731799675107399406e-01
1.362387596035937176e-01
1.559932398872682646e-01
2.089185859707426984e-01
1.201925782438322682e-01
1.707749019570677929e-01
1.193665424555693799e-01
1.587243677871400804e-01
1.328775941436604047e-01
1.067473794273537113e-01
1.298886152181438214e-01
9.355621518609474885e-02
1.188531296439741675e-01
1.171191148057216525e-01
5.292383602537804183e-02
9.857120462038056197e-02
1.274440568514169647e-01
7.425313113758769124e-02
9.447857711093302080e-02
1.043519925399630788e-01
1.166653213349567592e-01
1.182060780901068170e-02
8.232021319562281281e-02
4.235424679228495110e-02
1.504356776509123694e-01
7.984285732970136662e-02
1.151557707181258827e-01
6.070388283467212376e-02
8.246682009878480990e-02
8.342701190084414464e-02
6.980679493247590739e-02
5.704735080080718113e-02
1.140993585836090757e-01
3.426401026421470319e-02
7.695484810157338096e-02
8.780308607935034815e-02
6.693447571590740997e-02
2.666456678738894637e-02
1.142584343830361227e-01
5.993147667666522127e-02
5.023770898567439525e-02
4.036263506714488081e-02
1.813764032286838135e-02
4.263176697281144401e-02
6.247103464572428821e-02
6.329331844512822713e-02
5.053066917934934121e-02
6.456373542763697848e-02
7.068465529311528106e-02
1.804135394968382766e-02
4.716164773296026291e-02
7.470106762870512562e-02
5.414074665621295551e-02
9.478150110645400250e-03
3.344112631440659955e-02
6.733654215612804028e-02
7.447385340328752101e-02
4.715338396298511536e-02
7.027724277915957385e-02
9.002066720409065970e-02
1.080009507625224047e-01
9.388983067440584418e-02
1.026142950000537846e-01
6.747656000760857142e-02
1.168827888580974139e-01
6.751772601723007861e-02
7.678135123023217823e-02
6.931686159267774761e-02
1.255488897615807120e-01
1.292529366196845664e-01
1.738244274091065855e-01
1.144542317891233119e-01
1.731954843209591588e-01
1.518633554765065341e-01
1.325657424712048671e-01
1.606098173528101025e-01
1.917819312283117750e-01
2.129100980964192813e-01
1.542176502112561354e-01
2.014776065369013047e-01
1.772411960311964241e-01
1.357662884173260198e-01
1.701078528792095423e-01
1.557393788020274283e-01
1.507831933477506992e-01
2.219154779976210967e-01
2.069148517398358422e-01
2.366865827942606082e-01
1.428478620685445788e-01
2.009244995400085165e-01
1.902215780967369541e-01
1.636485414807012373e-01
2.399483559276704425e-01
1.924339936625026060e-01
2.200361886372827758e-01
2.193198827957431596e-01
1.922144823033744010e-01
1.788799743203467463e-01
1.990384611778171220e-01
1.210925337629223247e-01
1.371346274174442825e-01
2.070193164121895135e-01
1.134050670924660609e-01
1.378429304830275093e-01
1.771636118330774945e-01
1.379493982171294542e-01
1.833437571742833616e-01
2.236220294154279142e-01
3.201881626214325149e-01
2.577754254408349266e-01
3.468030063393101048e-01
3.687134007628195542e-01
5.085752635987781378e-01
5.847585621555433377e-01
6.629274613505173885e-01
7.067042742396737465e-01
8.686076349369215022e-01
9.848125257999530424e-01
1.061782660123975264e+00
1.135266206828336788e+00
1.224075170876441243e+00
1.353048118337975003e+00
1.433908946009334828e+00
1.430812020605878310e+00
1.485640739221586015e+00
1.459048595035109308e+00
1.375206698503186997e+00
1.319534658300444141e+00
1.277453689653766711e+00
1.160541835829531410e+00
1.072580778445363370e+00
9.105475165380420011e-01
8.555063648213843130e-01
7.322798975708243452e-01
6.575386481619386325e-01
5.582225296847350693e-01
4.887283035632789541e-01
3.582166590643602322e-01
2.983710354507188578e-01
2.641567347661705201e-01
2.192796934215742177e-01
1.653216887111139954e-01
1.759395901119716055e-01
1.378676990410188652e-01
1.125083717772124847e-01
1.121261016920034603e-01
5.083536272448024862e-02
1.379190350037285961e-01
9.704174304634965997e-02
8.975890618588336367e-02
1.305516093666400645e-01
8.598325234346451684e-02
8.461460862568281893e-02
9.272486087101090846e-02
1.644211207853608636e-01
1.045987978755189562e-01
1.470016076133111027e-01
1.140441937254606519e-01
1.811402000727040107e-01
1.665505713168783930e-01
1.302130900653517553e-01
1.368916456812509508e-01
1.698630131495246776e-01
1.943703904618010458e-01
2.560295619539152412e-01
1.015173722046694704e-01
2.624402809737152453e-01
2.227165315030704418e-01
2.795835994687469461e-01
2.118512528844593568e-01
1.673797831545227321e-01
2.708779143688811453e-01
2.450157869592601845e-01
2.900593488335968528e-01
2.549215005138600887e-01
2.729489722832821874e-01
2.608602296035443247e-01
2.662272123379691990e-01
3.043961515254790529e-01
2.921938496954151754e-01
2.662888253406865968e-01
2.546317873404791987e-01
2.285352941369958035e-01
2.926025586818298274e-01
2.798540539244022129e-01
2.451435956451586684e-01
3.307801692615213174e-01
3.473555429994800159e-01
2.611261304392181737e-01
3.039762296379771023e-01
3.161972889283523047e-01
3.215271529779615833e-01
2.890574168880608585e-01
2.432444277631258811e-01
2.592265677302862947e-01
2.720419248319391192e-01
2.223674111733407455e-01
2.415910297850110411e-01
2.829969219040168738e-01
2.523040495919894322e-01
2.495676187922502842e-01
1.973022001960892946e-01
2.131618016473710020e-01
2.455508939065986218e-01
2.298250895239508929e-01
2.596956273049179087e-01
1.857759188890088509e-01
2.383385081239330905e-01
1.719512852799564839e-01
1.970849650580051293e-01
1.530466251713207826e-01
1.260224934366795668e-01
1.931042765103738179e-01
1.893793940964724198e-01
1.468779054109063120e-01
1.420037903405337032e-01
1.169085306059322316e-01
9.332043114200688771e-02
1.662734304224586512e-01
8.421197541115901797e-02
1.143164153697067142e-01
1.138047470413227069e-01
1.700422671798388352e-01
1.385578008978476106e-01
1.250615654986676484e-01
1.016614305148980657e-01
1.134977771455589757e-01
9.476920098895680322e-02
8.164868663782220981e-02
6.610867859069893826e-02
7.929593571923308770e-02
1.137142124301321333e-01
1.760920009667805985e-02
5.228115972197235062e-02
8.101928312553061118e-03
4.177638540046756804e-02
9.982356631934339447e-03
-1.405481570000587099e-02
7.883376765591466884e-02
7.674615508744275783e-02
4.145691061341591488e-02
2.282438063417033952e-02
-6.941771372104919152e-03
5.003781218575468343e-02
4.390715183524087489e-02
5.584326035111715492e-02
7.265161289439056591e-02
-3.641657361627000100e-02
1.441954145817748306e-02
8.987886800802369347e-02
7.195028696328226170e-02
4.430353168577050305e-02
3.248426926028935569e-02
1.551283865522388485e-02
5.666525905650511563e-02
1.166573402379366547e-03
7.093335382150638135e-02
8.978286499468079995e-03
6.170556949567514160e-02
4.740884506396726705e-02
1.138745387047170737e-02
3.734701131703924148e-02
1.266850668871400722e-02
2.889741725717541107e-02
-2.269678689114174377e-02
2.142540837685363853e-03
-1.510202412357364646e-02
4.488594452237959498e-02
8.808988210984554368e-02
9.911726145768080809e-04
-8.738085416281723972e-03
2.575148248637496376e-02
1.562336434809464755e-02
8.037124885466853663e-02
-6.890491231659561649e-03
1.781499375957804054e-02
2.304184812835613147e-02
5.904723481892588943e-02
7.268892344650008941e-03
2.099481404444072247e-03
