1.396624104362370167e+00
1.385048856020129060e+00
1.375116590489278146e+00
1.262199241128419525e+00
1.156337566624729751e+00
1.101586840814420487e+00
9.645618979461647591e-01
9.680014107643247767e-01
8.035074968100124337e-01
7.035649067790259448e-01
5.807013474363350580e-01
5.058135168408611770e-01
4.151258252986532726e-01
3.206316299991165963e-01
2.571597828141446995e-01
2.173942221133442765e-01
1.620881213067504045e-01
1.311586283337639602e-01
1.639169597472868722e-01
1.541442501801244536e-01
3.679536754172127444e-02
1.277148776939440455e-01
8.089255874395971657e-02
2.997165908014467334e-02
8.950375048425607272e-02
8.054662793697935086e-02
1.105135106964007380e-01
6.133417910281807606e-02
1.227538308256373167e-01
1.897316228861901655e-01
1.129441109655132114e-01
1.028864078597926668e-01
1.160403330305710412e-01
1.016181700309079367e-01
1.347825537594669887e-01
8.939606178235547096e-02
1.688098667813328624e-01
1.136382974098257004e-01
1.553166359887471204e-01
1.448321702306550607e-01
1.216036508612653444e-01
1.463587838775574079e-01
2.018098596611341833e-01
1.535499342890138397e-01
2.113081521794307194e-01
1.718091776964839890e-01
1.986318963386297376e-01
2.341512768056717708e-01
2.482174539800509616e-01
2.620046714208699168e-01
2.218010004336386509e-01
2.086361465374355906e-01
2.098772252507846436e-01
2.083513091185749955e-01
2.285712342209587911e-01
2.768773253944565305e-01
2.378512074805042842e-01
2.184375928878013740e-01
2.093449238938824564e-01
2.098585306922588212e-01
2.885265510650119047e-01
2.455566286097129458e-01
2.994360219131065315e-01
2.468817233614309381e-01
2.373865135183214625e-01
2.778812407479611668e-01
2.469979498076929902e-01
2.513691543781160775e-01
2.196043408714478395e-01
2.037920654275841847e-01
2.288497267922087464e-01
2.106507358442242794e-01
2.176417545235116990e-01
2.573314033629190423e-01
2.197258202263684679e-01
2.167012842704882369e-01
2.372943243060492702e-01
1.834240075023876038e-01
2.243542389670551696e-01
2.161099927865172132e-01
1.845729294141954802e-01
1.809301731639686162e-01
2.011085608863924235e-01
1.377214533704163024e-01
1.313255524410065767e-01
1.616188128228923382e-01
1.803047666120027315e-01
8.625767148177411470e-02
1.117343479150905983e-01
1.606155335445837162e-01
5.805098928620294058e-02
1.469895790948785863e-01
7.675907887216204539e-02
7.602129467721205347e-02
1.379243236711105713e-01
7.300104448356679876e-02
1.074213986176373176e-01
1.296211157434020989e-01
8.806366943584589824e-02
-1.248424417617655102e-02
1.091660684223720174e-01
4.584117246572987775e-02
6.108305497704588638e-02
6.297866870572914333e-02
4.646546375219096081e-02
-1.339865056760392546e-02
-6.756330001690281223e-03
7.043022118538193321e-02
3.888873189355562116e-02
6.287118786517682106e-04
1.656989418172512274e-02
-1.646744286200944526e-02
2.804636439495593325e-02
-3.248088640367934044e-02
3.622475254390238736e-02
-1.051656016843300831e-03
4.131379694652262402e-02
2.997951819090744624e-02
-2.685954318825232306e-02
9.829686411163355772e-03
-3.181050044958494416e-02
5.338955857352957468e-02
7.773417157298942448e-03
-1.142611972508873405e-02
-3.093958470258612731e-02
2.069819216696118513e-02
-5.824034191865429255e-02
-9.327441814322885716e-03
1.141484737115913868e-02
2.774284005268221748e-02
-1.867399151831809767e-04
-2.700706365000987708e-02
-8.042576918247328066e-03
-4.189648550585510500e-02
-1.169016612705791464e-02
-2.018225377567016074e-02
-2.194191657542014784e-02
-9.698519871913708831e-03
-1.048307432488093140e-02
1.715660320020839097e-02
1.674344082485354143e-02
-1.894612553412710135e-02
8.392660311425811925e-03
2.151521020202280116e-02
-2.127387197332192975e-02
2.484558709718042574e-03
-1.070528149700388301e-02
1.704565006859906640e-02
-6.638367983120582391e-03
-2.027451280128192770e-02
-2.930509653691948380e-02
-3.236642988398873155e-02
9.179541430821885895e-02
1.241605420610615573e-02
4.789351993004489771e-02
3.388095136170649058e-02
-1.895266981420711677e-02
9.172227862639711904e-02
5.234694120182226129e-02
9.039175441639107217e-03
8.769202439472667532e-02
2.777631291285330775e-02
2.192124168721231933e-02
4.887512908746856344e-02
8.239996886524203479e-02
7.068779505464187207e-02
9.074616081757622132e-02
1.051412448318510828e-01
1.021316810549293547e-01
9.313641765008487394e-02
1.039947826535706915e-01
9.248704290833426045e-02
7.187980590146897386e-02
1.033191908966451106e-01
1.082759617219616749e-01
1.785791342913760626e-01
1.471356331985885779e-01
1.581318782267439604e-01
1.466355300584444021e-01
1.028952105169659292e-01
7.529820172933923694e-02
1.378331423931413169e-01
9.444974069533176864e-02
1.946198009501045600e-01
1.310892791479801867e-01
8.147155070189611437e-02
8.384982023420646524e-02
1.447660420990349583e-01
1.224201925752368414e-01
5.786797480222780066e-02
8.035739052883443534e-02
1.107314372307474509e-01
1.584261705038269574e-01
9.001370874412974177e-02
6.389805140811613549e-02
5.492933486681902955e-02
1.100298731973928801e-01
9.657388034912656183e-02
1.314728403117665367e-01
1.317034367760359370e-01
1.315743984078783790e-01
1.668173745410792830e-01
1.814626777322998763e-01
2.388730252890905459e-01
2.894973771133490525e-01
3.704646787028174071e-01
4.724315269036055143e-01
5.275029132500376194e-01
6.261812792882309742e-01
7.539646742358862008e-01
8.659815723867696491e-01
9.073948548661699975e-01
1.040800634357195609e+00
1.162041776727623432e+00
1.227439744042883474e+00
1.216248862146093179e+00
1.359214101156357879e+00
1.366890766637355759e+00
1.373453610696702132e+00
1.322272552055316686e+00
1.234981956455720287e+00
1.072306302873276662e+00
1.019178425118925535e+00
9.667017569604239302e-01
8.294011832921197591e-01
8.261245640406142954e-01
6.832060266052257802e-01
5.291996043075493095e-01
4.302495964163401965e-01
3.854523838029811911e-01
2.870849769961392739e-01
2.904710784738002705e-01
1.628644856802411167e-01
1.225767915428847554e-01
7.487220292654508946e-02
8.196256721879102702e-02
1.115366311657640663e-01
1.780709287642533861e-02
3.578866574290508890e-02
1.096084720748593672e-01
7.789183010007756647e-03
-1.554550109179750339e-02
6.427281634649825715e-03
3.709524816428452082e-02
5.879746639054477669e-02
2.671454368322835615e-02
4.348175775794303061e-02
5.084353253881068041e-02
1.227120925342287117e-03
1.061173337876619438e-01
8.146301497840474637e-02
1.225590868308270853e-01
6.779587702106590341e-02
1.474450064792888759e-01
5.388409239322158872e-02
5.659678870969461068e-02
1.072893970427556687e-01
5.162504536969638597e-02
6.152643339406758255e-02
1.348921067493510928e-01
1.353277635229827858e-01
1.386179138501518193e-01
8.702322347468398334e-02
1.029583413477260512e-01
1.486705932219379300e-01
1.257628353370854879e-01
1.719840621328584673e-01
1.550968918308688327e-01
2.147639150790127682e-01
2.385973721018849469e-01
2.171043245805635014e-01
1.972740234621055133e-01
1.503295952547140102e-01
1.442505978799952238e-01
2.062390710358083523e-01
2.318428761974468955e-01
2.003672564201999240e-01
2.005074813448455839e-01
2.263524074299856359e-01
2.011600521201283576e-01
2.464408129861065111e-01
1.358940960262670916e-01
2.119583649090885924e-01
2.362868060006780291e-01
1.944186045946577623e-01
1.822772117060215968e-01
1.620488593287275070e-01
1.302080509149963761e-01
2.187944623471554384e-01
2.325300370230159452e-01
2.251861997078140054e-01
1.589570590012768236e-01
1.800130772176059823e-01
1.714282696559947805e-01
1.688900353690407086e-01
1.539798422306530579e-01
1.995699044021935209e-01
1.328296104617378015e-01
1.287640510198900801e-01
9.843863842828098898e-02
1.689947754870315677e-01
1.296343733980291901e-01
1.196666395191364751e-01
1.496157174274006518e-01
6.713967615043148207e-02
7.469946840270337562e-02
1.074842196891795942e-01
1.037708244267133290e-01
4.763973425655794458e-02
5.455849999576707632e-02
2.047028683730791471e-02
7.005441872996939767e-03
9.857383613447867621e-02
-2.034326504122409285e-02
1.922200615825991887e-02
2.925214396287706409e-03
7.348530883027182270e-02
4.351130112377296633e-03
3.907543429534494211e-02
-4.504136191142391749e-02
3.214959114406984453e-02
2.898430581886931451e-02
-1.193751155973287598e-02
-3.942408477835691871e-02
-3.932465261286660629e-02
6.849818424342048184e-03
-2.227640220276438932e-03
4.201496006426719276e-02
-3.274905393225219924e-02
-1.579737852545880922e-02
-7.613414931724184209e-02
-2.702158622196638299e-02
-4.682426556331795164e-02
-2.599512501856756502e-02
7.203744132618067342e-03
-9.151518680980680331e-02
-5.727113248993665612e-02
-9.017873399780183818e-02
-1.372492477157956359e-02
-3.538138195063440794e-03
-3.436365828294581093e-02
-6.744369776259961924e-02
-1.098939419288929020e-01
-2.717601651952025396e-02
-4.242760017669075512e-02
-2.841352725252119932e-02
-3.976616120056092329e-02
-5.910476331118657417e-02
-1.707693044316067887e-02
-7.907198503470252993e-02
-8.218264504356669053e-02
-4.019265096056066217e-02
-1.114001666955305031e-01
-6.685303799993717877e-02
-1.040717545350127171e-01
-7.537958003651250294e-02
-4.151074126964392902e-02
-1.066710308492106463e-01
-5.062696353446251296e-02
-5.689818399285875156e-02
-4.949413176670616754e-02
-3.660774685396900319e-02
-8.238516872879478314e-02
-7.022512936893954283e-02
-1.953043412240381208e-02
2.333239852189898655e-02
-6.214666157600720608e-02
-3.856017413191074883e-03
-6.530322063840759972e-02
-1.368866207373156674e-03
-4.654521921429247144e-02
-3.118371360337050119e-02
5.205572011172998614e-03
-3.189624940338980918e-02
2.358829170382137352e-02
-4.778014897161154961e-02
9.380387706996687336e-03
-8.788024370804781160e-03
-2.431515503668518069e-02
5.094363607689590678e-03
7.065817588547834704e-02
5.450302848172111636e-02
3.960365185024213724e-02
5.554142465065929624e-02
-1.754046287847627755e-02
7.820810413121841165e-02
2.355525880544372813e-02
7.131357322502029916e-02
5.819842727629662149e-02
9.241930704022105481e-02
7.449529026479718985e-02
6.946271501708148333e-02
1.126521053016893426e-01
7.382179645802725010e-02
4.881033308336361898e-02
1.396997973045832619e-01
9.196362640565103330e-02
3.462373417287149813e-02
9.036275748168598465e-02
9.583193024828107198e-02
9.028881938256591577e-02
7.258632413846802245e-02
1.182273980931820984e-01
1.179134232367965301e-01
1.134366473914970447e-01
8.744785273852564988e-02
1.024419212712719129e-01
7.122327742918850568e-02
8.541613276333166749e-02
2.085502565163058208e-02
2.440712490909685561e-02
8.825795236804544197e-02
6.284715521714953623e-02
7.214870745146501063e-02
9.287111573771401896e-02
2.481837653368688945e-02
1.009321409896352661e-01
1.604875578512016954e-01
1.334633790400437392e-01
1.630247474540451047e-01
2.093180240300131500e-01
2.556101250829892479e-01
2.725781617266492818e-01
3.799575484471406916e-01
5.044670900887654463e-01
5.658154678633957602e-01
6.661135817704493256e-01
8.286780528274921842e-01
9.346555632083412002e-01
1.044307766174052965e+00
1.073555590900191703e+00
1.144037200536027532e+00
1.262213459206463551e+00
1.287515457110405492e+00
1.336203208324506342e+00
1.291928689986256984e+00
1.268332085222855454e+00
1.185515763173116133e+00
1.143509636493627468e+00
1.108326661286576309e+00
1.034776441356221488e+00
8.415819486958134865e-01
7.806459638247063015e-01
6.792118804841901225e-01
5.638353248966315734e-01
5.000162416482737404e-01
3.321657819815773682e-01
2.679218657187620867e-01
2.216650582194371610e-01
1.700736771012318904e-01
1.562330215937809408e-01
6.823306510015449133e-02
6.823723323993510781e-02
-3.402100304288349641e-03
5.445435930649228373e-02
1.580281297391614159e-03
1.135234690292016846e-02
2.001786419555375007e-03
-1.438238187738191676e-02
4.894862753982975184e-02
-1.696281488803937781e-02
2.200895975916716818e-03
4.845824488758915943e-02
2.518468108016395229e-02
2.661487128130489432e-03
4.194835773418043035e-02
4.559534757658696702e-02
9.320332482005969088e-02
4.625915835204208459e-02
9.207809288966842254e-02
7.496071572940515848e-02
9.278813112722528178e-02
6.170511068376067360e-02
7.966184753860469647e-02
1.157565203384454400e-01
1.453629150446049401e-01
1.095600966126360487e-01
1.333997578806025153e-01
1.227517277575559396e-01
1.365825820119131173e-01
1.996824623249540409e-01
1.282298003254796481e-01
1.375331660053862592e-01
1.553084420898764029e-01
1.471138543265644305e-01
2.178812417686717684e-01
1.697444698124956353e-01
1.605080718638413062e-01
1.490417184926750849e-01
1.654871675099766071e-01
2.413455108794578807e-01
1.666230166141471625e-01
2.174638750289120959e-01
2.460234861734960643e-01
1.776380190789391411e-01
1.566158687137427230e-01
2.145336964184976769e-01
1.951247828283521057e-01
2.307711489874325617e-01
2.020151670397992705e-01
1.708215044773070956e-01
1.937988606749164455e-01
1.742654045593289569e-01
1.612434474437555165e-01
1.845206801970263877e-01
1.636580125475941561e-01
1.464016380827799502e-01
1.593781543402056355e-01
2.009249164884024663e-01
1.616293811352670640e-01
1.225362604068516575e-01
1.463631157465277999e-01
1.815243252648313932e-01
1.141240978470957068e-01
8.701695675726936474e-02
1.330420093480128851e-01
1.332664442669890259e-01
1.022515964407934297e-01
1.252217293980799617e-01
1.034953160364813218e-01
5.415147871691318449e-02
9.774188629255931016e-02
1.603913036187654684e-01
6.730080760291706765e-02
2.424497165907944785e-02
5.386594689519776102e-02
5.413079947934841540e-02
9.724038520931257978e-02
3.205359592666038454e-02
6.493609725581599157e-03
8.083219727081442096e-02
2.129547297093779823e-02
2.109556591682819338e-03
-2.136277228300695330e-02
5.547599513592202380e-02
2.886067088823326965e-02
-4.195497288632332733e-02
5.283324921235905969e-03
5.736797732307071657e-02
1.222460024269071688e-02
-1.910198821256776924e-02
3.647815543000771515e-02
4.410945707904537910e-02
-2.926156683701773564e-02
2.589021506858372318e-02
2.406523186427134836e-02
-3.080727821408738021e-02
-5.329599854066906228e-02
-1.633024705674179095e-02
1.506339428009963177e-03
-3.735759907649545408e-02
-6.614160951007377887e-03
-4.729007000547548467e-02
-2.391566495866548347e-02
-6.956521540726362529e-02
-3.211629532159439304e-02
-6.571637302855226626e-02
-2.152206338451656195e-02
-4.211794823157256895e-02
-1.117869711471888849e-01
-6.444765747753689045e-02
-4.351777807174361801e-02
-4.923646653432648540e-02
-1.549933472960264916e-02
-3.808582314413437586e-02
-2.560656530931158109e-02
2.378621249847977237e-02
-2.800103639793065369e-02
-1.059088432703926275e-01
-2.107994891451516611e-02
-3.632400832677924046e-03
-1.586341187699151153e-02
-4.102254986667185077e-02
-2.880655063642570748e-02
-4.485374650753279346e-02
-3.903078354275670014e-02
-5.879168026498592103e-02
-6.884509709660834031e-02
-2.184094589923191859e-02
-3.200357588801354403e-02
-3.676472991054213768e-02
-2.873104973276181806e-02
9.298003164653165231e-03
-4.572743031395037905e-02
2.617215753926182067e-02
-2.994947954625259284e-02
3.487167476631426732e-02
-5.170358878691376503e-03
4.440895972352264937e-02
6.847021472574474354e-03
9.283325761806873050e-03
2.891127077927614988e-02
-6.272457132743009672e-03
1.093489130271151424e-02
2.136036350410386309e-02
4.635591308875534888e-02
1.027927158181260736e-01
3.193693097255630858e-02
4.928903146629137755e-03
7.587999502664333207e-02
6.612299395945928082e-02
6.069360793436918977e-02
6.534639230419946043e-02
5.015164593091586687e-02
8.407301901835648184e-02
1.520104469730798602e-01
9.857620935481629931e-02
1.449310427242916921e-01
1.608660687257454369e-01
1.529479463714117082e-01
8.400491834539076941e-02
1.216301628559433162e-01
1.413723439948511018e-01
1.518346279100260543e-01
1.402116876397341838e-01
1.009504254177782251e-01
1.516556167429116697e-01
8.936552542061898530e-02
1.089991074155726158e-01
1.262503665623977145e-01
1.682693113708109978e-01
8.865466431606605635e-02
1.094555485736978390e-01
1.409076380442683962e-01
1.220285069749456885e-01
1.144762053825939679e-01
1.682235491037613606e-01
8.203624430134977275e-02
1.077258452194456012e-01
1.070207451949224120e-01
1.166596976744937175e-01
1.128662743535924357e-01
1.137190888686953061e-01
8.480129162898702999e-02
1.163012180112832916e-01
1.645593279582891477e-01
1.540927483866796899e-01
2.648969614354695357e-01
2.719671116603388228e-01
3.973613170634525682e-01
4.425457075334683354e-01
5.068722725014144226e-01
6.685851583488692240e-01
7.408554783762099083e-01
8.185164702681385629e-01
9.227766000446354644e-01
1.094107088674954875e+00
1.112553580459009428e+00
1.166792846022312702e+00
1.202221730796068977e+00
1.324361530087788896e+00
1.364852759847883679e+00
1.316858267769373869e+00
1.350755039057475848e+00
1.257258285781168494e+00
1.183146514163861296e+00
1.121709584002029025e+00
1.051091677156505533e+00
9.277344467475985290e-01
7.839335120787117583e-01
7.190400055635319809e-01
6.411197812217919179e-01
5.029962794920320723e-01
4.287206391907970038e-01
3.621951879758870674e-01
2.752719092539839818e-01
2.023985051039116911e-01
2.025126135010195672e-01
1.770574872253996568e-01
1.703975534435382966e-01
7.808761422435790689e-02
9.930403486209465891e-02
5.626700834302214571e-02
6.047467711103705901e-02
5.067863659829530132e-02
8.799854919322566693e-02
7.266830661172098138e-02
9.881747786894806707e-02
-3.761222260945974727e-04
9.096105340257709670e-02
3.316296420816008256e-02
1.170490720942996554e-01
1.538886876836832451e-01
6.302889506360505323e-02
8.500356786022618405e-02
2.121109599951757907e-02
1.408334795759824398e-01
7.820316295378743066e-02
1.533841066083954929e-01
1.186397901892878443e-01
1.064117413303702631e-01
9.804820115488896426e-02
1.241449934310654701e-01
1.404008498572099917e-01
8.240450526777604034e-02
1.719397378317042979e-01
1.669234949115288302e-01
1.876773017105711483e-01
1.787461105485466384e-01
2.216662836806299886e-01
1.167789205169876415e-01
2.355388260517770616e-01
2.076356872908470264e-01
2.010083879079772040e-01
2.074848954938988410e-01
1.883425856872646409e-01
2.175503966928617472e-01
2.271103017424667969e-01
2.672400400013085209e-01
2.743914167972619222e-01
2.338534426659681087e-01
2.155238517176464030e-01
2.331396468024263535e-01
2.298255841028357116e-01
2.292306104567988223e-01
2.245663275589729335e-01
2.357910499727015052e-01
2.346244331799033911e-01
2.115983579908174428e-01
2.359687130376867670e-01
2.726131757254537935e-01
2.988840941157902553e-01
2.499290330023662687e-01
2.424390987452202939e-01
2.895606726046498491e-01
2.108826004826220846e-01
2.112426136048265457e-01
2.235651773045385649e-01
2.325682900319261115e-01
2.065226056008883093e-01
2.005785818243674690e-01
1.338943807685926968e-01
1.209956137402720816e-01
1.837368843996879664e-01
1.774265098901035564e-01
1.748429940287061779e-01
1.117831109675986451e-01
1.769968957057879433e-01
1.344417320097298640e-01
1.464448217116705864e-01
1.547738559297753835e-01
1.240059899446839392e-01
9.119484857951268286e-02
1.056845702095488976e-01
1.301664876155800010e-01
1.200537978894122698e-01
9.079572210726623294e-02
9.973965643931526071e-02
1.133646970786837127e-01
9.468287310450193561e-02
7.118306351991222913e-02
8.711583665763904250e-02
4.225284476705460507e-02
7.367164318789963529e-02
6.015874654696356377e-02
1.499957780514305471e-02
1.263313679852690920e-02
5.619803420513649894e-02
6.463993284185667876e-02
8.384149513711450230e-02
2.649203809026799694e-02
2.577720791437829173e-02
2.607734979642137990e-02
1.582915657459973285e-02
6.499345855462614063e-02
4.705711673994157629e-02
6.651139532253350084e-02
5.385250515076205058e-02
4.910058750569287755e-02
5.282264814988746338e-02
1.304117072922758580e-02
5.435732802947933207e-02
1.657100785591921963e-02
8.739338722545873794e-02
-4.834478723789469023e-03
5.151254079582594930e-03
2.262353189319302876e-02
4.972059763438842900e-02
7.368551013197009725e-02
-8.065303331042719681e-02
1.416541279813902411e-02
-9.711576837666543310e-03
8.400090817633495965e-02
8.906798407444030397e-04
3.615987884303452707e-03
5.291863882083455706e-02
4.343592580978962447e-02
3.145788384417302908e-02
2.600288414980958876e-02
5.679856870534053317e-03
8.258921824028007952e-03
-7.301027361689669398e-03
4.463979180021832027e-02
2.104630078435167778e-03
2.137709870948822921e-02
6.410941720668419941e-02
-7.384846464521442611e-03
1.093613587869553261e-02
2.070551647061848882e-02
9.487061220436532327e-02
-2.756181589667460949e-02
5.848116357561891632e-02
2.714748237822316168e-02
7.464362616356118307e-02
8.039899735325499452e-02
5.644378489257975695e-02
3.939716748118772538e-02
7.303134277394415785e-02
4.062051961810680956e-02
6.020035299234582915e-02
6.709887127572707055e-02
7.914896180267477765e-02
1.431716055664455645e-01
1.297662934087536468e-01
1.507624291583697651e-01
1.544340967645428386e-01
1.092457257944054322e-01
1.867385704550135472e-01
1.030067095537676308e-01
1.411565426735058304e-01
1.809093216782990121e-01
1.622084966087727897e-01
1.503171200810390906e-01
1.792173763179411017e-01
1.699199879139943192e-01
1.453495104372437008e-01
1.596765007165826811e-01
1.688468392490405368e-01
1.900040395492262890e-01
1.333487887554663798e-01
1.397943989928361608e-01
2.100606086525904082e-01
1.692822442594194288e-01
1.905555980318180131e-01
1.699093472499279001e-01
1.745115793174239205e-01
1.945473741865405837e-01
1.554717602237709606e-01
1.759973037451282030e-01
1.545532393519342129e-01
1.867611123946794627e-01
1.475372153349157889e-01
1.259675380339659589e-01
1.302739978935396337e-01
1.673180410556415199e-01
1.653293936973377343e-01
1.327031232942968431e-01
1.534529768389998883e-01
1.527697469997073287e-01
1.675000899197419124e-01
1.803225319489260292e-01
1.882112669955193773e-01
2.186435018408744435e-01
2.363996198492192002e-01
2.828447022942222611e-01
3.106287928470082838e-01
4.064217947362119832e-01
4.360361467650371026e-01
5.524991361774479470e-01
6.445392393336626391e-01
7.549485161524334131e-01
8.488157723988571934e-01
9.460650550057491115e-01
1.071166180260914480e+00
1.180655051199418271e+00
1.222610300120553717e+00
1.315665549969087245e+00
1.396707806364263726e+00
1.411358829546814242e+00
1.394731148074270566e+00
1.395057860510577008e+00
1.336202375127753195e+00
1.257571327446025178e+00
1.224088576528118644e+00
1.123535146093603165e+00
1.012176857896584847e+00
8.896729217872734186e-01
7.675160231748781037e-01
7.292476179599263197e-01
5.843298722757120922e-01
5.119034606163408441e-01
4.535751997749958297e-01
3.580479008412583708e-01
2.864301622635832545e-01
2.524924074140796892e-01
1.652828412711905837e-01
1.826072630797795637e-01
1.507684149862154321e-01
1.294854732838540690e-01
1.841935312525439794e-01
7.709154686244526489e-02
1.091672436144681124e-01
1.018838304969415381e-01
5.570404488164109463e-02
1.285914113209315202e-01
9.019755326128230111e-02
1.054142223290349678e-01
1.514682134816064951e-01
1.006902956483174960e-01
9.927130831770865360e-02
1.310304177779594292e-01
1.011277820624605084e-01
1.565329066213197173e-01
1.472515396970913992e-01
1.238214468506510235e-01
1.433613454030004397e-01
1.766819672493661342e-01
2.075855626334123238e-01
1.643805260020834713e-01
1.993982889727743957e-01
1.755610024615253117e-01
1.748548619769158263e-01
2.316028658690464925e-01
2.847086778500719229e-01
2.250732790409746831e-01
1.958276808707979377e-01
2.508867908041758632e-01
2.694597432735404419e-01
2.614243176379421052e-01
2.550991554571130915e-01
2.720015155556462227e-01
2.105107891346969240e-01
2.830040071544112079e-01
2.884009410351256464e-01
2.700904050400701473e-01
2.710867761945011112e-01
3.123562509240274121e-01
3.254543607977687381e-01
3.305729809768402916e-01
2.732605933838203605e-01
2.219398598336071449e-01
3.357166152537534587e-01
2.744775365074276219e-01
3.190769269336193315e-01
3.294684014101535996e-01
2.987274500201916316e-01
2.894340403614318324e-01
3.252491689584170453e-01
2.617113691429216460e-01
3.077959365656376400e-01
2.807367868103028408e-01
2.772390456390605440e-01
3.167239919666166026e-01
2.483487691713289758e-01
1.877272412572786320e-01
2.496145498074429647e-01
2.522588545115478920e-01
2.514741629839465364e-01
2.183534920885268626e-01
2.393235484460847773e-01
2.461106882810137897e-01
2.269829960439378180e-01
2.231390496703216375e-01
1.719273565296768336e-01
2.049159289571373388e-01
1.805266241970844843e-01
1.736566502051686278e-01
1.628450731130916818e-01
1.695676594369636137e-01
1.345340313139046784e-01
1.197922956619345974e-01
1.776258758954532002e-01
1.838261479947149724e-01
1.280426155119592235e-01
1.706207616449080533e-01
1.401651892492794538e-01
8.909489484923535652e-02
1.200590089771454427e-01
1.733240470592077032e-01
1.255493538919746355e-01
9.544476275054317171e-02
1.360350437051187078e-01
7.640603545056236234e-02
9.046913859515005873e-02
1.089683921643106873e-01
7.754204270670034260e-02
6.627272547319620899e-02
5.456582533964614290e-02
9.770356517639856853e-02
1.226603885620124595e-01
6.169701624358003844e-02
2.816162378611375763e-02
4.660787830188137248e-02
9.242657138520732341e-02
9.994091033911683963e-02
8.262182686928787323e-02
7.914534354750484002e-02
8.345254847485142347e-02
6.615786069341410280e-02
6.483774375435739923e-02
5.917713963172650110e-02
2.072007283131702127e-02
5.946569586209111968e-02
6.582484275181960109e-02
5.437318932099706459e-02
5.048807447463524861e-02
4.181770090504367821e-02
1.032728293279319837e-01
5.058649278550635814e-02
1.017805452096238183e-01
7.424823496438942572e-02
3.049310160473971132e-02
8.577745570797652708e-02
1.077420006783977452e-01
6.754515753407647205e-02
7.807174260510910124e-02
8.650859057618723313e-02
1.088290360740167551e-01
3.985065324072419729e-02
6.008760461443009987e-02
4.544729077590658334e-02
9.105751318191665500e-02
6.013168401594162771e-02
3.135814223348305785e-02
1.190199576532916248e-01
4.308960541335430522e-02
5.542422512735478007e-02
6.366595901861595019e-02
6.770782281457149443e-02
9.890609808030820238e-02
9.233000614976072384e-02
7.628977752809078250e-02
8.027815501243593110e-02
9.389381225529694341e-02
7.558623826392757428e-02
5.758558058170283600e-02
1.484719049192960161e-01
5.659151680614330632e-02
7.527460483401815505e-02
1.212839651405530489e-01
8.830944399182458215e-02
1.061887528814305232e-01
1.418778751085680301e-01
1.612625895824936761e-01
1.186097233339559187e-01
1.548295070172576171e-01
1.660698745351401051e-01
1.809241257906322176e-01
1.730265466859168266e-01
1.580505910443989193e-01
1.825586606321581984e-01
1.646916185317121584e-01
1.444043535300388870e-01
2.150628025031258717e-01
1.676145235384014498e-01
1.709350596818373091e-01
2.676118057968897013e-01
2.126361426512838326e-01
1.588294180675278167e-01
1.616807928962719632e-01
2.315048053703861741e-01
1.855560022298609613e-01
1.342392946726237712e-01
1.630042765844181840e-01
1.409898818373230833e-01
1.990175444548279715e-01
1.227533008985293161e-01
2.063708920522162593e-01
1.787664918033920747e-01
1.810071123163277951e-01
1.892064639137752136e-01
2.235281922737536453e-01
1.388125740551715004e-01
1.887436837637544718e-01
1.479658618224338751e-01
1.541546546293137698e-01
1.519119580808319381e-01
1.552166927770022575e-01
2.005249804069144937e-01
1.685086077970378848e-01
2.433413435457534302e-01
3.093605557383279914e-01
3.362905031255524202e-01
4.083608275022941325e-01
4.784254175873493553e-01
5.479139323382078430e-01
6.622459549279181568e-01
7.545493693710655370e-01
8.447171385731102600e-01
9.164026853082275492e-01
1.094446852836307382e+00
1.138047045288705705e+00
1.282337107337151894e+00
1.280810961182006880e+00
1.349217462304296511e+00
1.421590165395783645e+00
1.420798488828558304e+00
1.344478372169483071e+00
1.355062510280998556e+00
1.288185920311880617e+00
1.236992043380449102e+00
1.110462292063637113e+00
1.051737832768585790e+00
9.068922189652774968e-01
8.005676720346571740e-01
6.637830538728271002e-01
5.665526886930293271e-01
5.113811314708237576e-01
4.440613585836753474e-01
3.346475028574129040e-01
2.664476672325935547e-01
2.360866280636451098e-01
2.250374308764009346e-01
1.411856078224611177e-01
1.116264878924140419e-01
1.435854979206246940e-01
7.690085264020191103e-02
1.826082820337717738e-01
1.337656139643244868e-01
7.142025100260943060e-02
1.443720232799683978e-01
9.235477574892728136e-02
1.416407158453006632e-01
1.307353138671574211e-01
1.514306435931826733e-01
1.641940567849507482e-01
7.298153488411424084e-02
1.548978546091242525e-01
2.010806181809724480e-01
1.529679642551800556e-01
1.266520099393847465e-01
1.552512336981335672e-01
1.833878328566074800e-01
1.836629284671428830e-01
1.814307759587823754e-01
2.248522841357136204e-01
2.058241128965136169e-01
1.675699462047921529e-01
2.296405299709398384e-01
1.994785127015197279e-01
2.338983246270630312e-01
2.607602486479942971e-01
2.705938386960206055e-01
2.749199234211102127e-01
2.461679052640464160e-01
2.673964686301903426e-01
2.502636348009008582e-01
2.533217526736568082e-01
2.384871597587421010e-01
2.595993858612709038e-01
2.842204034323483341e-01
3.053799358424867383e-01
3.023809826204988949e-01
2.358910336226167082e-01
2.341463127800062771e-01
3.112840396674789178e-01
2.686262520832755074e-01
2.701508002471038616e-01
3.199729888049984150e-01
2.700082910873021214e-01
2.798641725471963104e-01
2.811874143273776494e-01
2.298640289467276665e-01
2.612822130460246139e-01
2.743625481481383743e-01
2.676287888699656059e-01
2.843284827734949838e-01
2.926628549118976963e-01
3.039047572792809015e-01
2.896154507017074664e-01
2.752401240559144147e-01
2.139136765686731056e-01
2.212252527277707437e-01
2.402373314483479683e-01
2.044437928642748870e-01
2.159713460729595913e-01
2.286706335577115001e-01
2.617820488990624805e-01
2.065982767782064966e-01
1.906962686407279173e-01
2.134170546201116236e-01
1.649421330262766106e-01
2.313742226002048763e-01
2.026822246907623026e-01
1.753039741225741466e-01
1.835741703097278910e-01
1.152778769107199175e-01
1.130830717968798194e-01
1.026807820177608466e-01
1.060439747635628094e-01
1.219883592171210895e-01
1.363485320643001708e-01
1.693702653620133280e-01
1.119525630946109629e-01
8.681607635263927092e-02
4.540504434661356975e-02
1.416640299030796635e-01
9.669883817082719490e-02
3.993044871562969472e-02
4.483198876716047027e-02
1.225879315664624158e-01
5.242463191147016255e-02
7.889790368983887192e-02
1.274189032518146525e-01
7.283113244995881308e-02
9.452106664254747437e-02
9.214377123730732588e-02
9.326022278370044161e-02
6.571439893219964412e-02
1.125287180974629264e-01
6.274098383152867942e-02
3.941812430272853551e-02
3.287886175643818520e-02
6.688527971164523467e-02
6.769671937500974096e-03
4.552191126274797439e-02
2.188598990180259246e-02
-1.050163692902750939e-02
3.894873722108293385e-02
2.892817967075694829e-02
4.298141957548932968e-02
4.124044455261367120e-02
5.537866309346781146e-02
7.861481787376377317e-02
2.723118451221789166e-03
1.426398961630987589e-02
5.329769901424167428e-02
-3.257416501450036833e-03
4.394778291966448119e-02
2.925888578644155608e-02
6.542248012806667345e-02
-3.071841486661839454e-02
1.054229149648807512e-03
3.273665740893622750e-02
7.579633975053115535e-02
7.664523066163872467e-02
2.101879081055713430e-02
2.630767749883335116e-02
-3.209806399595876297e-02
2.157746889495608389e-02
6.809650236138400925e-02
4.904796487134308047e-02
-6.079917716085650459e-02
6.706714241926652054e-02
5.634594803517250367e-02
6.696649804491380809e-02
2.658001856602727753e-02
4.388066075182413261e-02
9.634296487571958334e-02
4.680982314319074439e-02
5.337047156066114517e-02
1.306404741322604035e-01
8.548448439778458252e-02
1.003688638160795399e-01
4.864214280680102809e-02
9.431253629010125095e-02
1.247520211739204382e-01
9.745124199002587473e-02
4.170790633902534544e-02
1.412049008322505128e-01
1.087661080451908513e-01
1.106478371726832832e-01
1.083935202351463123e-01
1.330381504742502163e-01
1.298580256853478776e-01
5.567080746700070470e-02
1.677277889708612690e-01
1.739439088562008962e-01
1.765641182965104750e-01
1.591919662770628907e-01
1.543878470485693655e-01
1.940119879025373473e-01
1.691748416730355087e-01
2.098586768475801945e-01
1.344361919503204439e-01
2.153588835203262275e-01
1.300682159591900200e-01
1.405071530991825746e-01
1.837065488130660285e-01
1.745980399979527586e-01
1.265270357761584807e-01
1.731806155598288322e-01
1.289661761938115658e-01
9.184307142067588137e-02
1.879536187628870481e-01
1.379166423097238081e-01
1.461802191924432837e-01
1.202066894191572421e-01
1.061514228782295816e-01
1.631951720368758352e-01
1.261173775706476707e-01
1.061526354384691173e-01
1.270134453971161759e-01
1.814216677041408654e-01
1.299250050058554928e-01
1.332497142701155046e-01
1.611598683690232403e-01
2.161724832304112720e-01
3.254980362281598705e-01
3.215992473575017274e-01
3.311898240003963712e-01
4.133638674832466053e-01
4.818196043694141228e-01
6.732874863793951725e-01
6.864940865319095753e-01
7.814681992685347245e-01
9.572037589215983688e-01
1.032635575257600413e+00
1.068680496535113100e+00
1.184318577658401317e+00
1.269724612127658192e+00
1.308522401225311604e+00
1.344566484080134572e+00
1.379931223255747241e+00
1.401190706681780584e+00
1.283177189964140430e+00
1.271896908144075189e+00
1.188018096378487654e+00
1.088095715778867323e+00
1.028441528242732828e+00
8.680909336055602221e-01
8.133576152581185603e-01
6.358764768989896288e-01
5.617266241784670822e-01
4.865987049120785723e-01
4.068758674323031399e-01
3.249304018670992056e-01
2.736522410545288997e-01
2.393442260305939373e-01
1.605377389143350653e-01
1.757284707950107217e-01
6.161151980675530493e-02
9.182213834754796022e-02
1.935379140954318622e-04
1.333553948860193572e-01
7.880870993718074036e-02
1.013362067109699755e-01
6.208987031531378042e-02
7.224675749134172598e-02
5.139402981272346571e-02
7.549015220299620799e-02
5.692085454409025191e-02
9.073079941513892410e-02
7.876267171337472672e-02
1.310072102900579627e-01
8.354816073894309747e-02
8.321877906690751392e-02
1.344937152920089585e-01
1.708878827179679538e-01
1.608183282499340006e-01
1.669949844610643108e-01
1.164716901219765011e-01
1.219139560504225311e-01
1.261375695601287539e-01
1.411229964130247261e-01
1.581121609391275551e-01
1.950602725000143700e-01
1.446545160059079793e-01
1.587635271245892710e-01
1.684884977474426504e-01
1.753102945402075785e-01
1.767154710234835890e-01
1.593410784141315040e-01
1.559809545635477412e-01
2.234107768772679026e-01
2.260333410016012179e-01
2.264094716444821076e-01
2.084616303770307766e-01
2.571099418891448773e-01
2.078306533284975388e-01
2.275582118891109618e-01
2.222924910104315255e-01
2.718973963332753097e-01
2.287774354556407486e-01
2.710609322628396156e-01
2.276338784979609065e-01
1.779895628581213696e-01
2.654016444312244927e-01
2.347177426111932141e-01
2.643069849512019176e-01
2.684262546422720996e-01
2.296859463598118212e-01
2.170644614848159792e-01
1.974174165680339932e-01
1.932531819817038810e-01
1.498135805035527846e-01
1.822735511805213537e-01
2.098757946380619133e-01
2.170868305423880040e-01
2.017395871856992873e-01
1.882304981140080491e-01
1.855196590557876002e-01
1.459522268348324436e-01
1.348085100991575913e-01
1.636776157140273358e-01
1.681767448248291663e-01
1.684782811511116585e-01
1.251988180340667389e-01
8.838156144048334162e-02
1.813864729248210184e-01
1.145149453483490232e-01
1.185560299179552884e-01
1.404263639314331236e-01
1.622149169537054902e-01
1.039931784621083155e-01
8.443781000590834529e-02
1.078691452497619885e-01
4.862577520434304551e-02
6.862608948834345024e-02
7.018374809871341657e-02
2.405008840212800869e-02
5.639001733455457216e-02
5.692403250978450568e-02
1.206748880279417610e-02
2.391845147401914021e-02
7.643630805274875817e-02
6.414032482265955015e-02
1.400839919585761262e-02
-2.537755871246566430e-02
3.867911062411803075e-03
-2.907065065435091022e-02
3.115964807912310897e-02
3.532241659125730238e-02
-4.822098089335207644e-02
5.552264723748986941e-02
-2.838213822054281785e-02
-7.211385831738024998e-02
-4.755105307225031969e-02
1.170530177136513972e-02
-3.428541882692196646e-02
-6.488216898536602883e-02
-1.383017456202283862e-02
9.906198497759536453e-03
-3.063292490868951834e-03
-4.176981298253198971e-02
1.684296052629290566e-02
-1.045477919397445887e-02
-1.225513488987655178e-02
5.916258413068770788e-03
-6.119634024563767871e-02
-3.026560762469336294e-02
9.740123033709593980e-03
3.509239843075519921e-03
-8.870000190537862678e-03
-3.637326023306193534e-02
-5.779560954015204588e-02
-4.563889900339773709e-02
-6.288686219197715810e-02
-2.313645085969758680e-02
4.551677307147169310e-03
-2.293558297859215819e-02
-2.807754944237308634e-02
-2.857659594511634954e-02
-3.225667449689140209e-02
-3.949718384247416503e-03
-7.565886387399384239e-04
-3.324964175943515704e-02
9.224817410005827639e-03
3.385128065341553444e-02
-3.060881523837120921e-03
7.897049310824286183e-04
-1.525169293588514094e-02
9.846636178078033846e-03
1.678562279474972094e-02
-2.153187005395720138e-02
1.408769259503005189e-02
-1.637162437323429198e-02
9.706026050038927405e-03
2.003834371087571953e-02
4.820214945726576661e-02
3.880447160853810890e-02
3.147612436018896315e-02
-4.034527736627886718e-04
2.595146360832483595e-02
8.580776975658538364e-02
1.705276871036594255e-02
4.593805990487574709e-02
2.056805903534459148e-02
4.722560784227021469e-02
7.606679088568679692e-02
1.270163395221935998e-01
6.204788764673262874e-02
1.225792672839678965e-01
8.969190683438757472e-02
9.743481781409882303e-02
1.556951911779516085e-01
9.792440173472424791e-02
1.377843967021980809e-01
1.211073732777583900e-01
9.626602437471598606e-02
8.910940485299700953e-02
1.512931562757731940e-01
1.067677605629162862e-01
1.001891693979738707e-01
4.995919217918649846e-02
8.272320550293910113e-02
1.598848546628609535e-01
1.401705596236694773e-01
1.474554657832280735e-01
9.654837401107081718e-02
7.163325327083457095e-02
1.133010708593201465e-01
1.159545331108880195e-01
8.013142309862641977e-02
8.753768891976243527e-02
7.015544515462678044e-02
3.750256426894427869e-02
7.458016719757203095e-03
5.266068200440670449e-02
7.282598609278870261e-02
8.901090170954892300e-02
9.232494328965890062e-02
1.170894551515949400e-01
1.578376045318183041e-01
9.183853511069314801e-02
2.038061263108505716e-01
2.365508199987997606e-01
2.774383230472471928e-01
3.496701824594434793e-01
4.477223756342167960e-01
5.132876406892500354e-01
5.926606942288035196e-01
7.304909847801983602e-01
8.394330218377723529e-01
9.478175891956227561e-01
1.104235654738786820e+00
1.123258902538952331e+00
1.203156468303010485e+00
1.264613190672724263e+00
1.299062128037300035e+00
1.382755821217168002e+00
1.276112059602211746e+00
1.272592365786251900e+00
1.180087587363579660e+00
1.150909629613845242e+00
1.069964626215827108e+00
9.772750651260704302e-01
8.492936729828203246e-01
8.266122216272003831e-01
5.998952630112867057e-01
5.392635990986084371e-01
4.682515198243175081e-01
3.919219420026439082e-01
2.965855286458844997e-01
2.333215525326544360e-01
1.246294924088183764e-01
1.061397495139004554e-01
8.141769792925038218e-02
1.246357547492042694e-01
1.074540796052188829e-01
5.663798277668175701e-02
5.592611235689422255e-02
4.395108301194017297e-02
4.672842561926396354e-02
2.385742071512533813e-02
2.576298071146774366e-02
3.012289441983413696e-02
9.292117274344986744e-03
9.384621478507984560e-02
5.054735814115596942e-02
6.908148879801492837e-02
1.035795402918517627e-01
6.364845995793287636e-02
6.210979706434988090e-02
7.265629381698004985e-02
6.085815344756211054e-02
5.518579698411780338e-02
9.565056017614886885e-02
5.168034963109729985e-02
7.863849717997400957e-02
1.354527725823321815e-01
1.141829215255833058e-01
1.562281358866575709e-01
1.492380502907562911e-01
9.969012351778805403e-02
1.566352492923709372e-01
1.863715260391362316e-01
1.149417609525529432e-01
1.363866028321897295e-01
1.518706513096634847e-01
1.401774412298589789e-01
2.003081119031542567e-01
1.519146846620494928e-01
1.893904977991843763e-01
1.967309219005555221e-01
1.883415793968742646e-01
1.552993978308327416e-01
2.251179076128403400e-01
1.410982081615574368e-01
1.923563934866140968e-01
1.578736229034538585e-01
1.639234683225061495e-01
1.767390693938974411e-01
2.061122867748612641e-01
1.740352282226770853e-01
1.923858946194398623e-01
2.066818244373281044e-01
2.438187594381269752e-01
1.827653471815957886e-01
2.309409424991678561e-01
1.772393725687699817e-01
1.696404366956049403e-01
2.329809482982873325e-01
2.052905557866319952e-01
1.615300662706440626e-01
2.162136279487302248e-01
1.742793378090559120e-01
1.773433706716161795e-01
1.835363364603298797e-01
9.742394304387087811e-02
1.347748886766262644e-01
1.323682375011437928e-01
1.494285137957276910e-01
1.152470624661739995e-01
5.843886816497273484e-02
1.193008420027996674e-01
8.820887416868515574e-02
1.231730719985535683e-01
7.692888535892231094e-02
2.818290718315421411e-02
-2.492910632635555318e-02
-9.503515398577647155e-03
5.791800029913411058e-02
4.391865642086519722e-02
8.676100932145575095e-02
7.189179810757326261e-02
1.772071023853704491e-02
3.641025777333796454e-02
7.108662416789718330e-02
5.410181120529300447e-02
4.583307452701593232e-03
-1.370790970187130142e-02
1.786726374315842497e-02
-3.737527379077040107e-02
-5.077276699891414280e-03
-9.926065230354642888e-03
-2.902255486516888347e-02
6.496873407498673925e-03
1.620511655645760080e-02
-5.851073049365258100e-02
-3.457502250115117304e-03
-3.511512256878045191e-02
-4.301839216181183728e-02
-1.612034194839644108e-02
-3.513167524881531667e-03
-4.023453168716510653e-02
-2.273252692162996622e-02
-9.280559676279726000e-02
-6.203899831842739354e-02
-1.019049262781484416e-02
-8.904801400529083200e-02
-3.709578845823506554e-02
-1.135621544313520498e-02
-2.579122843389597061e-02
-6.031251667361835211e-02
-5.784245832250400898e-02
-4.743352421416773684e-02
-8.697039826077127000e-02
-1.438809198740119144e-01
-3.228531338797389211e-02
2.087491098475387219e-02
-3.200089746254550227e-02
-3.267249190833310113e-02
-6.171868017561289721e-02
-3.286496602028389502e-02
-1.133161327037995880e-02
-5.573192507935746665e-02
-4.246096436832498544e-03
-2.491056528446036755e-02
-3.807557492368995877e-02
-5.594795379407969255e-02
-2.678030197798637879e-02
-3.368689392285431627e-02
-4.503754516771427130e-02
-1.052081113408597501e-01
-2.048226197945814120e-02
2.561381761591273454e-02
-2.259477666786480904e-02
-3.392122219874199596e-04
-8.255239534865524420e-03
-1.916153357142145672e-02
-1.138706579364388849e-02
-4.397308504786576200e-03
3.199347303391102126e-03
-9.435079231593763993e-03
-3.412680723089459023e-02
1.049848300818159025e-02
1.298522834353166289e-05
1.874211721878606129e-02
8.077011574861799048e-03
1.746864905509441096e-02
5.276857832367150281e-03
-1.800456597875425835e-02
5.043039700636282874e-02
1.647734168216544171e-02
-1.680784098860389764e-03
7.643257224923023785e-02
3.964551791075313775e-02
1.171796106822783345e-01
1.027026612295967312e-01
8.968744995778882290e-02
7.746320944528045649e-02
1.306616090966362109e-01
8.438221790591329818e-02
1.386044353241091542e-01
1.352942001726131216e-01
1.739615498169405083e-01
1.395498884796144423e-01
8.592086667898189700e-02
1.174926319170642303e-01
1.451580380109061819e-01
9.452110919927050880e-02
1.309902882285335912e-01
1.265890835406198456e-01
9.110179288456259072e-02
9.851519508922301771e-02
7.181547551530860496e-02
7.219079736999152452e-02
4.689873071492848405e-02
5.669882253212179396e-02
4.360226549867134843e-02
1.036190676699879076e-01
4.283658493541522838e-03
6.883359087595337933e-02
1.088446551664621065e-01
5.973538285588338853e-02
7.631693091417598995e-02
1.169478565417056970e-01
9.219897672810192790e-02
4.457806708035492310e-02
1.331603659101502912e-01
1.681088601416190764e-01
1.994132945409972935e-01
2.586403206930948384e-01
3.214569639230950848e-01
3.851668522163910202e-01
3.959686823423186897e-01
4.976844315981802103e-01
5.807272979444303429e-01
7.508504659042132268e-01
8.532194167759098447e-01
9.403154732693124185e-01
1.028697378463429901e+00
1.144812495818804621e+00
1.215290502589530863e+00
1.260611378167388219e+00
1.283130267306038963e+00
1.319225485962123745e+00
1.274149921344987169e+00
1.239849153313570929e+00
1.209390861545241780e+00
1.160683470113162752e+00
1.062394241574498244e+00
1.017716767152688551e+00
8.864901811483132388e-01
7.560685618059319602e-01
6.744320733193533979e-01
5.916726852121449998e-01
5.078874079608610703e-01
3.738336033440119444e-01
2.464256039518072927e-01
2.153422474677785525e-01
1.805322965737729823e-01
1.168126999834130653e-01
1.522843764409853307e-01
5.457908523613318186e-02
4.758486791202613808e-02
-1.698880164991770081e-04
-4.740941194219929627e-02
6.255280135088177318e-02
-3.263247175824435242e-02
-5.181742744169312576e-03
-2.270683563514411252e-03
4.782524642654525232e-02
2.430738702514431693e-02
5.640329540660998092e-02
8.093497039998609477e-02
4.738715770777755798e-02
7.963062424246411530e-02
9.622667810780591302e-02
1.102340239674926281e-01
4.694046021209891117e-02
6.768282870230869774e-02
3.250286206739434747e-02
7.464789216459664922e-02
9.635102356205295371e-02
6.170167952597440525e-02
1.521857385118234318e-01
1.452010291675599196e-01
1.364417527380803741e-01
9.136460478101797456e-02
1.222708766779503908e-01
1.277246773680273673e-01
1.366243090836390117e-01
1.790266069519669823e-01
1.540908470976119493e-01
1.429943256216124892e-01
1.832970698751466287e-01
1.834432990347433790e-01
1.604543237024182167e-01
2.336150347794083704e-01
1.905732384756163023e-01
2.333958768123922667e-01
1.591342215429097373e-01
2.193740150303131187e-01
1.970922975201304661e-01
1.772356854963298145e-01
1.987927347116713594e-01
2.048843644599850355e-01
1.708758047182746820e-01
2.247902361985590902e-01
2.044998134349066132e-01
2.020083891938742326e-01
1.761060624198336477e-01
1.917860603050151047e-01
2.108257094438356072e-01
2.461352758051091327e-01
1.908712797101063952e-01
1.444800443113409272e-01
1.859698985147530681e-01
2.278454924252292513e-01
2.035724506378892296e-01
1.683433317065576862e-01
1.040112407051520527e-01
2.229353822141158792e-01
1.872699758396311476e-01
1.510386378933385176e-01
1.320103849292138531e-01
1.934384659140001017e-01
1.151671243622909013e-01
1.603598101251224317e-01
1.170579172091031628e-01
1.329746048211831733e-01
1.510859616052334098e-01
1.715630037716240897e-01
9.029675619701851841e-02
5.037444684617902596e-02
1.125369032270287228e-01
9.091012741558954224e-02
1.226096349192529744e-01
8.498462425196928738e-02
1.205786090223473495e-01
5.416294985152489416e-03
7.459128252598441755e-02
3.867999241589208798e-02
3.746459071072220925e-02
8.661032728248603541e-02
2.962672584672469342e-02
3.490914558964971354e-02
-6.812761614492582329e-04
-4.948492819946574695e-03
1.928765297889892261e-03
3.403807162351404902e-02
9.144668460679680755e-02
2.430313398074021927e-02
-6.428483681846494657e-03
-1.973369088504922653e-02
1.918531322320572371e-02
-1.851898013606379303e-02
3.852009561530569948e-02
-1.438542975376424365e-02
-1.017274350494314430e-02
-2.307195262979312711e-02
-4.491619102879746556e-02
-3.715033191750533037e-02
-1.944148142609333774e-02
-1.324322016995265611e-02
1.129363163049253160e-02
-1.901105215601471901e-02
-2.006198906946626837e-02
-3.991373676709246421e-02
-1.390875955616196862e-02
9.012639931566507334e-03
-1.542009113317786492e-02
8.590315333615386462e-04
-4.923435533434231126e-03
6.673318809162789855e-03
9.162121887020042987e-03
-6.670414392820002425e-02
-7.565821646340250770e-03
-6.521737924733915504e-02
9.547323893057815120e-03
-6.089120661384632774e-03
1.493997703810461680e-02
-6.919155209293860465e-02
-3.461961734979902838e-02
-5.645023482392773351e-02
-1.761937965789654725e-03
-2.234089851248331413e-02
-2.836271831356737549e-02
-5.989958627451049539e-02
-6.062458683090715672e-03
6.520640205657547706e-03
-5.509688570586047593e-03
-2.409305706755515003e-02
-2.473349288076010996e-02
-1.837286672105237911e-02
1.193708995055753341e-02
7.094871638674799669e-03
-9.099931410956940692e-03
2.537856548392278602e-02
5.230383696035192931e-02
-2.804945191457167142e-02
3.106992727885795474e-02
1.638275283643327723e-02
1.642424693691335244e-02
6.204557858940122628e-02
3.503918909192705461e-02
6.030529427867126896e-02
9.094044342743545783e-02
7.285118953754025906e-02
1.302408926427177371e-02
6.031683431477460888e-02
8.068599200818982187e-02
1.473480804826258761e-01
1.031670433026457973e-01
1.070786525968394493e-01
1.198084788012671736e-01
1.230986462581024204e-01
1.057530449908690995e-01
1.592197296667486328e-01
1.426270596618766096e-01
1.991881155423665395e-01
1.671454099145069927e-01
1.435826854679135844e-01
1.606075828525911908e-01
1.707434145075722998e-01
1.228503417363803474e-01
1.272455654448980400e-01
6.395869743056048495e-02
1.700667413163318431e-01
1.350165844321192798e-01
1.053607549117600434e-01
1.077175363349805459e-01
7.354190960964980539e-02
9.859135653298209401e-02
1.002065994525358772e-01
1.546189698831579029e-01
9.293916718783909459e-02
1.282153706009925287e-01
1.233365847188650777e-01
1.260889228026884634e-01
9.125352160284186387e-02
9.213829872759954354e-02
1.076157225253945998e-01
1.273719239847617979e-01
1.989520703135668478e-01
1.482136514902997471e-01
9.800095756449324347e-02
2.164495908012985526e-01
3.101283792074515100e-01
3.070855106894615494e-01
3.600963021874895587e-01
4.491066794714196342e-01
4.788282706551208467e-01
6.274387850600449124e-01
7.300684746691862292e-01
8.363606277528811139e-01
9.339049787140042413e-01
1.083628145112747632e+00
1.166363766482492847e+00
1.201410728549321627e+00
1.341524480168260203e+00
1.405753009018252619e+00
1.349678748704850273e+00
1.355929774399900589e+00
1.298286329131763894e+00
1.273494278598556129e+00
1.174712733925350028e+00
1.137403216463501510e+00
9.745531808938453500e-01
9.069707497001613383e-01
8.846092265290843581e-01
7.644737017265136325e-01
5.997631395111183705e-01
4.935396926022764252e-01
4.454898915830690087e-01
3.509707730744445198e-01
2.629474381573390085e-01
2.259282635287225838e-01
1.983225047621665627e-01
1.624515823276682092e-01
1.345848271168430810e-01
1.198720377517823038e-01
5.771704099096371110e-02
8.064950965641795588e-02
-1.134892620478314060e-02
9.924540979570037336e-02
1.047831767529130848e-01
1.892843837118492883e-02
5.988344695757685798e-02
4.538955384803335102e-02
7.817855490752298464e-02
9.493098524804836902e-02
8.668209581099689531e-02
9.895509752680857474e-02
1.734590854981482022e-01
9.630578229885007613e-02
1.400936724394616639e-01
1.321369119867146225e-01
1.285160934725217419e-01
1.077628165688548911e-01
1.579472800673570598e-01
9.221829122887532926e-02
6.895649221805691398e-02
1.993735895941125547e-01
2.443387723206271178e-01
1.869310032450861025e-01
2.241587767777141749e-01
1.815711226409183754e-01
1.787043416369658300e-01
2.330874407418228600e-01
2.015292658622684085e-01
2.091725350657930305e-01
2.439577753852772424e-01
1.983256244008190783e-01
1.925040660160140249e-01
2.369588558071354933e-01
2.835969535113860296e-01
2.363410486201846239e-01
2.619489604016085882e-01
2.464518894061155652e-01
3.071391705421328555e-01
2.711248253757957416e-01
2.437168784277803646e-01
2.763532906760377550e-01
3.036316005549832830e-01
3.321986750662474508e-01
3.179502376540918052e-01
2.786627553190499929e-01
2.358014120850643602e-01
2.260448407061517728e-01
2.834951243948514721e-01
2.409742473097181148e-01
3.004508499808133948e-01
2.260370399334858948e-01
2.631443945449063460e-01
2.026568940234034777e-01
2.521378445172823834e-01
2.980860306757981970e-01
2.538608877501058458e-01
2.173926367345989652e-01
2.224848579282209249e-01
1.591860783267034785e-01
2.111265107552698639e-01
2.551040719816992652e-01
2.140970184057761350e-01
2.047005219271416099e-01
1.826135250904582508e-01
1.613724358780617429e-01
1.861889154109962474e-01
2.174479272497944760e-01
1.191564976423525601e-01
1.118539673855281497e-01
1.282719415945351160e-01
8.250763249078951755e-02
1.163932845085563494e-01
8.461075767874620679e-02
1.589617150395629119e-01
1.285671013800300244e-01
6.221659115828509501e-02
1.312016458901306692e-01
1.138251760274845703e-01
1.309600800923765851e-01
6.937987753193507190e-02
9.817683253543438293e-02
1.349937483255272686e-01
9.991852560432527841e-02
1.361621893377068238e-01
7.410698779647229006e-02
2.174164604231514780e-03
6.433739574528632432e-02
6.815762873760264351e-02
3.353909575208668253e-02
3.442270184555489693e-02
5.122150614040425765e-02
7.764219898039850798e-02
5.009464772400048366e-02
3.291560885245842227e-02
9.534484290881994895e-03
2.442715242067330234e-02
3.961224057601960002e-02
5.302208769617171302e-02
3.709368145717557158e-03
4.366006508306823769e-02
5.734291437281494735e-03
2.888061040132745838e-02
1.259964969565487841e-02
-1.787415125325948762e-02
2.852703951813938613e-02
6.899642072557787137e-03
3.903660440631678830e-02
2.100352478245318122e-02
2.862240419402530683e-02
1.167388471609920458e-01
1.915736969701912346e-02
2.821718100882486188e-02
3.899948561460075958e-02
6.271086320539567827e-02
2.420427513827601296e-02
6.933966044568357079e-02
5.409077208037389034e-02
3.312077511196664936e-02
3.828453913895266125e-02
1.352396002362811836e-02
3.995978453780178741e-02
6.545269242382932562e-02
2.510133560989723581e-02
4.773573385042870210e-02
7.018089699433979756e-02
2.967295012356965106e-02
2.439411154483396571e-02
4.483506320420009572e-02
6.828233002549338737e-02
6.361560183749201403e-02
2.949388009115876466e-02
-1.135668819978984806e-02
8.255329636726999043e-02
1.009112508442806672e-01
7.961672967217719998e-02
6.805051383750024274e-02
3.768776212400098274e-02
1.937799298874266080e-02
1.181190570855407407e-01
1.449472114203980977e-01
1.054351213726134606e-01
1.351616977758056393e-01
1.167808042046890871e-01
1.698507759854107069e-01
1.454805949457496361e-01
1.029439010324216947e-01
1.356715263075777000e-01
1.256922626679888855e-01
1.531019120043740078e-01
1.257933608261911917e-01
1.396452259413617503e-01
2.117819403900696451e-01
1.536223634411433836e-01
2.222548612465874429e-01
1.332284270938578208e-01
1.950844769001534307e-01
1.941714862695160804e-01
1.808994963824894497e-01
1.782850924718877850e-01
2.544997335921397319e-01
1.445221255249114489e-01
1.693940024389645194e-01
1.822930195112136553e-01
1.261733518639542029e-01
1.577263690975908017e-01
1.829720808107914432e-01
1.782692456531625724e-01
1.900211161933769710e-01
1.660550685773558299e-01
2.119758776545014323e-01
1.050479140594888505e-01
1.676560969810182156e-01
1.167441148268544837e-01
1.131708718564486404e-01
1.294778985529227711e-01
1.563390792397006956e-01
1.717100142419615838e-01
1.725403140658693935e-01
2.276278751854100280e-01
1.556153673114772928e-01
1.893849483796551381e-01
2.246378897572285649e-01
3.021228068871715799e-01
3.476824098787016926e-01
4.367456173187642121e-01
4.906132541576191386e-01
5.623651369593519744e-01
6.862326245581306106e-01
7.893399448855156209e-01
8.650813302424105178e-01
9.353013786245318872e-01
1.096847295875552408e+00
1.208364160209420612e+00
1.290163869257989093e+00
1.355821248539448742e+00
1.413709670143913577e+00
1.407772823463861567e+00
1.407746685266038966e+00
1.329683847579790745e+00
1.321776182173417524e+00
1.244560363151377969e+00
1.176702614726401253e+00
1.042377736230190033e+00
9.862385800932900182e-01
8.822175377350506276e-01
7.157083253608768070e-01
6.886135334647531803e-01
5.857459276366334677e-01
4.738901892340664501e-01
3.662916694372310156e-01
3.202572927041821282e-01
2.328594767061303306e-01
2.501873230925722447e-01
1.950631643230553158e-01
1.562130135104173312e-01
1.662006783555330935e-01
1.328321013735023481e-01
1.146909895956505498e-01
8.840809443052366490e-02
5.602577428460366049e-02
1.102011514621558663e-01
1.027231426921348945e-01
4.942213441698652121e-02
1.166308535380764788e-01
8.275588089855917540e-02
1.586848187774315133e-01
1.554726725521042852e-01
1.248041849718915242e-01
1.759013790456566417e-01
1.147675959932890344e-01
1.051919264818124006e-01
1.539865077677833871e-01
1.671623228702074360e-01
2.188282743943414377e-01
2.060994474064635762e-01
1.787722751149923295e-01
2.213802966144903794e-01
1.771528199226957423e-01
1.675964456338346897e-01
2.755457451562888793e-01
1.763519769460916431e-01
2.431522816426668898e-01
2.260375523520773144e-01
2.415993031682596437e-01
2.171674039647668586e-01
2.828224376494486991e-01
2.525760543845292361e-01
3.124774843977572436e-01
3.133266323923359908e-01
2.464437216338557501e-01
3.100536480065008149e-01
3.209885873036985582e-01
2.767627312170825027e-01
2.801424786807780176e-01
2.819021822508735453e-01
2.894881912613489483e-01
3.027647179375188013e-01
3.279860545037155406e-01
3.196450807743562716e-01
3.257166066011683014e-01
2.375251171325441779e-01
2.657491684122307296e-01
3.591399706538909720e-01
3.156555540606897914e-01
3.161975627609261430e-01
2.803570928762247338e-01
3.563997179791033032e-01
2.828641304988831484e-01
3.143775435870687640e-01
2.610101634879032906e-01
2.487198111911445575e-01
2.752788277886683010e-01
2.473497446299257330e-01
2.355572217023196857e-01
2.525521392810224919e-01
2.354562261024415459e-01
2.485814393844269776e-01
2.185293538859631179e-01
2.460360074822305620e-01
1.939687984615454663e-01
2.274695904753875064e-01
2.004160278739192114e-01
1.878429616825352533e-01
1.164656756545131566e-01
1.746814404010367805e-01
1.768084985395088071e-01
1.838971983797118015e-01
1.757938243040775839e-01
1.675800343945278992e-01
1.842398508331229701e-01
1.895482991947090023e-01
1.242131604786979593e-01
1.158664793861610837e-01
1.255840032836427478e-01
1.456316191687165307e-01
1.232919510321893730e-01
1.018757793434357795e-01
1.844563012645261124e-01
1.089236301712151744e-01
1.351122437561972089e-01
8.434383994988944866e-02
1.038889973848487469e-01
9.101270127363846052e-02
6.187902169659459384e-02
8.435364186787551455e-02
3.900628538871762918e-02
4.750682949320554627e-02
2.498834402100807983e-02
1.821861861894986667e-01
8.069326952263609909e-02
7.831544305536491946e-02
9.265457588079856199e-02
6.336727322630178461e-02
4.940467517408179271e-02
1.197475056865789089e-01
6.118060121995920475e-02
2.904807939272874631e-02
5.349834919592452720e-02
5.074221941949875331e-02
1.117556669287538273e-01
1.778897386069290543e-02
7.837865197191112854e-02
2.466109319450568438e-02
8.316133974778902593e-02
4.614659511678700921e-02
7.182607329128005980e-02
2.562000740415326661e-02
3.955939628268721059e-02
3.413423996032610708e-02
2.391805459484892121e-02
7.184092423488140644e-02
6.007720250797237566e-02
2.003911167728200660e-02
4.459472442604655446e-02
4.983979425972680233e-02
3.809288122169472712e-02
6.673115094531407998e-02
5.193276063434561218e-02
7.646244529551105007e-02
6.717064921355928031e-02
6.796094981472267094e-02
1.090656806104572246e-01
4.579132069455489618e-02
7.415846270849357769e-02
8.312047538045191919e-02
2.769395685437777213e-02
-2.976293326263070027e-03
3.132849787925078011e-02
2.070328863520924656e-03
4.972024998932175754e-02
-2.517016474520815394e-03
6.894362396658881842e-02
1.614660770594747441e-01
1.099367634108970038e-01
1.080883931137454207e-01
1.387472350608174865e-01
1.261121909325666479e-01
9.652056017866303406e-02
1.060383955743385009e-01
1.332586770932761011e-01
1.483232836476086614e-01
6.598100274179251323e-02
1.559788264712141936e-01
1.360300369694203981e-01
1.291324615978118873e-01
1.305372691313520517e-01
1.411062746514980260e-01
2.178619882799173180e-01
1.842257924704723548e-01
1.578791447370666567e-01
1.785455062402716564e-01
2.269653247552113062e-01
2.126011459994351371e-01
1.800171926807303813e-01
1.450654612914792640e-01
1.967394102822614121e-01
2.136105342325809731e-01
1.886728719046597558e-01
1.488054163008616371e-01
2.106642529188310076e-01
2.039233196812517968e-01
1.917213438496056244e-01
1.601002783549236030e-01
1.699385235905244151e-01
1.916808595404803084e-01
2.042718295921781002e-01
1.993310108569085748e-01
2.065103234138011834e-01
1.942394719244743551e-01
9.625930726434611673e-02
1.649134384200448555e-01
1.135795383050959839e-01
1.126320426235076083e-01
1.312281566717420078e-01
1.378406972553085363e-01
1.895123116285981346e-01
1.483043680514530005e-01
1.929467102072635054e-01
2.682940137887673271e-01
2.719118109260242333e-01
3.642240612755793250e-01
3.997110674466686775e-01
4.311871135089822005e-01
5.757761278832551621e-01
6.360199926241292268e-01
7.674626769357980605e-01
8.498973105349242330e-01
1.024505615333020758e+00
1.061420872221347178e+00
1.213600546050030093e+00
1.282005175455134260e+00
1.331525712861248545e+00
1.375059216010086516e+00
1.422872875087747069e+00
1.413126825157240418e+00
1.378030858496444910e+00
1.344456985546717220e+00
1.230289346060272626e+00
1.210550509085300597e+00
1.135624113584450257e+00
1.042391943527076981e+00
8.586814343932112070e-01
8.371292715843088317e-01
6.664684633559688764e-01
4.697843907773515681e-01
5.069644216503726986e-01
3.982573116490314424e-01
3.747170714891275844e-01
2.691419876973689673e-01
1.724172981154124817e-01
2.042772855962110556e-01
1.445509235712130747e-01
1.142699475090956374e-01
1.713685396302922492e-01
1.377258505029603231e-01
1.067921180908135981e-01
1.036795883161221732e-01
1.353172347870827130e-01
8.537638636941864700e-02
1.030228704935593209e-01
1.227155573159437463e-01
1.801754141428394684e-01
1.034445063364472783e-01
9.017406254767856844e-02
1.241558981577831344e-01
1.492703396448631648e-01
1.686830787456040648e-01
1.279960306914702806e-01
1.768279259444099916e-01
1.062701742135601923e-01
1.298414795832490976e-01
1.802455302146786231e-01
1.629744456661685326e-01
1.298105854090549627e-01
1.872401336308648634e-01
1.827064253547414086e-01
2.338847246535405155e-01
1.900438536724261274e-01
2.127323805520771327e-01
2.351659137259974608e-01
2.266480637298204925e-01
1.588873857498431241e-01
2.250231977143426210e-01
2.310670740075305429e-01
2.618482917104748009e-01
2.374920546757412210e-01
2.348512506839780800e-01
2.212091763856744997e-01
2.781266918673000466e-01
2.497097651140241237e-01
2.431653992588785340e-01
2.693437456852565415e-01
3.074320893409446254e-01
3.261910742155889609e-01
2.495391724794523425e-01
2.736323107825344714e-01
2.567241072129179402e-01
3.382036910296975507e-01
2.731280235499964348e-01
2.946195139369304772e-01
2.916342351964528734e-01
3.342609329912476501e-01
2.210599953284163310e-01
3.143693875191206355e-01
2.008816785559566775e-01
2.884016611659333540e-01
2.164533400241477334e-01
2.890665506625440528e-01
2.578025959848959658e-01
2.084248313121219165e-01
2.242113788337445346e-01
2.038550623118642324e-01
2.149779504998833857e-01
2.519388742034090467e-01
1.637225580976018335e-01
2.542432003382751327e-01
1.839579881461962940e-01
2.195892049550577929e-01
2.316585009885694380e-01
1.792344491903994919e-01
1.510673284870995559e-01
1.626731238212799358e-01
1.378749142870477895e-01
1.506470325290307499e-01
1.533879076955688980e-01
9.262607809525803815e-02
8.597929059353059955e-02
1.308448071900950305e-01
1.048568516959692415e-01
8.251052830438046493e-02
1.624623972830852581e-01
5.971401304044268721e-02
1.052607923606955764e-01
1.000704376368949933e-01
1.056437842400990285e-01
7.181207848173248864e-02
2.357237988314538762e-02
1.114672840742636922e-01
4.699949105203832245e-02
4.707495427790089199e-02
5.637212152587346703e-02
8.937090071376202483e-02
5.852508166130097889e-02
5.805055036871074881e-02
4.130266494556468493e-02
