1.441842681304166929e+00
1.382043877699157930e+00
1.376844943713279701e+00
1.291525747639945543e+00
1.192343266737301510e+00
1.179025769415026792e+00
1.014519208317907761e+00
8.981050924156627202e-01
8.218145814873329957e-01
6.963807206302532471e-01
5.536499958615302974e-01
5.164115116055806309e-01
3.951298188162999936e-01
3.366156717400480280e-01
3.374221597145638518e-01
1.968531571373567102e-01
1.961765095056382524e-01
1.483723877302303151e-01
1.174785187053524194e-01
9.578863124415096242e-02
1.823938849133322493e-01
1.151847650845748000e-01
3.766979277779559931e-02
9.062559834228689493e-02
5.154888128991377827e-02
8.821707548321496006e-02
1.081890828417918643e-01
9.069428780306104665e-02
1.578166552479257634e-01
1.132892759160588625e-01
6.194128812938791417e-02
7.687908242643226586e-02
1.054177706363886996e-01
1.108944048306398644e-01
1.685992848610066985e-01
1.577333743334048688e-01
1.093800300746553406e-01
1.517453581326798084e-01
1.475199668559015187e-01
1.353813873640396792e-01
1.506487347713335034e-01
1.502081616180135637e-01
1.717367702169618759e-01
1.729710280342263429e-01
1.965024370072512017e-01
1.996736186512692302e-01
2.058105941577699771e-01
2.073673806215291793e-01
2.130368934351825339e-01
2.267994522516524614e-01
2.107794142798975201e-01
1.902527348860073575e-01
1.792266388258672571e-01
2.637311439089140008e-01
2.739243161999249665e-01
2.182152934106461328e-01
2.212835388201622455e-01
2.518684136543976049e-01
2.997300381281252646e-01
2.736512848872226789e-01
2.519483099184635089e-01
2.571944066323464950e-01
2.531846592301510435e-01
2.558226500063831566e-01
2.470835967724357429e-01
2.495999345112813739e-01
2.647211399764253792e-01
2.114741722728026851e-01
2.465412222834415246e-01
2.388328696638950255e-01
2.820579755955700541e-01
2.054227903475419892e-01
2.844758274565676870e-01
2.244719011033755041e-01
2.034027827898863272e-01
1.697825216696241257e-01
2.156123048923456464e-01
1.715518243965864220e-01
1.576264953420377091e-01
2.277767701833904312e-01
2.087598961936515118e-01
2.159751503345291312e-01
1.319393626946261944e-01
1.699844697074614219e-01
1.839221114398126022e-01
1.393896271242252571e-01
1.219703932992627082e-01
1.445481788369274712e-01
1.339532941997731985e-01
1.248802478711567437e-01
1.113282794956937660e-01
1.401509202898403861e-01
1.185764497360095315e-01
1.174499458703544136e-01
1.473298301437341862e-01
1.548029090861398893e-01
1.205489734991330997e-01
9.099239943407987086e-02
7.498647884067313751e-02
8.153830041130238904e-02
8.417750461011853577e-03
9.653429058250356798e-02
5.348402765850739093e-02
5.293931038378247439e-02
2.404767646463915748e-02
1.430885478175629964e-02
5.948350295117516007e-02
2.005304001478424442e-02
6.404405305638639911e-02
-6.868390507333106340e-03
-7.438370359160435472e-03
-8.510415641028130224e-03
-2.415602556408177892e-02
4.331877337254036453e-02
7.736428522099941460e-03
-7.935099305136864706e-03
3.879267091651342203e-02
-3.547060046930168575e-02
2.603639620096076523e-02
-7.087992105374507287e-03
1.032256991961197704e-02
1.234739998776772721e-02
2.977711194106569259e-02
1.668635562618799723e-02
1.885971397766789126e-02
1.828829912977526784e-02
-3.208550167284231203e-02
-3.464029980720052110e-02
-5.416233811023622724e-02
-2.967894991581159631e-02
7.256533229186189898e-03
-3.482829397693535528e-02
3.785716375529075972e-02
-3.960098450912381135e-02
2.170105134877194780e-02
-5.009482887679135056e-03
-2.404834216901449717e-03
-2.071715678646582348e-02
6.383667099143250367e-02
-3.001232768756580127e-02
2.455664766834755874e-02
-1.341523584244698995e-02
2.957464960614548249e-02
1.360174985339527784e-02
4.652972248436181013e-02
4.843983073040988158e-02
4.063417248069942089e-02
6.296739066900958193e-02
-2.242750162912632989e-03
2.749124931981927408e-02
2.566071356365875675e-02
2.062751291543164431e-02
8.327588291593299163e-02
1.004317192205906040e-01
1.087327759266219496e-01
7.491696512301111721e-02
1.257021181098856299e-01
1.154736753899658630e-01
1.340851033662954495e-01
1.025009803664662239e-01
8.627120479451697022e-02
1.237700499082169669e-01
1.175806100871786414e-01
1.208356101642262537e-01
1.559661459658844840e-01
1.144666908405129607e-01
1.891731195685915912e-01
1.263635873170955437e-01
1.567700163317705397e-01
9.853591987078019754e-02
9.463103756660067034e-02
9.940963818308003186e-02
9.044200484715606003e-02
8.616114946084500736e-02
1.466859257078038381e-01
1.539686070319848388e-01
1.358510219984402079e-01
1.052322434961981273e-01
1.292877380097354201e-01
8.855476502778758530e-02
7.689488016386493430e-02
3.711705825398178837e-02
4.379271210617063925e-02
7.969515660258731649e-02
8.776131849685561703e-02
1.192615103484219036e-01
1.175013732435260666e-01
1.362128381818271672e-01
1.312600271675626040e-01
1.585025466499578040e-01
1.777598235909523816e-01
2.531795680860068898e-01
2.688059856819945415e-01
3.917139861749009411e-01
4.139842959162541303e-01
5.456481284877668925e-01
6.202936938386833798e-01
7.483469744283338665e-01
8.464921153534284981e-01
9.316467056165106397e-01
9.979234219028815245e-01
1.135654096750714492e+00
1.236777758752170664e+00
1.281460532859103330e+00
1.360990722322108271e+00
1.337442154702369601e+00
1.345285868874436241e+00
1.320292405859778251e+00
1.261331630082389132e+00
1.210268821030836772e+00
1.108142596965176807e+00
9.698701285812337813e-01
9.198952529210659979e-01
7.802477433863495015e-01
6.859370511542721705e-01
5.437929614524881217e-01
4.662321615784632556e-01
4.435705274109559282e-01
3.128392912909659374e-01
2.793395736742489421e-01
1.959622394109883925e-01
1.494966402800085026e-01
1.021117367698455985e-01
1.217141118749235917e-01
2.963781102838707743e-02
1.054147675360057601e-01
8.572208519782048564e-02
9.803802030889322006e-02
-4.583748978024014542e-03
6.586603383222845720e-03
3.254738242145111676e-02
4.045621277602394483e-02
1.084828813744175696e-02
1.422615302263265796e-02
3.001344768101390365e-02
4.422086408125499440e-02
2.762136896616396164e-02
6.586276373615074231e-02
6.366400889455728351e-02
8.348795424356879324e-02
6.787561965513880247e-02
9.826070345590338928e-02
8.296598723610433546e-02
1.545787264248786042e-01
1.253300305076318621e-01
1.606777872649431671e-01
1.424833762095133183e-01
1.340936819896655641e-01
1.484812961074180593e-01
1.632223322894740536e-01
1.739953773604191456e-01
1.347570051228711707e-01
1.992016374198780637e-01
1.789349061522235163e-01
1.529434884385208193e-01
1.996692493463594897e-01
1.982673443966627425e-01
1.458478444909765692e-01
1.898531273544187825e-01
2.029062441746604106e-01
2.345729866740210168e-01
2.369869914947269063e-01
2.363011556221106813e-01
1.877666609344107729e-01
2.501848185716913919e-01
2.777724679235418215e-01
1.787878650680290171e-01
2.525130090007805528e-01
2.486890627467144288e-01
1.689131186854522515e-01
2.083069778233026526e-01
1.712244374642073463e-01
1.595385348750180676e-01
1.945764621936391381e-01
2.040949170838658455e-01
2.115279298391320173e-01
2.013662935871421700e-01
1.653110594901161801e-01
1.998303541639386838e-01
2.469537458503617000e-01
1.954809383146143553e-01
1.613111350544610134e-01
1.836239900046400808e-01
1.891968719285208045e-01
1.711199042814224858e-01
1.243615875688612871e-01
1.496349207024086914e-01
1.626944182144313134e-01
1.269354622857336579e-01
1.577351535141154337e-01
1.288494606952913513e-01
1.030214967164162776e-01
9.300575754402115591e-02
9.401828038233053797e-02
9.224900139434791257e-02
5.851756750508207983e-02
1.299998207912135273e-01
6.441796360123575038e-02
4.141844189747345695e-02
5.786383798748903629e-02
4.421911115964219374e-02
4.891996392387868570e-02
6.711187505768934081e-03
-1.336324967962020105e-02
4.892047933443224861e-02
1.001018026013436590e-02
8.921135539397570535e-02
-1.646470776082278875e-03
-3.935588898720193685e-02
6.790368345222876079e-03
-2.076978645889094449e-02
-2.310782981325663551e-02
-3.385711627753544561e-02
8.486761044422801159e-03
1.040594841392281089e-02
-1.231185194929320520e-02
-9.508932897155090991e-03
1.392152850284315152e-02
2.327514539208409144e-02
-4.706360728743952393e-02
-5.045740926627169387e-02
-3.762832318341894494e-02
-1.847416884154550604e-02
-5.987976638192028800e-02
-2.120481233850926572e-02
-5.367886218191575409e-02
-2.811361965386147480e-02
-5.482431206148774550e-02
-8.025856243076386065e-02
-1.033376176359040444e-01
-1.232424341056333195e-02
-9.415311863810942039e-03
-8.273908328348467123e-02
-4.561423117405820349e-02
-3.477558299050204083e-02
-2.706947195708175880e-02
-6.274885345417736959e-03
-5.906363699443283044e-02
-2.642193756170911623e-02
-1.610379728466394822e-02
-3.520197130601950691e-02
-4.573018225845081747e-02
-6.724777959774677627e-02
-5.023210984088331832e-03
-7.161511892373728649e-02
-5.452411829160895562e-02
-1.375098295828369038e-02
2.261464349377039634e-02
1.261744088057303176e-02
3.416297768762061732e-02
9.704310276277605674e-03
-2.873846194249677494e-02
-2.616527134451060443e-02
-3.095571457331874193e-02
3.298905762266594183e-02
1.863530906573829943e-02
4.071609040992539563e-03
-3.800173806223008932e-02
6.438392894094001340e-02
6.550403993153236515e-03
6.609404985959890788e-02
5.307199941365981638e-02
6.173333667633439104e-02
4.122394944182862508e-02
3.951896891305244075e-02
7.829556299511850059e-02
7.862850928054200550e-02
8.988378222844536913e-02
8.056219491324667636e-02
1.011735736463634794e-01
1.086556289016528121e-01
1.043059888696495630e-01
1.054898389981255430e-01
7.466045289257788875e-02
1.075809094660514220e-01
1.422864897386319494e-01
1.420329745501114349e-01
1.092892337055353102e-01
5.259974254962416357e-02
8.405122038781828731e-02
8.435370257979310504e-02
1.090303634070717564e-01
8.730663265971555509e-02
7.015345349347996973e-02
9.157790714606778293e-02
7.860852446843037689e-02
5.594890857860478767e-02
5.230682914141464995e-02
1.054374859957329658e-01
7.459085891685690584e-02
5.518762771546957546e-02
7.720233248229652068e-02
7.316383989188735004e-02
1.283497274046451753e-01
1.378953568231905680e-01
1.456173349085765900e-01
1.973726315178571389e-01
2.595907955306134829e-01
3.310489867613102266e-01
3.858522079298308260e-01
4.617381780051568740e-01
5.698677401356098127e-01
7.114015231178857368e-01
7.788288673431491560e-01
9.057853731090727001e-01
1.043701769791921308e+00
1.123025635117743448e+00
1.154791124135160052e+00
1.205549016681508823e+00
1.304100914606222128e+00
1.328319778757583336e+00
1.348791061125089730e+00
1.276033717661684941e+00
1.293813278601853911e+00
1.207287874410700512e+00
1.152210296057241123e+00
1.043154408463192961e+00
9.108888368160893423e-01
8.065243053926807182e-01
7.168239767240237592e-01
6.358416146888336007e-01
4.690756231347152916e-01
3.823619278863465420e-01
3.762771783803279257e-01
2.541776897344695807e-01
2.475306182238480035e-01
1.808938224789502225e-01
9.542379103152351383e-02
5.701662000893989446e-02
4.518900482850062017e-02
7.282064740375115974e-02
5.789924580784195501e-02
4.334869632487262092e-02
2.273963777152473997e-02
-1.281969307300463018e-02
4.279288982047103895e-02
1.392439657440622258e-02
8.534243795332538407e-02
1.413556656151752910e-02
2.700792714072052653e-02
6.172006159698836814e-02
9.223281500655142184e-02
9.607998951804880283e-02
1.098916834785909347e-01
2.398164163394972404e-02
7.450827495467943207e-02
4.335624606466169373e-02
9.831676423428886702e-02
8.567867016792037049e-02
1.031125848742974888e-01
8.436548266447867206e-02
1.386518319916089925e-01
1.529292078486644835e-01
1.423144719817856230e-01
1.166970822584902784e-01
1.409961943593482925e-01
1.147654719866815637e-01
1.522508848093321043e-01
1.483860818151950811e-01
1.310014160979102726e-01
1.559273881413891227e-01
1.621762774984202016e-01
2.017637972895955367e-01
1.886840743845702439e-01
1.869253674993856529e-01
1.840506272393082066e-01
1.597890681949989955e-01
1.464068558124836106e-01
1.811418112775169120e-01
1.971667565175592163e-01
2.290422694484150756e-01
2.166670450837301087e-01
2.048114616938439825e-01
2.017394994885327864e-01
2.598045977616271207e-01
2.013909458786737605e-01
2.140864131019876992e-01
1.744008337641100026e-01
2.009011181351691433e-01
2.212738007196038414e-01
2.139763239234358516e-01
2.063955494206539676e-01
1.722835031872801403e-01
1.649339706025305385e-01
1.493534536159306092e-01
2.397910693092501211e-01
2.121399346426812160e-01
1.791064145566690913e-01
1.533240862307402863e-01
1.049060765435900211e-01
1.331609324393791260e-01
1.042059360899421361e-01
1.403789337699349882e-01
1.088076469415242276e-01
1.170828873549084048e-01
7.471747875925056903e-02
1.175321186112630173e-01
1.655498595908989623e-01
1.232225095160124489e-01
5.847116024048908123e-02
6.312473608242470668e-02
4.474797339123932904e-02
6.551270709182321905e-02
5.807101794374130987e-02
8.668348711011215901e-02
6.446198763386032371e-02
1.408833800705285022e-02
3.120841336469284966e-02
8.495774250814860928e-02
-3.114389317549544345e-03
-2.217313658922359654e-03
3.822713908286660967e-02
-1.279294555990773477e-02
6.406995418601853232e-02
-2.318840355716190668e-02
-4.335308812960791958e-03
8.795263788389032222e-03
5.671167065601612212e-03
-1.305164681556726311e-02
2.661956616652626229e-02
-6.919030260590967873e-02
-6.060453215071272270e-02
-2.704598964426493252e-02
-3.918463154102673485e-02
-3.568627790412300799e-02
-5.786321968122892789e-02
-5.422051501395391826e-02
-6.968099717822640038e-02
-3.884929033213943561e-02
-1.294260130101123826e-02
-4.033898514753471443e-02
-3.431510233332157878e-02
-5.456883172106814783e-02
-4.826338421739436585e-02
-3.629111671159434421e-02
-1.100577833926686538e-02
1.876903860285744630e-02
7.571370094822504893e-03
-1.402469257637834615e-02
-8.687015700692937020e-03
-4.254207706342617856e-02
-5.748316146794572867e-03
-5.761991653305296307e-02
2.938254974876278180e-03
7.460487302858115344e-03
-8.350735308752121888e-02
-2.687672528250786841e-02
-1.358928523756389867e-02
-4.297220181694862140e-02
5.196518707415288124e-02
2.509154450751321236e-02
-3.194066886640693770e-02
6.744097878537004542e-03
4.904100651125849197e-03
-1.344744132590571656e-02
4.249909910501932508e-02
4.668938167008924306e-02
9.910254034181753546e-02
1.070757446511706179e-01
3.489539650770100837e-02
-1.109924567762515801e-03
2.024426232825279892e-02
4.826523132679884365e-02
7.058054737035129866e-02
4.497364171949352202e-02
9.657544269974074891e-02
1.255402298921925314e-02
1.170486025423152221e-01
5.599044677352370963e-02
7.477374272332887317e-02
1.001361637738254345e-01
1.167262773832496853e-01
6.405900943227577082e-02
1.043467411233280351e-01
8.837552765092621110e-02
1.283300528790846384e-01
1.494878717508819621e-01
4.219203764383777644e-02
6.470793231068139306e-02
1.159893424815521407e-01
1.348822137468688453e-01
1.073287670119917048e-01
1.275272833209910861e-01
1.411604439115625720e-01
1.040315507825473329e-01
8.141383328183957047e-02
1.553850229476456957e-01
9.765222031727101293e-02
5.948440873003390389e-02
9.120197434329216368e-02
1.397785896621577678e-03
6.755725624159257536e-02
6.465618658551486320e-02
5.213929069553979723e-02
1.010122327983816459e-01
4.806437841683670886e-02
6.788211420478026947e-02
1.150655342608691845e-01
1.188450649646902724e-01
1.727102265207958454e-01
1.682297217754928631e-01
2.190076611840229559e-01
2.263518167630769740e-01
3.532809541215152782e-01
4.389726041799377754e-01
4.663456025630449142e-01
5.727795222857343660e-01
6.748297733962809186e-01
7.479518992227410790e-01
9.381726300906145788e-01
1.032759401319705006e+00
1.070785416569332682e+00
1.169279730101684622e+00
1.302070572639627555e+00
1.352692141435705597e+00
1.409881449663104247e+00
1.311698708722425666e+00
1.319347223712769468e+00
1.283265492830332866e+00
1.269705866144561046e+00
1.118806246136495153e+00
1.024543583357564014e+00
9.052696126634787177e-01
8.912863316063276420e-01
7.644939931557497292e-01
7.087785573553169183e-01
5.305199462477312444e-01
4.810487685233887367e-01
3.729940188843612892e-01
3.043362250992835416e-01
2.218577546887356144e-01
1.627287259413168763e-01
1.650532887524582271e-01
1.187228838870141717e-01
6.531562358580536576e-02
8.541436715331447715e-02
5.068685126582843370e-02
9.888377078487024796e-02
6.646756271430262486e-02
5.028366760556112619e-02
4.580686281300745677e-02
1.668768103107998862e-02
1.322478149894889057e-02
1.008419816393340065e-02
6.672782073729753571e-02
7.193581832365494866e-02
1.274938516330545168e-01
1.007870104508686582e-01
1.050858479394777278e-01
6.106343886393390819e-02
5.142449326851322028e-02
8.720133876003594020e-02
6.457521487758369205e-02
9.193343301736867090e-02
9.364369751912203499e-02
1.020792676306734037e-01
1.696193375930031277e-01
1.541292566408270781e-01
1.141510462613001264e-01
2.358599901296614954e-01
1.625718851812620602e-01
1.659638918269317476e-01
1.591906302834927012e-01
1.581970867275125647e-01
2.233942308174000080e-01
2.355222763296224986e-01
2.033874397892622976e-01
1.740149618618565541e-01
1.916970789516674045e-01
2.271503225721891450e-01
2.204202936978006400e-01
2.630601626945288096e-01
2.437662147108168864e-01
2.254037924734096365e-01
1.977519579687171403e-01
2.365218949115588665e-01
2.256322411656135341e-01
2.720427987687507598e-01
2.683267646638259341e-01
2.429651155818518815e-01
2.675666416516414570e-01
2.245449874504411858e-01
2.085815193713605742e-01
2.534663911270711445e-01
2.730561625294586903e-01
2.435201247583450301e-01
2.371529728761790912e-01
2.576004847696404809e-01
2.332718745801602434e-01
2.452896856791065561e-01
1.559370097153220114e-01
2.211907509232313995e-01
2.003588988526380510e-01
1.970371189611463125e-01
2.226478174324534043e-01
1.808038380404504153e-01
1.476203418583150462e-01
1.584137355864068675e-01
1.999094924687133679e-01
1.600907238148406297e-01
1.757465526763320185e-01
1.658718638287410008e-01
1.003301033463457476e-01
1.224369370592657963e-01
5.213685834709178707e-02
1.202932870070372307e-01
1.685873272202368933e-01
1.360210462072264093e-01
1.007489557683069054e-01
4.199590622884185470e-02
8.652245109940867596e-02
1.037129403037474473e-01
1.099135006047039370e-01
7.827641507467271442e-02
5.919035607732707482e-02
7.030712168838226112e-03
8.574069361893523963e-03
2.078313806236484727e-03
5.942084038072473900e-02
1.057963517024851641e-01
2.786981167939588805e-02
5.165853856465905947e-02
8.499841028360739792e-02
7.134052613626215567e-02
5.757877987573240680e-02
3.255024482545110232e-02
2.299367246678964138e-02
5.180566136345487321e-02
3.889154310245236668e-02
1.096027076548982196e-02
-1.034161012901833876e-02
6.088952343466444428e-02
4.452374610978637737e-02
-3.246389518606623142e-02
3.949128744806390534e-02
3.242639972697757000e-02
1.803946183179174281e-02
3.064504357580348504e-02
-3.830028516550375989e-02
4.671184774215147995e-02
7.566083658844544035e-02
3.251814055376536783e-02
-1.052146561553813503e-02
2.583982507674367768e-02
3.624395205541127568e-02
3.487640856368734790e-03
2.261897423567379301e-02
2.950191541576035331e-03
8.138874687942217190e-02
1.373353614075953875e-02
2.464740386396534894e-02
2.774302497607595078e-03
2.714381989037629658e-03
8.424357272126786755e-02
1.693181678235021470e-02
3.293935261005226378e-02
6.472810149212260278e-02
3.298262649077982056e-02
9.102912548460984077e-02
3.891917692537370799e-02
4.615287057933802756e-02
2.001013052071599213e-02
1.664438161316148662e-02
2.829774728285498406e-02
4.623586305753099590e-02
3.858181194909018896e-02
8.307890204070275675e-02
8.636661917359536589e-02
5.595416946644105050e-02
8.629380950449228038e-02
1.546521203336641281e-01
1.111633672741625112e-01
1.351438121093215816e-01
1.246003233259641713e-01
1.649317919204644767e-01
1.560536006429644185e-01
1.209735278967576377e-01
1.309886828090200961e-01
1.090007676028332123e-01
1.612350523906101452e-01
1.118588334620093383e-01
2.039932241827242809e-01
1.833429294537268217e-01
1.441108721040449403e-01
1.400676719268864612e-01
1.680685701457757253e-01
8.294326725698082658e-02
1.927139176270080134e-01
1.161278148581396663e-01
2.302129271901065533e-01
1.946141068132607455e-01
1.403700791415668780e-01
1.819571347183331911e-01
1.317352528470687179e-01
1.297541437626607008e-01
1.953932380349305276e-01
1.138594323414922754e-01
1.658592209825896502e-01
6.793069467593482180e-02
1.143517269846690415e-01
1.173875251977421347e-01
6.783033446298905589e-02
1.538457396027342050e-01
1.615250877230783033e-01
2.043123091931091651e-01
2.386140542599290149e-01
1.963058832819955246e-01
3.223156685782654907e-01
3.222962797921465894e-01
4.228204580191172735e-01
5.129436954282714511e-01
5.626317269853063907e-01
6.954951442646213344e-01
7.588268222814605890e-01
8.879799182745565789e-01
1.000205819276354990e+00
1.050056302573683764e+00
1.179506784285960563e+00
1.296477348497603987e+00
1.349672759528781185e+00
1.412585883517795571e+00
1.399351280470841674e+00
1.403177050852910002e+00
1.379766450556353607e+00
1.301677299674986799e+00
1.236372687510716606e+00
1.182559107730927428e+00
1.089424313333559047e+00
9.669188214382276048e-01
9.303894868648062699e-01
7.826048085315665537e-01
6.545558312736780016e-01
5.667723130641784124e-01
4.666511569418926308e-01
4.037555199173177289e-01
3.082322644632154440e-01
2.447279786565791093e-01
2.054276607935113241e-01
2.117007672944171137e-01
1.402700033795226675e-01
1.055079206336652781e-01
7.339297844150782790e-02
4.675701069167043089e-02
6.589412772914353400e-02
1.090346537638718916e-01
7.208306364023242541e-02
1.367256047514102679e-01
8.565910997810974314e-02
1.339146357776533347e-01
8.520623114839934176e-02
8.029626236336513678e-02
5.456993589484097906e-02
7.202309298596074050e-02
1.465938343979455993e-01
1.487670267116831535e-01
1.047052250286105851e-01
1.200090875654363370e-01
1.759891487466424542e-01
1.713504327729650500e-01
1.186451364586146584e-01
1.155325152682794843e-01
1.345189937224038346e-01
2.155852623458774375e-01
2.418891939480795339e-01
2.323633515803185112e-01
2.103473585533675583e-01
2.041833500398668177e-01
2.034624162995948005e-01
1.506655812861348032e-01
2.696148094597973222e-01
2.272276155253090124e-01
2.132692992431098888e-01
2.770560594469175242e-01
3.007712695340667985e-01
2.850016283815148266e-01
2.469818726473970161e-01
2.870349385591449143e-01
2.787358139954785874e-01
3.093328337931189331e-01
2.828650824562370936e-01
3.015494150041353461e-01
2.524524036033687913e-01
2.581169411936653502e-01
3.061697021942156871e-01
2.921665218043729140e-01
2.498129658346445736e-01
2.955487526737107795e-01
3.074656364884245652e-01
2.468201143466648984e-01
2.560711513446373155e-01
2.760090452431903651e-01
2.833231230937846012e-01
2.687781496547823057e-01
3.229325468112450581e-01
2.812427044372070029e-01
2.652050933119973197e-01
2.738184218474391529e-01
2.756505395964338190e-01
1.846175425081931221e-01
2.713439900558424767e-01
1.820233845865541211e-01
2.487619867986304301e-01
2.283918827318203171e-01
2.201664478023399041e-01
1.288909832196221128e-01
2.328572864340439919e-01
2.341863178548376778e-01
1.733400964153834489e-01
1.495363784962438491e-01
1.771934302694430086e-01
1.432785722219786506e-01
1.681313733733759141e-01
1.050759904080368068e-01
1.112741487602612739e-01
1.187880220043687207e-01
1.305579667589428505e-01
1.506489767760179066e-01
1.475643868151743920e-01
1.626496385859921290e-01
1.479504623921660267e-01
1.397323970134963789e-01
8.921865702852659064e-02
3.527485253960230271e-02
8.549798127059517194e-02
1.023413665326726035e-01
1.041464856153191676e-01
1.370068489045436488e-01
8.939059804550517074e-02
8.650982002860108100e-02
8.073456562681537163e-02
6.030689747279063123e-02
1.005024623271059819e-01
3.865016431614395898e-02
4.313318097860518313e-02
5.835278741148455101e-02
5.230820534038710390e-02
4.297177516705835698e-02
9.043628053818975054e-02
7.361329160732815735e-02
9.204537449659744297e-02
9.297028266611248593e-02
1.198443293366192874e-02
3.752714194967157746e-02
6.098519473726379120e-02
6.478423263177712776e-02
2.424578664707629019e-02
6.158470376143422575e-02
5.218080224676845125e-02
2.853714189063182374e-02
5.649644989581087406e-02
4.234211275294704618e-02
4.459456666817097903e-02
6.633065020859396643e-02
1.708021346253508349e-02
9.458800059368238644e-02
5.365557517995889897e-02
2.316561430709070113e-02
2.516725723567587655e-02
9.501273705192722629e-02
6.543573468605723420e-02
8.643272227836470978e-02
7.723590564753742005e-02
4.276454300542013864e-02
1.165211974376654663e-01
9.028975922966606116e-02
4.602623486970134487e-02
1.520967536873577552e-01
9.619470979715617764e-02
9.735655857607275476e-02
3.976454193802443637e-02
9.404927234436363803e-02
1.328163073289731488e-01
1.100393303798514466e-01
9.245699216480701699e-02
1.548537391303406174e-01
1.163926595157709493e-01
1.703421990884541326e-01
1.720468114214723232e-01
1.918495543976030115e-01
1.804276598867154413e-01
1.617979222036363407e-01
1.537610746946259099e-01
1.312322860475925723e-01
1.624665929716639368e-01
1.726837228180817807e-01
2.446126661329365570e-01
2.923353224610116263e-01
1.852910214048221205e-01
1.979345649170561328e-01
2.280336862651068941e-01
2.486249657676327940e-01
1.927986775123202712e-01
1.957342993313152535e-01
1.429720106668435076e-01
1.619517752613622852e-01
2.023552399054730777e-01
1.651995296154425419e-01
1.679141216364914979e-01
1.834840621156369755e-01
1.571563831811279011e-01
2.156033494171252229e-01
1.633697039794110017e-01
1.424186470145963612e-01
1.432722673372936462e-01
1.399457449659221586e-01
1.657054530277040361e-01
1.724035347863662193e-01
1.368105658206528463e-01
2.065991342912027462e-01
1.608085355154625362e-01
2.090981613159917374e-01
2.907690532037240372e-01
2.705751795748133626e-01
3.315772794746461583e-01
4.525495560198540268e-01
5.277241253508304641e-01
5.576646577019335194e-01
6.727908706844686337e-01
7.986311546442801390e-01
8.999631125682079347e-01
9.757579703095121681e-01
1.082565477377657848e+00
1.181894995844355201e+00
1.277741874261638655e+00
1.367239936585785465e+00
1.389972720349894386e+00
1.413226935697207365e+00
1.429171154340707073e+00
1.438966639972714345e+00
1.379297097662567806e+00
1.288872248034385271e+00
1.165812012015683630e+00
1.191791884956613368e+00
1.064192846550876093e+00
9.164385732893465253e-01
8.092177772432747052e-01
6.915925910852483982e-01
6.345286597107157034e-01
5.018308133401733206e-01
4.232108261565709073e-01
3.590371029340693187e-01
3.240396411861184434e-01
2.544092629072309264e-01
2.161929554665067421e-01
1.792945499743741067e-01
1.648217328539047788e-01
1.444151957131206976e-01
1.097114602557381913e-01
7.128541738923080406e-02
9.148214989282413279e-02
1.098810339751623844e-01
1.305317459833534866e-01
1.226833023872049566e-01
1.425752085356494225e-01
6.814090330022508357e-02
1.627031983062029175e-01
1.292593870959100055e-01
1.102785265499365286e-01
1.331845451077843800e-01
1.705966449345810709e-01
1.607109765980410665e-01
1.734975197893888210e-01
1.849644386176676758e-01
1.656168135753276760e-01
1.216253221188970945e-01
1.994075705712365365e-01
2.233890839840360909e-01
1.643943033675696330e-01
2.761878646385141911e-01
2.443060281581308502e-01
2.494177953867763586e-01
2.262489371392594206e-01
2.116287921466665778e-01
2.349127207753892721e-01
2.386482730164691812e-01
2.309761931474203500e-01
2.854236040841831024e-01
2.471975460647617973e-01
2.795873632329428093e-01
2.343921155607309736e-01
3.116324864148618534e-01
3.367331268830538460e-01
2.868680315760178123e-01
2.917940384262057707e-01
2.460894488576872985e-01
3.176970040017882413e-01
3.129826981962712806e-01
3.268453498734236184e-01
2.939546914450225645e-01
2.809397305888618468e-01
3.363231765749886137e-01
2.955844080029469412e-01
2.793088989244468801e-01
2.749677349444823449e-01
2.883757596634481946e-01
2.413204413664982173e-01
2.845641068823643871e-01
3.291535231676704920e-01
2.601705303963466331e-01
3.059462772407346431e-01
2.312273652834957727e-01
2.685131121329177306e-01
2.506473084554336483e-01
2.257440116404823283e-01
2.055686202432074894e-01
2.601608949762241885e-01
2.036236653494823967e-01
2.151328331697051066e-01
1.923547558483263975e-01
2.435542579428197629e-01
2.192320832004315267e-01
1.938823974689087848e-01
1.932101831833681616e-01
1.609572774537910700e-01
1.519594690629226252e-01
2.136033525297076074e-01
1.495172059001773079e-01
1.802450555022789558e-01
1.375004831181377840e-01
9.039181059019074649e-02
1.862065038166608177e-01
1.106559371734255892e-01
1.108715738185285654e-01
1.286731553638365277e-01
1.169695225288672202e-01
7.869018088273146971e-02
1.164168029402250226e-01
7.625781101537901230e-02
1.183267147536427588e-01
5.967966554476247104e-02
8.122630880446035651e-02
8.595390512133296856e-02
1.171096374339102575e-01
1.249931528656931246e-01
5.752458748136547728e-02
1.054468373404963827e-01
7.968811938366637815e-02
7.212462343560741007e-02
4.234837036929742227e-02
2.405860526155023660e-02
6.640007800664572690e-02
8.883172316380683053e-02
3.602098150406398552e-02
6.086308890129964871e-02
-1.248755960816560345e-02
5.171252204097925853e-02
4.125862113031351225e-02
7.019853666747905008e-02
5.187492408016320528e-02
6.600370550629301725e-02
6.824973647299382995e-02
9.290591056163256811e-02
8.153496431662593524e-02
7.805183952496340394e-02
1.029054154218936451e-01
6.906306313923238349e-02
5.511088959839884061e-02
9.546946831554393997e-02
6.846018373201522011e-02
3.626330267200914004e-02
7.862763679252948723e-02
9.530319724323652042e-02
8.925701151304499259e-02
5.145983668524049121e-02
7.165049998106232110e-02
5.919790498711820226e-02
9.668540567932462637e-02
1.550473102177115509e-02
1.038750550245236548e-01
4.999598187448519443e-02
4.278042044777011221e-02
9.053203057115968844e-02
1.080182319634629823e-01
1.356106285809659945e-02
1.178134538202202652e-01
8.959104760528893707e-02
1.706744683996614942e-01
1.460583851104465258e-01
1.031310616428178645e-01
8.821134195404692346e-02
1.271632231380350475e-01
1.038039705972487181e-01
1.673353343428573559e-01
1.393467347005589163e-01
1.441231523612027388e-01
1.876700926701837802e-01
1.741143331415997419e-01
1.044000583356955170e-01
1.730416906157800361e-01
1.811507318457784843e-01
1.702158963338337994e-01
1.545279145437687407e-01
1.878267840749977546e-01
1.742964288498159986e-01
1.749782747844174646e-01
1.777114925057839967e-01
1.919598367076586765e-01
1.983533791215182640e-01
1.679409601491518578e-01
1.459076211267558154e-01
1.378206844205202841e-01
1.486304688774495175e-01
1.667206596245855155e-01
1.849684199858102618e-01
1.250669815726696832e-01
1.382257972722342465e-01
1.159437590461927792e-01
1.351556412689272069e-01
1.172029261322732607e-01
1.133474348234475571e-01
1.108677420177441725e-01
1.446322767725407299e-01
1.454958487886221508e-01
1.288651404754387886e-01
1.860050334530688743e-01
2.228866535223341661e-01
2.434971718532306095e-01
2.263119169216567805e-01
3.156854469817955700e-01
4.131286383274783147e-01
4.838130287039315025e-01
5.093211640301765764e-01
6.561311189587447634e-01
7.023388617347291474e-01
8.149022844934885601e-01
9.140454800430047877e-01
1.028821625420092145e+00
1.139399698441429187e+00
1.238647432643122492e+00
1.324477202300332168e+00
1.448835939651797577e+00
1.419237914367041276e+00
1.406780605201133350e+00
1.394395403875603012e+00
1.420393977662117724e+00
1.306044256738150722e+00
1.210609157682760451e+00
1.107075118291507287e+00
9.942293613935220264e-01
8.704051871249380845e-01
7.480438763366233923e-01
6.464801169624280197e-01
6.244803270353979086e-01
4.995785421467200393e-01
3.954732277854337008e-01
3.155020763314661525e-01
2.754585224468214522e-01
2.580843767681125223e-01
2.349521661253732852e-01
1.290997683405025465e-01
1.034451484226051043e-01
9.689898600234282677e-02
1.253849918378834583e-01
9.186756515739274986e-02
5.592366327570592877e-02
6.583375347412764866e-02
7.323145300991913687e-02
1.069554197435589604e-01
9.619941391886231707e-02
7.102333870916621716e-02
3.165035588151018930e-02
8.521841246217401467e-02
1.331323146693189075e-01
1.243270120241820320e-01
1.330298408033029622e-01
1.347203586538050502e-01
6.537807792535263451e-02
1.634339580469141573e-01
1.075854996438958960e-01
1.323112129623054134e-01
1.771146998889710777e-01
1.976282240993248174e-01
2.047434520458500384e-01
1.579143347267289443e-01
2.130914034128453538e-01
1.836642433015889531e-01
2.323970445599399803e-01
2.109618177745656020e-01
1.801694377345945675e-01
2.305750647118263164e-01
2.279808076799022809e-01
2.352060627021487216e-01
2.127447677342426402e-01
2.373020972818863372e-01
2.132573324101580681e-01
2.480987766969949271e-01
2.745487955435913507e-01
2.263140083123827417e-01
2.227040442744032123e-01
2.249730381671105062e-01
2.292165453478806347e-01
2.498431331115403831e-01
2.645108886437570472e-01
3.075985140385265604e-01
2.430670245816949904e-01
2.317826248167235703e-01
2.562500602991721887e-01
2.749564115935284603e-01
2.514521718408794793e-01
1.958213783230298988e-01
2.586913998610793630e-01
2.136711788848923987e-01
2.200996742577215060e-01
1.896502169632647561e-01
2.344539392562019486e-01
1.668185430256587942e-01
1.772859637336921534e-01
2.744324136801297720e-01
2.153445576016115581e-01
1.664581289449791335e-01
1.392576812226383187e-01
2.027388938206483027e-01
2.075594909067776661e-01
2.192496494079284597e-01
1.656798034746900794e-01
1.630267554256359663e-01
1.964652433540655663e-01
9.641889004698590837e-02
1.240114291631841670e-01
1.533546405277913804e-01
1.720224449502159303e-01
1.299083180665881188e-01
7.049996376534739539e-02
1.208294325656285861e-01
8.906434300904099433e-02
7.860435697268498834e-02
8.823132280365368618e-02
1.055908899665764095e-01
1.352606507564549920e-01
8.857574509170693111e-02
9.278306760270081666e-02
3.390108935535737084e-02
1.073419659420364741e-01
6.753588175591590526e-02
4.424880575398354443e-02
4.867042457058656790e-02
5.331017782658806214e-02
5.062560423386311403e-02
5.123700662461311978e-02
3.928159696690249753e-02
1.658004277810483026e-02
2.217530344158657324e-02
6.114631943087213070e-03
1.187196530373672149e-02
2.663943925617048153e-02
3.581176902180607715e-03
7.519796282954432920e-03
2.796417739421715176e-02
-1.194730592553306520e-02
3.246479668013783904e-02
2.308469157780418043e-02
1.619018887766015755e-02
3.774129591904018532e-02
-2.508613974274430738e-02
2.655801949993128255e-02
3.993328074165323344e-02
1.861388706071567811e-02
-3.636933648825518145e-02
1.767306985431577049e-02
-6.406976167229867965e-03
-5.459710560548346019e-03
2.215208515666942241e-02
-1.601157089648382742e-02
3.630494717793709969e-02
1.096428688716831815e-03
-3.429413551449510961e-02
-2.799319461874279907e-02
-7.214601315828829409e-03
-3.260110742811364593e-02
2.603754670240489982e-02
4.359011092260535458e-02
3.248500714329701639e-02
2.695268774993972785e-02
-5.136301317095212302e-03
5.381574563610981576e-02
3.583925216025884986e-02
6.150535675405807701e-02
5.689417583386879862e-02
1.332210536463091649e-02
8.275845607102579049e-02
1.276146263481187787e-02
8.731288711108560474e-02
1.018108253849264039e-01
6.088603906923423237e-02
4.765887693176334983e-02
7.596247830778232735e-02
1.013626541221944594e-01
1.174451153557720118e-01
8.530004134490931644e-02
1.220856069511053188e-01
7.258021206398568292e-02
1.158238661443181244e-01
1.636327827914434707e-01
9.609979141453095508e-02
1.452448655760357199e-01
1.156634044969805097e-01
1.326794847271141886e-01
1.088833668860193088e-01
1.390674915633989539e-01
1.731767699959048668e-01
1.601731940674375743e-01
1.280616580439522534e-01
1.388866391703545700e-01
1.149998090387495259e-01
1.268160247624776082e-01
1.420393888251228476e-01
1.556452381888105974e-01
6.250992509363000049e-02
8.170137647925131141e-02
1.281820583594197871e-01
3.652832193863686516e-02
6.622074595042366785e-02
9.521580580383966208e-02
1.184708172596730946e-01
5.974472737703269420e-02
1.391963292186655932e-01
8.291749777567061774e-02
1.009804911791866294e-01
8.062477578331551931e-02
1.186664729726743805e-01
1.278170631869635365e-01
1.870028173667674931e-01
2.105836141316821952e-01
2.762460227301061222e-01
3.461863803880350088e-01
3.531419600442283202e-01
4.783558488936023867e-01
5.287974340992368516e-01
6.174936698895747700e-01
7.494939217220345506e-01
8.171180283252174048e-01
9.970136520983919892e-01
1.025870072089133389e+00
1.119603256162934324e+00
1.235162207734425976e+00
1.337322357760934111e+00
1.351830117842677259e+00
1.339819054304161927e+00
1.347651405428812454e+00
1.345262293540579357e+00
1.234868251962725871e+00
1.225243530645528933e+00
1.115478395917036458e+00
9.807668299772422937e-01
9.557556328292501346e-01
8.364244164732680398e-01
7.155661875224132995e-01
5.709640775145733427e-01
4.542580308719369464e-01
3.624497969181875168e-01
3.404160558288018557e-01
2.663074183970379760e-01
1.918642205477227580e-01
1.640006588737447091e-01
1.097390060605788059e-01
6.003123153074199636e-02
5.459563973257237912e-02
5.603971902436694075e-02
9.151754087144869931e-02
4.393439666452694792e-02
1.088026103776341263e-02
5.475652705156526523e-02
7.204375702424040129e-02
2.054579582564357298e-02
7.086176038589475645e-02
5.377093668710451746e-02
3.721935104831132490e-02
4.422079673617667489e-03
3.247059972024120278e-02
4.159922833137950915e-02
2.742648878865180245e-02
1.714377318947239714e-03
1.041471720954803004e-01
5.618071667870306457e-02
1.173477470767460284e-01
1.108198337960273339e-01
1.132027174274767289e-01
1.381272826944721366e-01
1.038768069542277128e-01
1.274507996857481285e-01
9.797461380251512586e-02
1.865909340848617426e-01
1.333590705164792722e-01
1.648144593757853715e-01
2.221589878348963765e-01
1.270390143926551640e-01
2.074298474152832528e-01
1.555004853187950675e-01
1.772771455715386191e-01
1.930941627681080353e-01
1.992539138698825041e-01
1.819925863737253402e-01
2.539655202066879447e-01
2.153350766392614635e-01
1.662167301104247874e-01
2.224158857151503632e-01
2.216373039711235504e-01
2.451982739657545540e-01
2.273308809130768215e-01
2.418436396919507458e-01
2.447034605122406781e-01
1.986788871644351029e-01
2.481064865984346779e-01
1.687364696473939718e-01
1.301312184578158893e-01
2.451053741480977433e-01
2.342409518066930485e-01
2.240577207433401274e-01
2.252882647609711908e-01
1.960654321495312324e-01
1.756095831637430327e-01
2.021363562035463080e-01
1.298767376405896845e-01
1.643599958828514951e-01
1.493765154563805042e-01
1.300926311251598966e-01
1.356397635365620691e-01
1.270077680543323095e-01
8.782158605189410716e-02
1.875856312583592256e-01
1.778424013774240198e-01
1.049149800625073098e-01
6.925190626509777903e-02
9.309326198317754986e-02
1.346467227884080020e-01
9.650273445309168197e-02
7.339171588270282376e-02
9.745764351517663404e-02
4.232154878283005128e-02
8.462089607199502206e-02
7.454211287244469353e-02
6.058023389513039064e-02
5.152320920666343673e-02
5.676315431494863978e-02
8.266569231998097123e-02
1.366115321700379914e-02
1.275981806331982771e-02
1.482191341704048454e-02
-5.973627109079594766e-03
-9.236528675193936277e-04
1.685544599202223187e-02
6.986047181677154660e-03
1.159855797796448956e-02
-1.537504985061811935e-03
-1.959242478868845894e-02
2.132411622134020718e-02
-2.283378152221059859e-02
-4.375608710115175271e-02
2.478151786217102498e-02
-6.364866716701378380e-02
-4.476028488985429876e-02
2.174455175332284940e-02
-8.897595408078430579e-02
-1.413455937853102390e-02
-4.313473874457532387e-02
1.426179880669657674e-02
-1.339535468916027566e-02
-1.490958603091679241e-02
-2.904114534132512873e-02
-1.177921040216677734e-02
-8.887339351457107517e-03
9.181012065662505495e-03
-7.475385891212318890e-02
-1.631234396732292313e-02
-2.732899634646230799e-02
-5.692500672925982635e-02
-9.802935405898528798e-03
-6.580383234355230426e-02
-8.800640260863956676e-02
-5.651963292303857633e-02
-4.246277458515324010e-02
-4.535443908087778697e-02
-6.248859942607909446e-02
-6.729265768914804990e-03
3.843332403428645350e-02
-1.639352393753171905e-02
-8.870881234263157389e-02
-9.492653620254756786e-02
-5.880791880179564446e-03
-4.893021171478365711e-02
-4.339260585557169758e-04
6.913455450650231315e-03
8.436323096818167111e-03
-4.293659560296482491e-02
1.205818977158955307e-02
1.575694951589193260e-02
-1.931907967300273976e-02
7.885198767630396954e-02
7.468272304758882818e-02
5.370086943089598386e-02
4.758974200506132374e-02
5.712297245751275787e-02
6.391948165255795233e-02
5.370782706025455794e-02
1.175458340300875315e-01
3.819780232632030703e-02
7.983913064955516781e-02
9.223495600602563127e-02
4.804295607227399706e-02
1.428088079377529129e-01
1.009181842114925676e-01
8.422111740857324280e-02
1.587514828109273246e-01
1.414860912440193130e-01
1.389857238547529961e-01
9.971226397403992747e-02
8.620479831190665243e-02
1.353292530605181287e-01
1.002089504108756302e-01
9.412258857199373718e-02
1.158087629993495571e-01
1.019234616173452235e-01
7.067097299553837253e-02
8.752234912557146918e-02
2.568572464710699998e-02
5.765813227210017655e-02
1.086743315251577635e-01
9.795414926841095049e-02
1.045568012159992510e-01
8.035350402211371978e-02
2.203538088607963352e-02
7.368575290364400010e-02
7.841162192484188442e-02
8.291144731893351771e-02
1.306961644819961688e-01
1.083890446660716739e-01
1.038498810121966376e-01
1.842643712623098229e-01
1.922101911655795248e-01
2.684807010144918404e-01
3.498869935818775811e-01
3.522185086193762027e-01
4.886706561734784904e-01
5.698860617822173458e-01
7.166402494327963613e-01
7.798763692986807605e-01
9.328513836767647893e-01
1.026327630994676054e+00
1.077324932228635346e+00
1.236096153135219922e+00
1.247087237632494849e+00
1.353545330051250994e+00
1.359772855343010844e+00
1.329590836811629373e+00
1.361913469143712030e+00
1.303348038306788137e+00
1.152258858748015147e+00
1.096803463753738495e+00
1.016770128472091583e+00
9.532672125979719802e-01
8.136996990900517979e-01
6.837465359489803829e-01
5.519659174869678830e-01
4.597916492758025719e-01
4.031861094078273977e-01
3.568545538791974003e-01
2.532858575555698155e-01
1.996606916152049438e-01
1.620525083490862994e-01
1.112515681310713433e-01
5.119619963954084862e-02
5.209469554039767442e-02
3.980951280123999625e-02
3.681584066199845851e-03
-2.266455434464023644e-02
1.776715290275662773e-03
2.171296128304477102e-02
1.692627708270768444e-02
1.165546635994237079e-02
1.838151146969094207e-02
7.563962491800767241e-03
3.138285606297724906e-02
3.936580512065604442e-02
6.652483351860358218e-02
-1.478558515677553392e-02
5.626627757003821451e-02
7.748011511989351396e-02
3.628794822857730334e-02
1.210482765535900312e-01
3.974702340709537068e-02
1.103012712702663156e-01
8.952306122764139285e-02
1.093254542623551540e-01
1.245845660330669458e-01
1.357042303306436049e-01
8.541115872582817625e-02
1.464046787930771143e-01
1.645800426281315010e-01
1.815746501822949610e-01
1.718398169723288627e-01
1.393935480335702914e-01
1.653139054212062198e-01
1.678807123002487578e-01
1.719443178195144417e-01
1.851779185254576743e-01
2.139460775397553083e-01
2.030244030765452345e-01
2.039957007301303471e-01
1.884810935819154487e-01
2.257230893247565984e-01
1.621646952216700133e-01
2.153143302292194750e-01
1.818279611862346767e-01
1.071093419208854203e-01
1.620203313650977472e-01
1.835503473965708621e-01
2.187847893317750869e-01
2.315526020640910898e-01
1.844828411440677107e-01
2.319547396594153765e-01
2.113726099550098103e-01
1.662507902504717083e-01
1.359906829159359953e-01
1.865615306958547381e-01
1.746572523027933588e-01
1.700993839982862521e-01
1.417321511082048624e-01
1.559340174037151527e-01
1.936660696482372657e-01
1.375302367094035916e-01
1.348625458228903118e-01
1.686993273737772969e-01
1.572501711460899954e-01
1.649796103276978121e-01
9.210525863652617440e-02
6.899205195532565060e-02
9.196532753116296033e-02
1.379683325669607552e-01
8.695462617824895046e-02
1.161025679273419153e-01
6.514586198037336517e-02
8.517212313723340755e-02
8.901737992712968617e-02
5.035168848568755129e-02
4.809759745084844773e-03
5.113548030259598004e-02
6.191373483772130704e-02
8.864272888923768745e-02
5.534944868406235785e-02
4.404212920723024616e-02
3.198144788653470294e-02
3.791064858078924127e-02
-6.548740836832447898e-03
-3.059942465215188812e-03
-1.472638915971173981e-02
-6.776770530517056690e-02
-1.029635841598564028e-02
-4.246096647564221588e-02
4.660730772236561931e-02
3.816850489297780868e-02
-5.648541524558191307e-02
-1.721345568081277672e-02
6.405656329947793937e-03
-2.360002293299533552e-02
-2.603321101780822766e-02
-7.853750312558013813e-03
-4.107712043815631153e-03
1.759818643430600266e-02
2.207576742839497536e-02
-3.460662379497416591e-02
1.899865550299785488e-02
-3.624969101951630579e-02
-1.677548270911878234e-02
-1.939662044018415632e-03
-2.417503259955131045e-02
-6.357749371303351993e-02
-5.166758977806191339e-02
-5.513560798950064429e-02
-4.093948003252322054e-03
-2.110963059070607856e-02
-3.650706767057657759e-02
-6.748101933709992062e-02
-2.887350704882198082e-03
-7.354796922904884016e-02
-4.341395872912662268e-02
6.831899736896421271e-03
-6.784335803478849791e-02
-1.926898254733789423e-02
-6.015124768417363238e-02
7.218208541808497636e-03
1.630980534363448559e-02
1.262982822509566699e-02
7.809063250533543332e-03
-2.619081509358160351e-02
6.965388100043524988e-03
3.553843795885890111e-02
2.792466858720190487e-02
-1.625981606547488578e-02
1.758092281719406819e-02
-2.930887940700786093e-02
-5.390452240199748030e-02
2.737864892524530941e-02
2.953316193089663283e-02
2.824461508461702242e-02
3.036237614450382205e-02
3.479787056110473370e-02
2.134089414548547003e-02
7.756036164954815959e-02
4.299310213194749292e-02
1.003437348719466854e-01
5.567945318818732364e-02
8.548743297008018494e-02
1.443806719567826968e-01
1.195041509879249675e-01
1.032318850332750448e-01
6.433955020474949049e-02
9.581442340956380921e-02
1.801749968150195558e-01
1.269872884004048519e-01
9.229068687662095316e-02
1.202483626506120895e-01
9.797742610520365769e-02
1.330877774299845662e-01
9.917211882253529343e-02
9.474747125414181848e-02
6.343285960020716985e-02
9.652097228400072226e-02
7.875828815767632607e-02
1.342169217953074478e-01
9.049219142577241692e-02
8.479877897746693205e-02
8.439076397275158126e-02
1.237636369887112620e-01
4.127970876226107200e-02
1.143283904927858696e-01
6.137258153320025028e-02
8.480149448407428570e-02
9.842527367451370246e-02
1.084574496935074711e-01
1.379000005294546138e-01
8.280086580698489684e-02
1.103399479634470104e-01
1.697693140581627846e-01
1.845018325605123355e-01
2.395049053850573650e-01
3.718900064071581357e-01
3.586740975748400895e-01
4.390745956704496522e-01
5.503249184187418708e-01
6.354265872630067147e-01
7.624406449213684267e-01
8.954440368853275878e-01
9.850563955249908021e-01
1.116973792613703775e+00
1.190263972293405192e+00
1.295996007984937304e+00
1.306121978380447857e+00
1.383470800268812750e+00
1.382594822954052560e+00
1.352327389259658563e+00
1.296899171589724453e+00
1.249051462671187940e+00
1.146439587215184908e+00
1.127705224864811173e+00
9.982013494410694188e-01
8.764549205134234411e-01
7.631073663655226769e-01
6.695470253372597380e-01
5.702986753113384877e-01
4.478571505511910744e-01
3.270500959064861490e-01
3.428594407662574062e-01
2.910878472963903674e-01
1.786274682175543194e-01
1.110636960748539320e-01
3.891848739234968213e-02
4.779683874134511845e-02
6.507640429360650458e-02
8.088439279894067691e-02
3.147788719996362505e-02
6.433285535194194910e-03
3.256522478917746322e-02
5.679996819337893021e-02
2.969953478709081579e-02
6.292240544396072999e-02
-4.396554045816424006e-03
1.119282266676798199e-01
1.056636605629416858e-01
5.612122898420079248e-02
6.743218830341829451e-02
8.427886483216087687e-02
6.490513972985048619e-02
2.353620424639620012e-02
1.203893274574951711e-01
8.366024167151693558e-02
1.698403479447596065e-01
1.251095377177320611e-01
1.753135228414122726e-01
1.081686629682007128e-01
1.338519722501335663e-01
1.633168635598496732e-01
1.395737370669230537e-01
1.021924117480663419e-01
1.965936974818857652e-01
2.135120998719755858e-01
2.162004094937894638e-01
2.281835928740057751e-01
1.797597689749947381e-01
2.151245248904951890e-01
1.969682647209178850e-01
2.046717132754372059e-01
1.612203879606382007e-01
2.526082473247009963e-01
3.079258952769495794e-01
2.176277086942076666e-01
2.681763096667212354e-01
2.421398901087621069e-01
2.098292329374215892e-01
2.478611182367931598e-01
2.027199734771268358e-01
2.934921323070578403e-01
2.385613792300506630e-01
2.291284986387406020e-01
2.708846084478037652e-01
1.946133623806453050e-01
2.620599424238742037e-01
2.559619883575499633e-01
2.559671301214705985e-01
2.237984011223640990e-01
2.007528290590778197e-01
1.799935693869617326e-01
1.884332243810122043e-01
2.224192392948853292e-01
1.875663942529139927e-01
1.674045416536016073e-01
1.706741478255011102e-01
2.184505374419405399e-01
1.747658800428488479e-01
1.408974238059360062e-01
1.618320185693580271e-01
1.772900963523950102e-01
1.715898437482389349e-01
1.188113197001049448e-01
1.414452302190716271e-01
1.214534796966472152e-01
1.272288125057647601e-01
9.551026787568685228e-02
1.383125551385361862e-01
1.501350695714955830e-01
7.966199363855455684e-02
8.531369748977536693e-02
9.726084784779710779e-02
7.076029115077647758e-02
7.529651648616424164e-02
1.051247031131305187e-01
1.701470719327396672e-02
3.771599908193970507e-02
1.490716673839654303e-02
5.096554724197091546e-02
2.162439268692580366e-02
6.145458419517597914e-02
1.681128526709415802e-02
5.915427154157994194e-02
1.374056707113696825e-02
4.782716958958893594e-02
2.580184340361038262e-02
5.443463079707793612e-02
2.046582361480276183e-02
4.469462211179396627e-02
-1.643565590210267421e-02
1.191059018842761594e-02
4.306550684654180533e-02
2.646133459023910714e-02
1.115163160718111654e-02
1.177067918372997485e-02
2.789004494715585994e-02
4.403863477226020035e-02
1.543234271737882815e-02
-2.109335603597627812e-02
1.965549959982163669e-03
4.070224064341275427e-02
2.296199355256190941e-02
-1.702169270008296181e-02
3.541949968696768425e-02
2.030181882122296042e-02
4.409246403260406316e-02
1.863419865340319725e-02
3.190423339475484399e-02
-1.532784190178994484e-02
6.699790591325997802e-02
4.009617855416809651e-02
3.534739960448472773e-02
4.223835921354274214e-02
5.103678015707146381e-02
-1.329021786980529723e-02
6.748290063675391193e-02
7.421895835524913720e-02
6.480265777537089211e-02
3.696366979352641580e-02
1.063640913127633508e-01
4.312279161984672315e-02
5.557867702543462657e-02
4.166818823297239321e-02
3.707961131253049991e-02
1.019037969429172075e-01
7.256883280960430005e-02
9.762396169799267276e-02
2.611315142450639989e-02
1.002311387823356797e-01
6.490747874675979745e-02
1.369053319853875128e-01
1.073686009119342311e-01
8.608192336934428202e-02
1.214293909486756501e-01
9.787202584217324919e-02
1.745888426730255183e-01
7.949188138402424331e-02
1.514996707005997756e-01
1.900986362080326897e-01
1.569993174859907747e-01
1.804988457407342983e-01
1.336236343315256869e-01
1.559085308877079801e-01
1.709924724674678764e-01
1.915019157413785089e-01
1.207960465822449647e-01
1.198749349818306331e-01
1.268272827380665657e-01
1.323689896442200586e-01
1.381859451451293297e-01
1.461084337402601963e-01
9.499606768353609232e-02
1.311276620408098614e-01
1.426173876425063658e-01
1.307427689164984974e-01
1.211891505075932685e-01
1.426808019813319284e-01
1.723697622419028685e-01
1.525936313993027371e-01
1.400338359411693046e-01
1.934058948129745992e-01
1.578547883080268499e-01
7.796445212041755446e-02
1.447687265871249462e-01
1.076744338277162982e-01
1.374982801846026670e-01
1.780073519460438625e-01
2.016757715736306744e-01
2.478918943668252384e-01
2.542916751239083228e-01
3.804197756624524418e-01
3.882273516505199140e-01
4.898826512053151006e-01
6.552006139471012736e-01
6.992471975759285696e-01
7.765260792250858746e-01
8.905140875371095888e-01
1.079837586807273375e+00
1.081063220635097855e+00
1.174033420499054792e+00
1.260813801140172385e+00
1.386112425277379323e+00
1.436978286895542301e+00
1.356778364751166865e+00
1.361559966185507342e+00
1.371049467428760993e+00
1.356883811065199508e+00
1.234645375754182428e+00
1.143146614543080197e+00
9.885079167641603881e-01
9.761907250850893059e-01
9.111630141672287797e-01
7.352067480018968926e-01
6.283958865818521922e-01
5.729226027156942846e-01
4.160473667063691594e-01
3.746461830170138563e-01
3.199208981783103756e-01
2.649727173643511291e-01
2.655044137895781753e-01
1.653947865139093198e-01
1.512372921914663104e-01
1.194574872078152800e-01
1.672709591794754591e-01
9.930771987256475919e-02
1.404281495496941257e-01
1.399832194452181600e-01
7.752309072068561124e-02
1.492468366127013280e-01
8.342326355808452054e-02
1.238094596280373133e-01
1.162088305407200789e-01
8.160225614512012227e-02
5.732216022947759365e-02
1.487427531359779009e-01
1.168223481116252016e-01
1.402124805830988752e-01
1.019265924147265134e-01
1.219835755557313745e-01
1.297876302703911411e-01
1.319586792679786069e-01
1.465177757314515272e-01
1.958394021803801510e-01
1.923226252392017943e-01
1.976231049813096941e-01
2.031394493337745633e-01
2.202098040772025866e-01
1.874646871503784784e-01
2.006714565021694985e-01
2.008331985970681632e-01
2.596568072364999757e-01
2.936289095559589946e-01
2.338556537326403340e-01
2.622732748392548330e-01
3.081733126311480553e-01
2.787126933028598597e-01
2.377012895709479101e-01
2.637772608935827767e-01
2.675668198284206767e-01
2.556618725594390074e-01
2.825687483996638938e-01
2.838834920433362385e-01
3.530110140251626616e-01
3.085684804921764446e-01
2.696373563801299222e-01
2.635195823918236591e-01
2.798613468179331765e-01
2.759236562555798522e-01
2.802487060013867382e-01
2.678798205469404836e-01
2.835667188739846023e-01
2.656549807795297036e-01
3.135942325861224012e-01
2.593077598724311539e-01
2.377224670997365452e-01
2.928500413739382191e-01
2.055155505917078129e-01
2.534395931102698674e-01
2.353386592174405989e-01
2.499275086883936958e-01
2.346425688482559058e-01
2.042868841093655463e-01
2.581633879652566743e-01
2.833679691788941746e-01
1.838963470637201281e-01
1.785308122403616582e-01
1.882576712987570899e-01
1.559656202619713883e-01
2.571538352057868293e-01
2.281647382857640849e-01
1.859968058558988391e-01
1.548457462401100215e-01
1.615750492505816927e-01
1.781050840414096503e-01
1.830917692567555766e-01
1.324914992593747565e-01
1.693118681219225596e-01
1.122649726203500675e-01
1.189502593797345104e-01
1.245970638035577005e-01
1.673558866127157485e-01
1.104492786481208744e-01
1.296835718794762116e-01
1.343205922684596598e-01
9.482374649613750650e-02
1.234813740960537115e-01
1.327118678555707365e-01
1.101664381081234323e-01
8.520520307729463616e-02
8.935918528001310368e-02
7.658862286263913577e-02
5.830551370317557658e-02
6.871732639198346870e-02
1.023243504200771758e-01
6.140295804243377231e-02
6.932471758669424278e-02
3.495454018121987860e-02
8.761609634465661323e-02
6.933556259092274465e-02
-2.699043070710269165e-03
5.485419811082857533e-02
-3.351399639932153840e-03
1.001748456375006202e-01
6.299915522086566022e-02
7.271837449776399898e-03
1.269111983733451077e-01
7.137788497182251390e-02
8.839158954434249427e-02
2.099031432955988236e-02
7.437041324663271058e-02
1.248086099613031907e-01
2.260658934607569573e-02
3.353654329243482834e-02
4.071292210115998872e-02
1.104516531379378941e-01
-6.243464755219321760e-04
8.946576311918183477e-02
6.034335670273321267e-02
3.900218055420325708e-02
9.701857485765139066e-02
1.495127473485411418e-01
3.912476172747229863e-02
9.925798120543237457e-02
9.009303610005472973e-02
7.265607102719590094e-02
7.235798447247687726e-02
8.776689160044703897e-02
4.477330379984437170e-02
6.909428033996126151e-02
6.094610539469060007e-02
1.088257920529339395e-01
1.136407898632720848e-01
1.038824804915036981e-01
1.122898416982769793e-01
1.066880242337822360e-01
1.308217075535313967e-01
1.196495150955491638e-01
1.063989149205487594e-01
7.932094005800827130e-02
1.596339910070876111e-01
2.015827809402382376e-01
1.711853378204233889e-01
1.376108609711905462e-01
1.761615979313908842e-01
1.843922442406780160e-01
2.235087085903155746e-01
2.347103190641839088e-01
1.887185488425660584e-01
1.878421339087184005e-01
1.885400343925631161e-01
2.009916936879206917e-01
2.362085280831773826e-01
1.990561522274283124e-01
1.963808602102187773e-01
2.143242869545221030e-01
2.178437205360792273e-01
1.832518175777436142e-01
1.998266516956701822e-01
1.811349034215286591e-01
1.788761607998536618e-01
1.799518346525610935e-01
1.439914334427365161e-01
1.523001027168001398e-01
1.613332432458386423e-01
1.457115782953967154e-01
1.360232783360752762e-01
1.725887646181861190e-01
1.161183089861453077e-01
1.495055808737663916e-01
1.620592996628415494e-01
1.655487801726984731e-01
2.000812953051397114e-01
2.536845810014702884e-01
2.678967766074017987e-01
2.549249619574514014e-01
3.550026972486688970e-01
3.839902518668070197e-01
4.488758771510139578e-01
5.799651004770183249e-01
6.312343026405846658e-01
7.447512856204783205e-01
8.925315033868523873e-01
1.014541174366947018e+00
1.136802941998097172e+00
1.169142069333933609e+00
1.330664588361687439e+00
1.437452896779424671e+00
1.405684817760275651e+00
1.370767808984481695e+00
1.417977907550965977e+00
1.408416196672388931e+00
1.330330895117363577e+00
1.235514200827962483e+00
1.234598473724775047e+00
1.118499340219703875e+00
1.064294369504807714e+00
9.404742863657249430e-01
8.220648190236761188e-01
6.773816414411194531e-01
6.056482873103143927e-01
5.003561130423939129e-01
4.111667309292442174e-01
3.045329401931829438e-01
2.942827906327486476e-01
2.046355543032796209e-01
1.799347187579437568e-01
1.786475694884218646e-01
1.044486278366596604e-01
1.202116615176626879e-01
1.254409657922765653e-01
1.527573813772288291e-01
1.053465049412432575e-01
1.698560113576514374e-01
1.174965713518676957e-01
1.414037723663867652e-01
1.543146681106265516e-01
9.857287592607144600e-02
1.273892871687498374e-01
1.555391449000131099e-01
1.033707870045700999e-01
1.346139909588281447e-01
1.077830257122409374e-01
2.240634505906536622e-01
1.739781755518086670e-01
1.523093036229994091e-01
1.749851052180029787e-01
2.539265699648097785e-01
1.849938678504109146e-01
1.695565683682672409e-01
2.159631082867302654e-01
2.295104474185031551e-01
2.025380487508579019e-01
1.785295063052090014e-01
2.501858226901495508e-01
2.226325985574088284e-01
2.713786865388120861e-01
2.886036715103551531e-01
2.547112977673885448e-01
2.339613266290574700e-01
2.806265861387846616e-01
2.452297400304078445e-01
2.957028792717948940e-01
2.681685755321512321e-01
2.505860154180478139e-01
2.975874263100509731e-01
3.319562921245649001e-01
3.090855210927716534e-01
3.133940352723591505e-01
2.941660055086406933e-01
2.752747414953126137e-01
3.038890939981221950e-01
3.255397362076119516e-01
3.213801498095856246e-01
2.951397409859807253e-01
2.225376341599639429e-01
3.000579452861423801e-01
3.323523064367022717e-01
2.639207558741881177e-01
3.066333693980228259e-01
2.577636244129030696e-01
2.624334227109488271e-01
2.792338562248334322e-01
2.731531771045982993e-01
2.426714795449428641e-01
2.924032220485663358e-01
2.212398983416001552e-01
2.966693140240906357e-01
2.572372078106513471e-01
2.410669737397609924e-01
2.826587418308348920e-01
2.790949985046868309e-01
2.008659812757244978e-01
2.256385283602816150e-01
2.306557360060469131e-01
2.193650480624176335e-01
2.287117229095193549e-01
1.823386192633720260e-01
1.787334846866858173e-01
1.289157448052349886e-01
2.164872549645389666e-01
1.988534436890533053e-01
1.187326019056741955e-01
1.806246478027444258e-01
1.193285228041831847e-01
1.267446021397236611e-01
1.405220798825299044e-01
1.172706721734445567e-01
1.190780089139262254e-01
1.071663784372092754e-01
1.007886056770533889e-01
1.251886869265203539e-01
1.003237904657657553e-01
9.506691699970147569e-02
1.259320995956556832e-01
7.718295492163856908e-02
3.445720165522769829e-02
8.415990756827618213e-02
5.888608932959121800e-02
4.519958187890201623e-02
6.878053771615280643e-02
7.706011267000378862e-02
7.621984233726628033e-02
8.912931799401348221e-02
3.926529902402239869e-02
4.713223474853973222e-02
7.571635962701400713e-02
9.451812855455024587e-02
4.909216039001323972e-02
8.068641248160401958e-02
3.977869742049586210e-02
3.408963648437070282e-02
6.047687143169948321e-02
1.033401684044626401e-01
4.978026005055624648e-02
1.504298526571334546e-02
1.526926564937950564e-02
8.006385541426477848e-02
6.054211091417303209e-02
8.379020971894320102e-02
2.180404192308516009e-02
1.090803298494386758e-02
5.715957428879352847e-02
5.232174613546169278e-02
5.200246936501731754e-02
5.193124648222711970e-02
4.367861840780992017e-02
3.603282577281931298e-02
9.621254343086516059e-02
9.100046554919277719e-02
5.605261963755497207e-02
7.735029353337995184e-02
5.602128458616145723e-02
5.827633316772325850e-02
1.106552815742223861e-01
9.740985236404971215e-02
7.561822501966636301e-02
9.850581494760883572e-02
9.140822441494803052e-02
8.403482216797185378e-02
1.057867995821789864e-01
1.346147303481264601e-01
1.574176199706861790e-01
1.330312044134587535e-01
1.637029352357641243e-01
7.466411685227392070e-02
1.175706300801487442e-01
1.159609494269966123e-01
1.008907151280603598e-01
1.582386674783795855e-01
1.864156508073939178e-01
1.787442181445821898e-01
2.159787507542509644e-01
1.785251067217778764e-01
1.477919671328250251e-01
1.047373842249814668e-01
1.613430530400215002e-01
1.626472840517200757e-01
2.382980071974449277e-01
2.037109725163909757e-01
1.606249730060038960e-01
1.983958060250225475e-01
2.193845394425968098e-01
1.956859056194327207e-01
1.338756336100737909e-01
2.088672846259362892e-01
9.585166537361282380e-02
1.469609214361319305e-01
1.495096611126870423e-01
1.492199506399932707e-01
1.437480829250888659e-01
1.109166051889122484e-01
1.799521233880937432e-01
1.586945023916721542e-01
1.387707106545085223e-01
1.625603783048992779e-01
1.436250069334972790e-01
1.950561995278274896e-01
1.964455266993791749e-01
2.708673638134877493e-01
2.238589512027341910e-01
2.563956246645449633e-01
3.615605685418991633e-01
4.535063116698788699e-01
4.958790916879627919e-01
5.769255404903812501e-01
6.930377984647912992e-01
8.466337396743963684e-01
9.922985707856349924e-01
1.088342350886481125e+00
1.139107299702889264e+00
1.252894766988187802e+00
1.311125608057456482e+00
1.315390651471197936e+00
1.338712124164773476e+00
1.430180707150774388e+00
1.480025074948190023e+00
1.385677425149872022e+00
1.313621945729162466e+00
1.207568714662425213e+00
1.141283597760941237e+00
1.017174699627229284e+00
9.029770527793010704e-01
8.756715616407834135e-01
7.329646307863838528e-01
6.140388307274913249e-01
5.100655502589224177e-01
3.884320462406275487e-01
3.472919089034189888e-01
2.446705218119367142e-01
2.269938476049942477e-01
1.642186781592143707e-01
1.252953735018630388e-01
1.584609438112457580e-01
1.030244660886282942e-01
8.640467374638385878e-02
7.600655345903536975e-02
1.456299535420300939e-01
5.458385460076919937e-02
1.215405470821557671e-01
2.365009268969653355e-02
1.116090307228541079e-01
1.430463925997370322e-01
6.792516014614785602e-02
8.224983212957440171e-02
7.840147533894352427e-02
1.040909120600498616e-01
1.534755311630735530e-01
1.185917977026173797e-01
1.513295152072998140e-01
1.544971582078852601e-01
