1.417058996940794291e+00
1.416593185949567735e+00
1.381416828261925467e+00
1.270689985773481689e+00
1.213230079303242670e+00
1.154693281470258626e+00
1.055494000520795561e+00
8.881006568712699334e-01
8.203100908424756366e-01
7.011791521516264059e-01
5.516119052404089285e-01
4.945018456323137523e-01
4.184963415507488849e-01
2.803904719410584834e-01
2.592849445977041256e-01
2.426740191914882605e-01
1.778991079979626022e-01
1.276072745368437844e-01
1.495690689730325429e-01
1.144246754064969507e-01
7.243832576943239066e-02
4.557097656847794442e-02
6.820568712525688915e-02
7.842648890146369789e-02
1.467955244267933057e-01
1.138557604725424915e-01
6.139985829523233324e-02
1.381525930875053820e-01
7.530298867661780471e-02
1.019219015633380521e-01
1.343213650484926525e-01
7.721377315716734802e-02
1.088856107951091806e-01
8.681452313095641693e-02
1.056995039585848228e-01
1.312141025972117792e-01
1.345128538708068311e-01
1.444219572780866545e-01
1.143768799900900246e-01
1.959425239674984220e-01
1.159464137417066248e-01
1.927015077346576899e-01
1.453700932741354146e-01
1.769067433432691683e-01
1.805468628281731158e-01
1.804986577141501347e-01
1.886982542660172180e-01
2.097791935229559590e-01
2.643425864659412761e-01
1.970410563793685010e-01
2.331231863087489808e-01
2.046670390146402285e-01
1.720063675442206341e-01
2.591634423158918343e-01
2.487255914354332409e-01
3.071193660738712472e-01
2.775685674601628405e-01
2.452344431658401713e-01
2.132017671848597251e-01
2.971627772229040176e-01
2.567638721851726591e-01
3.069412807048233494e-01
2.701596549496299571e-01
2.623801240709494609e-01
2.109332130885743228e-01
2.387077757986381943e-01
2.578646527112800069e-01
2.323936884381612722e-01
2.600064602364283717e-01
2.864118038921802945e-01
2.512218062726193080e-01
1.901508040231701391e-01
2.129327881063317329e-01
2.554702525408387714e-01
2.009551872493072489e-01
2.145287198135384099e-01
2.666127309601915019e-01
2.104274339644854053e-01
2.090346012946565357e-01
1.678032001583129595e-01
1.698057407283535547e-01
1.512792598871037786e-01
1.657094983597061366e-01
1.961963588954579452e-01
1.493417927975110027e-01
1.317367302995815781e-01
2.043737000907097090e-01
1.327907693213125073e-01
1.506732491524752915e-01
1.609559142226151540e-01
1.488980331509711652e-01
7.208165553202966480e-02
1.302013642067972876e-01
6.921280081866464096e-02
7.427561594206186224e-02
1.202494724453761765e-01
9.582301452850212897e-02
3.164518413649678591e-02
8.818038593292497340e-02
4.314162355054912412e-02
8.654050899128637453e-02
6.212111239646621319e-02
5.216055553878384821e-02
2.575557028573471907e-02
2.903579259445173907e-02
1.107703926602011252e-01
4.315487868588638309e-02
1.292970867213291686e-03
5.313996974585714905e-02
7.720925549700516366e-02
4.026222079828011696e-02
2.188419334503084387e-02
3.169041097009887842e-02
-1.810728850293361405e-02
4.495672861330565068e-02
2.459821354943401983e-02
-3.741615345166082740e-02
1.342399361776898219e-02
7.840572796426591856e-03
-3.087065792721944459e-03
-2.838775101074193785e-02
2.468668413213212856e-02
-4.525637002041528467e-02
-1.159011203858192028e-02
4.095446033904819039e-02
4.533314160156629719e-02
2.259313330023181993e-02
-1.578467810432235621e-02
3.868742202893255683e-02
-3.189464712865899138e-02
-1.975223599230383278e-02
-8.621320888075850730e-03
7.979346945614255310e-03
6.667440565266659347e-02
4.229350051505285230e-02
4.811056454325397802e-04
-5.503090604948589898e-03
-1.731160916661296512e-02
-2.412691080539394392e-03
1.387186507967027270e-02
-4.239364553603429397e-05
-2.308055681386728814e-02
-1.263377300321665876e-02
-1.216827103526503875e-02
-3.056912531909344519e-02
-2.896863739809150962e-02
-2.049291433152036074e-02
-5.295092425282105913e-02
2.032985786495111399e-02
-9.282019550217494863e-02
-3.095705564888322908e-02
-3.133196362702865556e-02
-3.661088278781027272e-02
3.200420858713154404e-02
-3.590259179008135904e-02
1.773121970505752917e-02
-2.315291151697176919e-02
5.488278519545269907e-02
8.112320723046014675e-03
-5.720856272954548405e-02
-2.957695844910257846e-03
3.684219536611994805e-02
2.859990207364980844e-02
6.155846604010695167e-02
1.329974981734709238e-02
1.954137869572715805e-02
5.670910453560987219e-02
-1.288613809762451795e-02
-3.356845569598518320e-03
6.960695431035657244e-02
2.988035218580031849e-02
8.130204815787592243e-02
4.360419506646417281e-02
2.437079722544467988e-02
6.435060819638210861e-02
2.481792620228654919e-02
1.377187198689281966e-01
1.060159489810247185e-01
8.727788377109588214e-02
7.841441236356461175e-02
8.643794590528319777e-02
1.296287430852468836e-01
9.994194897294605973e-02
1.466246182746517579e-01
1.337028344339095676e-01
1.276441493940936589e-01
9.750462472098447853e-02
1.525202688402234052e-01
1.385009709456345994e-01
1.068397424045497701e-01
1.721516845374597149e-01
9.942108073970694349e-02
9.093078958664255196e-02
1.098638458489658715e-01
8.825166954438198874e-02
1.103927480053649018e-01
1.365092752736305759e-01
7.314711070799982673e-02
8.121652011142382888e-02
4.160960340391604839e-02
9.812664021746658749e-02
6.158171893785728546e-02
8.857303017815920665e-02
1.086329128695958934e-01
6.990780510833548289e-02
3.016544702093648667e-02
1.007656907574187438e-01
8.264112716824126292e-02
1.415637516136184493e-01
1.363847185312145605e-01
1.845298095202226596e-01
2.777899417484736566e-01
2.601325549474561294e-01
3.684075574223344418e-01
3.850470775857093297e-01
5.131128990241251575e-01
6.383623586933381278e-01
7.524407899754256279e-01
9.161553248972078567e-01
9.563055082235085713e-01
1.030043160401274527e+00
1.160474593833125123e+00
1.197873161345019088e+00
1.282927907348238694e+00
1.300310457424058264e+00
1.339437413910259611e+00
1.344495685938499330e+00
1.333279765497461744e+00
1.199814826565471337e+00
1.230412066443975272e+00
1.095849626289147505e+00
1.030612434076072059e+00
8.870694642280753106e-01
8.840327333916274677e-01
7.181144606647126283e-01
5.860605453160320222e-01
5.043184702969365496e-01
3.954277372560839332e-01
3.058809156934771400e-01
2.577661180818541231e-01
2.253737798964510208e-01
1.727415117319255344e-01
1.265536354855932577e-01
7.715357090644750504e-02
6.670119753607822721e-02
-1.359168518307343754e-02
2.698728612037181590e-02
2.913106020240347621e-02
3.781901080778108520e-02
1.200695851414174814e-02
2.068020942090913888e-02
-3.923827264139196497e-02
7.195990060988084747e-02
8.119400907803470124e-03
4.049187075101673416e-02
6.175152047212186662e-02
8.927113157670141241e-02
2.779159044666660444e-02
5.479117901054140344e-02
1.368940020303078819e-01
9.096500526930600961e-02
1.030765577808316347e-01
2.863178370418632823e-02
6.941516858218163555e-02
1.441037486184639227e-01
7.067226449189015214e-02
7.615375936546031621e-02
1.206484131290145867e-01
1.778878380976090523e-01
1.756513035905996889e-01
1.066723134635414044e-01
1.299683234861264414e-01
1.377563068216112185e-01
1.713016167060381623e-01
1.509059432752913321e-01
1.983122331452089326e-01
1.788807042478488263e-01
2.414600636321360405e-01
1.993452104480127329e-01
1.966318165414354391e-01
1.752335066006039666e-01
1.918509426877044455e-01
2.134833871823056950e-01
2.200679867763694619e-01
2.012494786385292667e-01
2.064014466175469187e-01
2.232162592329364759e-01
2.177395959409041959e-01
1.968331914062210475e-01
2.555244152566475413e-01
1.985970904424436689e-01
2.110515327064008406e-01
2.590452454828885420e-01
1.466675764864679155e-01
1.554058896403436307e-01
1.438552963067534496e-01
2.268461423163418700e-01
1.726460708543771649e-01
2.054655005876719898e-01
1.902418856297482530e-01
1.753296098367396194e-01
1.814725438773256427e-01
1.545825310040892242e-01
1.289367774610997719e-01
1.468473271883640741e-01
1.260341220916103844e-01
1.629827378614008282e-01
1.285584179835891350e-01
1.360859306430912963e-01
7.835013989366756970e-02
1.213530902610352180e-01
1.089770036600833658e-01
8.433216795664888465e-02
6.793546867525585009e-02
6.371309358676215118e-02
9.088323453889783632e-02
9.291535425945243731e-02
6.476184639098547802e-02
1.066995569100090968e-01
1.190892712198977632e-01
4.433447825961424338e-02
7.385575532962465606e-02
4.565812725767628283e-02
4.806791535039570823e-02
4.554514785547112560e-02
3.463993029554985476e-02
1.187278221494223601e-02
-1.546812154004643947e-02
5.959877728071853037e-02
-8.543216512652669625e-03
2.314846062959265149e-03
2.388584125277666559e-02
-6.122078540420133885e-02
-6.125559960116766511e-03
1.273536766255833896e-02
-1.051281884297388530e-02
-3.965580151489127292e-02
4.522532423165311066e-03
-5.259141948581079473e-02
-1.380312130802225506e-02
-7.735240634163120799e-02
-1.443166472548181034e-02
-3.954636573591083226e-02
-3.770001299245142462e-02
-2.164435613942541914e-02
-4.312424682246744634e-02
-1.001562805192677402e-02
-4.523777277866800062e-02
-4.108623601260880803e-02
-1.633955870770842367e-02
-4.767978681398859359e-02
-4.794710127114175380e-02
-5.720836626549968829e-02
-1.397209155235097366e-01
-5.352375394996732039e-02
-5.216134219132315814e-02
-3.889153563478742887e-02
-3.814539642744071285e-02
-1.189385016291327757e-02
-6.347206350422185395e-03
-3.250461179387625910e-02
2.706983093569842458e-03
-6.862282062033070451e-02
-4.333745709525331502e-02
-5.321016014395479887e-02
-1.062842529307015949e-01
-6.230978867470815530e-02
-6.057972535348338239e-02
-3.698781037510685821e-02
-6.035395332793949685e-02
-7.659834920208621889e-02
-1.798867379133996941e-02
-4.880653096621714176e-02
-4.335808005746311089e-02
-6.270033374588300512e-02
-5.203566898409069108e-02
-4.168226492481837825e-02
-5.643041625099898956e-02
-4.087050245087009426e-02
-5.572742480905182316e-02
-2.834114269930235186e-02
-4.950793047570893612e-02
-2.690197882740279212e-02
-1.641149035792782707e-02
5.382481702030745413e-02
1.302841308366779749e-02
-1.615847461186299683e-02
-5.331498185234771758e-02
-3.356738269631470012e-02
-1.474068768855596456e-02
-2.762041543688558212e-02
3.188965633587702991e-02
1.109462568703166452e-02
-2.951402277982578121e-02
4.980123935081146036e-02
5.906085587105970591e-02
3.816159019420099080e-02
4.693755661586379579e-02
5.003869830214796588e-02
5.864064654738926352e-02
4.431517389081855718e-02
9.020013251593680947e-02
9.094716142535387571e-02
8.252964040396977563e-02
5.868946958695374361e-02
5.665455088026101482e-02
9.415227846180954097e-02
6.261771802652141283e-02
4.029994915460981264e-02
3.606152921699304348e-02
1.170396019432559109e-01
9.287962292780317652e-02
6.269761551950292500e-02
8.361539137076914874e-02
1.473015608513673080e-01
2.893201678146210820e-02
7.166539698505844380e-02
8.825895335264921648e-02
9.052481179248914045e-02
8.030964915729980891e-02
1.165845601598575892e-01
9.710943475208363984e-02
8.266679572606154547e-02
6.676039394427157880e-02
8.730804662628885437e-02
8.287053139191732920e-02
9.875772730951240530e-02
1.952257771548213811e-02
9.307032321393346463e-02
8.408678315029463612e-03
9.521545326323652136e-02
7.628332326728018420e-02
7.467695922038103395e-02
1.418277181330079850e-01
7.081478893258603968e-02
1.426262201837580346e-01
1.983384584024653341e-01
2.575011802626768764e-01
3.242599724919109083e-01
4.147623866485075639e-01
4.655215852880358884e-01
5.866816896844392337e-01
6.556829588280626009e-01
8.026221612905047875e-01
9.413077872697044324e-01
8.994564501268643708e-01
1.060781962976116821e+00
1.215558988615691005e+00
1.232598000412793215e+00
1.393282551888627374e+00
1.371078326931962854e+00
1.321805281245725272e+00
1.273080658838879664e+00
1.277513241102577801e+00
1.183935156506277453e+00
1.122033961882842990e+00
1.063649045281705785e+00
9.368917679645654140e-01
8.094736522861972761e-01
7.246147121801667090e-01
6.142530880088495904e-01
4.958360067138380955e-01
3.645359467546755439e-01
3.391366283298404283e-01
2.645226590822978840e-01
2.387730781888477982e-01
1.817944825475005521e-01
1.320468220310834218e-01
6.959911573396339313e-02
6.264274975775752097e-02
3.515318314788015708e-02
5.441493649602981847e-02
5.983948615983806368e-02
1.996333374944647687e-03
3.352067266531662953e-02
5.740450649524658777e-02
-2.729541145028067939e-02
8.873598152682329876e-02
8.517978154223511400e-03
5.590711747981086388e-02
6.324822413841807434e-02
4.916574006573486144e-02
6.071855747023850725e-02
4.477850424967585313e-02
7.587314984150222985e-02
9.017100165077265861e-02
8.352007600448922708e-02
3.223693054425497834e-02
4.650931302123027106e-02
5.910346960183082698e-02
1.375263683340751386e-01
1.755342750501602544e-01
1.228592454344521467e-01
1.253426779489206222e-01
1.389723073359181160e-01
1.406283508737326549e-01
1.295016888417652168e-01
1.832667965328664550e-01
1.979277971451030571e-01
1.689266818224441358e-01
1.903307294791431459e-01
1.753912436435438038e-01
1.807098365748159297e-01
1.871917964629539188e-01
1.752554800570911286e-01
2.206351396565947587e-01
1.483090229264237558e-01
2.292807380999397071e-01
2.308729466517628337e-01
2.698438296709846362e-01
1.438240417105097202e-01
2.007324130977590770e-01
2.675787627674737212e-01
1.852835654027684409e-01
1.864523416961524627e-01
2.063409560152900390e-01
1.849677375721737183e-01
2.345393983100159396e-01
1.681408494081743088e-01
1.874335495184580036e-01
2.023674254919603788e-01
9.971584253005144616e-02
1.773024253860557287e-01
1.901447366216926227e-01
2.163466037027086120e-01
1.370164385036836407e-01
2.002089779647089895e-01
1.952836580030649916e-01
1.858644402599183010e-01
1.209258655321053949e-01
1.902075944490130843e-01
1.652497241147994900e-01
1.549229973250385028e-01
1.616004211151281789e-01
1.221198498872942129e-01
1.641497024118329096e-01
6.883810415028909779e-02
8.151080627172802018e-02
4.165930398382077654e-02
1.286013158132468526e-01
9.785279057113359380e-02
1.149069375215832356e-01
1.196996828365536059e-01
5.064012652814955939e-02
3.945407416337571443e-02
2.718202765220834732e-02
2.778307886193397136e-02
4.712124986555697032e-02
2.055435969493182163e-02
4.237050155054506578e-02
-7.338075984200900792e-03
6.834359042746186719e-03
1.858419690627445553e-02
4.860234845078226229e-02
-1.026838838085133640e-02
-1.822772057332853329e-02
3.660483786683869228e-02
-4.276689683656271362e-02
-3.513181333712454835e-02
4.020644145777044903e-02
2.489105780441123322e-02
1.317095666167356072e-02
2.600813399175699175e-02
-2.755594683634884912e-03
4.544592357165356394e-02
1.857052718705570066e-02
-2.937848769367627094e-02
-4.668997829283385442e-02
3.668414315062051151e-02
-2.651986813181055752e-02
6.354580644298016279e-03
-5.880756798402671237e-02
-3.687280690369582059e-02
4.386676569266109021e-02
-5.159583215303163717e-02
-7.205660054584742125e-02
-4.462217139765238538e-04
-2.614444104173672956e-02
-8.556169755555560752e-02
-4.988329478610696588e-02
8.278247146566244247e-03
-2.956291364136369448e-02
-4.019070674020693013e-03
-4.577445341636805776e-02
-4.512183470344355990e-02
-6.111367273351681062e-03
-4.393886099532197387e-02
-6.471113127659014475e-02
-4.353857726187169985e-02
-1.421432308251387687e-02
-7.831525886870464859e-02
-4.469284454937633155e-02
-2.898803342275926495e-02
-8.805206312050832540e-03
-8.765037805109793245e-02
-5.569239789785679351e-02
-2.146798012877547054e-02
8.457473901097335711e-04
-4.545747873025965391e-02
-3.630554835921721846e-02
-6.916738479365244774e-02
-3.349372053723463638e-02
-4.703471380237091160e-02
-1.394851842874679330e-02
-3.972480189370361514e-02
8.969317179912450477e-03
-4.164053368501229035e-02
1.217550662099604886e-02
3.288579671802843718e-02
-5.268843311315791339e-03
3.607472108284856538e-02
4.769536928752804439e-02
1.279385776363496305e-02
-1.807323944477057936e-02
2.653084232725653330e-02
-1.381829134806767528e-03
3.431480728435656186e-02
1.809360720849327933e-02
2.949860978256588218e-02
4.889811416943871253e-02
6.893628488103642482e-02
5.001283299108372910e-02
5.756873012756785757e-02
6.970256080527775788e-02
9.569374491935432603e-02
3.797298543232972140e-02
8.823139446077882253e-02
5.615548266849855474e-02
9.818769363312673804e-02
1.383282440501334976e-01
1.158672100722826781e-01
9.992429084988246890e-02
1.805504264350296373e-01
1.240484408264100752e-01
9.370616322809768861e-02
1.037826786493246389e-01
1.139255241435100791e-01
1.538950069140108123e-01
1.755615966940359540e-01
1.384131425720651343e-01
1.249540809386815721e-01
1.312094245863082986e-01
9.127042657236639212e-02
1.349324514100323225e-01
7.691390124033450904e-02
7.888158312161094865e-02
1.634268691979606780e-01
1.175422931904088059e-01
1.000655245187816733e-01
4.984159127167642200e-02
1.384619328204457211e-01
5.389236462279155260e-02
4.616357529377049240e-02
1.310104390395218366e-01
8.991896458326326114e-02
1.029119730113703945e-01
7.267241837904347967e-02
1.484058530127039255e-01
1.244012119651071446e-01
1.362885128843231430e-01
1.674498636080271330e-01
2.438529300380118392e-01
2.644793910254196745e-01
2.809032392438142178e-01
3.587838180038138702e-01
4.881327515458443456e-01
6.121318105418259714e-01
7.034629935186659244e-01
7.864535536106460611e-01
8.711697637324961052e-01
1.000530339710263394e+00
1.124081019764862077e+00
1.228279091905423615e+00
1.294491394678215723e+00
1.322373886212285132e+00
1.367644677219909788e+00
1.340868637049589251e+00
1.403590398981517273e+00
1.358905172618918522e+00
1.210705233320530816e+00
1.259253812997010780e+00
1.078834191978141455e+00
1.039136898786929386e+00
8.994424749475425918e-01
7.929312952832244799e-01
7.083876637103465601e-01
5.996184894321571202e-01
4.202427005595281706e-01
4.556989578174628353e-01
3.935263029209767338e-01
2.742916037382547301e-01
2.115294790608968079e-01
1.666216328619499476e-01
1.151718150505015859e-01
5.609363584523274077e-02
1.038510570002697253e-01
1.084800330668227591e-01
1.606457922978109590e-02
2.852761962631453554e-02
5.820829742945754504e-02
2.024708676822615031e-02
5.312449089365201688e-02
5.597803065881386958e-02
7.857511389339336128e-02
7.151006840296920963e-02
8.911249330884055131e-02
7.718185530105657610e-02
1.154986904856741964e-01
1.496053050570916032e-01
7.576267290505020457e-02
1.123295178739907862e-01
1.119336638235620823e-01
1.042538734052849969e-01
1.236933580597875393e-01
1.040440668600006863e-01
1.496349734567548051e-01
1.876026167531619770e-01
1.999298613362803512e-01
1.333015488224236489e-01
2.046712665477736781e-01
1.746387325250073341e-01
2.298533486142215476e-01
1.873520146627346561e-01
2.212559209924179482e-01
1.786854226503702681e-01
2.207201251496067052e-01
2.413721255371167884e-01
2.007053615014269543e-01
2.090711757641151303e-01
2.321713512383751787e-01
2.482038083511682036e-01
2.977301787967939761e-01
2.208491691453445815e-01
2.224926492459365635e-01
2.569965166376064203e-01
2.321850629406650990e-01
2.941212255114906693e-01
2.356254340579582440e-01
2.247580619008131553e-01
2.991753144246227514e-01
2.715988921354728913e-01
3.077945619950600009e-01
2.737922176260413898e-01
1.862397108835083526e-01
2.766479877623510553e-01
2.565718903844759757e-01
2.079254149415829256e-01
2.355652759586253087e-01
2.151514141983528472e-01
2.760206371910089995e-01
2.664391359800372117e-01
2.241545281043357263e-01
2.477054160504854052e-01
2.529837977778753855e-01
2.033951709232926786e-01
1.912084847002832599e-01
2.503821754140820310e-01
1.714866488637634134e-01
1.844896176665434540e-01
1.419710972795885373e-01
1.654750007099914100e-01
1.868708841532383536e-01
1.802303792617907241e-01
1.777093443512181570e-01
1.323700284627232771e-01
1.397718040082883417e-01
8.457762601892465648e-02
1.735682264985170531e-01
7.811290594182798697e-02
1.553458768518072852e-01
1.315734313123011201e-01
1.452577170318462008e-01
1.273691403897211361e-01
1.048265329179423194e-01
9.866391947900028658e-02
6.159859061755273979e-02
8.039786211896357560e-02
9.235657075445675990e-02
8.646704231628667137e-02
3.861757032955143859e-02
5.676124245436114935e-02
6.118584564183555952e-02
3.807252447526308925e-02
7.164725656186954339e-02
7.154384716374814768e-02
2.844250917701496642e-02
4.768973282817817044e-03
-6.687571563230972072e-03
9.401861103286029975e-04
-7.643198901684779278e-03
9.621538595999561128e-02
7.997844972040217548e-02
6.472821750284657449e-02
1.656458576704209970e-02
4.962058705435301587e-02
3.541342853885574155e-02
5.121595270602766203e-02
4.490522216292743007e-02
2.742055561702832350e-02
7.191725360450337834e-02
2.186840274076144036e-02
2.172301255826606867e-02
7.657641301934997591e-02
4.250383489457866537e-02
4.250637378758348461e-02
6.036989670307042755e-02
3.025596120105674552e-02
5.703361329028468901e-02
4.085636657732216737e-02
4.450735633750036585e-02
2.212628026135285766e-02
3.448672939653622815e-02
-2.154521669298644498e-02
-1.977223181226101315e-02
-2.350549778090255462e-02
2.959975004780180524e-02
6.267496296200339434e-03
-1.984147680457515328e-03
2.206523741675366426e-02
1.619929745370560573e-02
1.555857448461456759e-02
1.723546396023740296e-02
-2.606942583856412810e-02
1.310117459634231596e-02
-9.500861063470103507e-03
2.132240550173187393e-02
2.017891830722049265e-02
4.843357220810406982e-02
2.218147335512975216e-03
4.985740139226389755e-02
5.000695015727806003e-02
5.889247830493382629e-02
5.336041593942313088e-02
7.857164583004656866e-02
2.631473820873848554e-02
8.939325307686205035e-02
7.912473137537970325e-02
8.569258335463569853e-02
2.261420750867429788e-02
8.295910322715568941e-02
4.949332399511650882e-02
7.907552482382501635e-02
6.666560011022726329e-02
5.590339923305824577e-02
7.320962206188943999e-02
8.323471345714428260e-02
4.001618144676545585e-02
8.280873111721148705e-02
1.374115662579374342e-01
1.672030004449271967e-01
1.040142492033542532e-01
1.549865124737992983e-01
1.708039573080501472e-01
1.329326166648657770e-01
1.720920247097729450e-01
1.863265557769646086e-01
1.541020216068075821e-01
1.823190773321840541e-01
1.808693338627328506e-01
1.707225358168469043e-01
1.550505181985858405e-01
1.853293319626111157e-01
2.080933969041541265e-01
2.293242983071958341e-01
2.078046232108342606e-01
2.285498768656754609e-01
2.063591039292549667e-01
1.259135415751563847e-01
1.560572370004417730e-01
1.325516314721065236e-01
1.498489260838157255e-01
1.283158143835731735e-01
1.427428669156405594e-01
1.582621491466065788e-01
1.866626341624387786e-01
1.762362608509991657e-01
1.448039344291696395e-01
1.440855345157045497e-01
1.113071653118882509e-01
1.535725185401261017e-01
1.567707211953630053e-01
1.700143849438528476e-01
1.386823282486612796e-01
2.075852136939330128e-01
1.604488237159810426e-01
2.601788251620227310e-01
2.392199638899328573e-01
3.229758014491024842e-01
3.668171895722843745e-01
4.688156165830407729e-01
4.846564488478911636e-01
5.827309508325215770e-01
7.057034445797956135e-01
7.546736737853205756e-01
8.821368450284882146e-01
9.641198903859276026e-01
1.118482326589833820e+00
1.208467278436462733e+00
1.304710779452256997e+00
1.360695259058280593e+00
1.316736456589991722e+00
1.449231418954430861e+00
1.383055397483988092e+00
1.425671633637402236e+00
1.348560828491032426e+00
1.295009576141417762e+00
1.252116795994777210e+00
1.145335178206167814e+00
9.691159990003787028e-01
9.169783936113860001e-01
7.395738139444837378e-01
6.858788499850034803e-01
5.738287610176866504e-01
5.631675369493290839e-01
4.255467447013305260e-01
3.707099107656711134e-01
3.032713602779745221e-01
2.314727388315809264e-01
1.482018650349317124e-01
1.072803947797409535e-01
9.287957940541372026e-02
1.061801554540463960e-01
4.827154474432749504e-02
1.226214332430350523e-01
1.229675893650276908e-01
1.106135463806964814e-01
1.702847250216754371e-01
1.204975620283409710e-01
1.595818941591115592e-01
1.068546894173514894e-01
1.089119006397812894e-01
1.459476573104711017e-01
1.291652510965552447e-01
1.627985011680970484e-01
1.218462872168050715e-01
1.582485859638113612e-01
1.763797742840809146e-01
1.826971410172230081e-01
1.990989980072250254e-01
1.760673548838246893e-01
1.898960014700285526e-01
1.864689097986504396e-01
1.813462228718437652e-01
2.279699363722942906e-01
2.228892253005651525e-01
2.234912336624546303e-01
2.286256140206638643e-01
2.339291333309632681e-01
2.572053362324382975e-01
2.848044079287271879e-01
2.610447793253730109e-01
3.286380696439509808e-01
2.549583605289130750e-01
2.593761305449942545e-01
2.936707349522590382e-01
2.626614875533572202e-01
2.922565039349867000e-01
2.862731348705585543e-01
2.721370773161651546e-01
3.270312227553741624e-01
2.647343675593675227e-01
3.353083020308442741e-01
3.091863700927768299e-01
3.065889446424930886e-01
2.889138695969069026e-01
2.859597436567051787e-01
3.163165961895613720e-01
3.077548237341218851e-01
2.355310410515637498e-01
3.112628575195207081e-01
2.595134344693774686e-01
2.753680480945215336e-01
2.859630096912208486e-01
2.742393178882776006e-01
3.244686464336994369e-01
2.640449130535276745e-01
2.808239981812913344e-01
2.737950421978844195e-01
2.241937305013378123e-01
2.809031707244031839e-01
2.509859493657843887e-01
2.446901266628068727e-01
2.655443584757776199e-01
2.056202652588191848e-01
1.824830242290326476e-01
1.688547726026337625e-01
2.431459946703713737e-01
1.935804581508074884e-01
1.410080409411266777e-01
2.470625058246261885e-01
2.212199166836399111e-01
1.995025310498158011e-01
1.269762626078052015e-01
1.435443521755599139e-01
1.428754894594668201e-01
1.379885825272343935e-01
1.050940864108934891e-01
1.009882279893637991e-01
1.643915606534596119e-01
1.124133685811937455e-01
7.644390531466560557e-02
1.086724645748846779e-01
1.115750010830726113e-01
1.708332354060643210e-01
9.646014788661151640e-02
1.230559141858312833e-01
5.392390653986467441e-02
1.305670891272567025e-01
1.160656288956772725e-01
7.163039724371193795e-02
6.714399189163616777e-02
6.496698797518457580e-02
1.406415732978630595e-01
3.683113404528860768e-02
4.450582337709121927e-02
7.884580761984905095e-02
6.093464195033457265e-02
6.507235056764661130e-02
7.214537819332439428e-02
1.216023182483703946e-01
6.488524043436634525e-02
9.060472413970954708e-02
7.083828965839272795e-02
6.015408143862398943e-02
6.950260618259909706e-02
5.685206515122227799e-03
7.287404500930336204e-02
2.418905423099835042e-02
6.788340856550503788e-02
1.427177226841234298e-02
2.853208340831489553e-02
5.505884869101959622e-03
1.196488579290865550e-01
6.105248598526759329e-02
6.499890661751801801e-02
5.793561744055789747e-02
1.033315668036265678e-01
4.723987300394269506e-02
9.811236963013181267e-02
7.630535974626342921e-02
4.292168329689597522e-02
3.040903968545174973e-02
2.909786350543882433e-02
4.124837259839381209e-02
5.060271058875637218e-02
1.859567062026858120e-02
7.329467094049876841e-02
5.474683330336490433e-02
5.615924721656247176e-02
1.065243723310738688e-01
7.089394479924300552e-02
7.103137983464909155e-02
3.709176298521441040e-02
3.978887523534394011e-02
7.442610189176282476e-02
4.797239829550229567e-02
1.066201028985664101e-01
4.537904217087919412e-02
1.812832617444234615e-02
1.266415296188921069e-01
5.684434776062374794e-02
3.959699551819487878e-02
5.779659670651243752e-02
8.161255980377045416e-02
6.655503052051302271e-02
1.031163264672581847e-01
3.621157152615445129e-02
9.793026454624303989e-02
1.269178794165688184e-01
1.428742094127122275e-01
1.091836352150593603e-01
1.306995758038720090e-01
7.286147731297684671e-02
1.594925616633015575e-01
8.353862341798989899e-02
1.009977093790221658e-01
1.754442717543994723e-01
1.908639028843678587e-01
1.792635840745726294e-01
1.544504429267226642e-01
1.368684018557404236e-01
1.521284384771595666e-01
1.955074223703889003e-01
2.336629319755453571e-01
1.852748247605041643e-01
1.662646794377537485e-01
1.903409934654394231e-01
1.822366010859010621e-01
1.682877087812581773e-01
1.484992012274691797e-01
1.441450060041521430e-01
1.785558114995461909e-01
2.173580779967931587e-01
1.895981362908961687e-01
1.824751899405343269e-01
2.247646585128125207e-01
1.551809313219095765e-01
1.728866526702934614e-01
1.574908075117763262e-01
1.837382016216891345e-01
1.721787524178990114e-01
1.633788681561719747e-01
1.635836400673895130e-01
1.202510164166849249e-01
1.471059388455604466e-01
1.625678479273641730e-01
1.432965288895837186e-01
2.046350834260690366e-01
1.717655527353775802e-01
2.116477789735171089e-01
1.868914909488736398e-01
2.489647819606994328e-01
2.258457551141464792e-01
3.927288289175988600e-01
3.776130837725035772e-01
4.873261074603962850e-01
5.592895102179615829e-01
6.857818920745303304e-01
7.618039471529449713e-01
8.708002940407866266e-01
9.166652834391973981e-01
1.095483323267940845e+00
1.253728909843822237e+00
1.278571064428932091e+00
1.334972310838458798e+00
1.354454276566150916e+00
1.460418055005275217e+00
1.470806102879500088e+00
1.385394652452567321e+00
1.336177813497123612e+00
1.347123669778368615e+00
1.250108166119284547e+00
1.129643292067096016e+00
1.104835163406084675e+00
9.667867163262127139e-01
7.806302812102564603e-01
7.330986097367691023e-01
6.167504154571817887e-01
5.544538074778709857e-01
4.397105244523866197e-01
3.391284084399017740e-01
3.579870788816216787e-01
2.492133961098917938e-01
2.213849646959233086e-01
1.673759022241755323e-01
1.605728515250890442e-01
1.666278723526239958e-01
1.146125809988880473e-01
3.978335000949811268e-02
1.280859209958847833e-01
5.508530591178376762e-02
1.176236241087656453e-01
1.047565229355183064e-01
1.539688174387002506e-01
6.031347170226264431e-02
1.099097773282846496e-01
9.733126652671475476e-02
1.289147887300271245e-01
1.089564219549013224e-01
1.565444174716831838e-01
1.122923886541463689e-01
1.960899751601883900e-01
1.157479435983768679e-01
1.418924343365834950e-01
1.581564752364498228e-01
1.719659192490924915e-01
2.117689133577936866e-01
1.940400783769902215e-01
1.427199455769992964e-01
2.025298873434316915e-01
2.091912043798314080e-01
2.423024926954739922e-01
2.502154509720210251e-01
2.349239058377948774e-01
2.651742256228346029e-01
2.694103433119736657e-01
2.375955328746913731e-01
2.767748091067439575e-01
2.858258837708779754e-01
2.505659926858831987e-01
2.361382523365930797e-01
2.397511715759702289e-01
2.572663902662815083e-01
2.400767053990510991e-01
2.567173600797367783e-01
3.091581421655640316e-01
2.682463914492554391e-01
2.867552869135748805e-01
2.636433476304622103e-01
2.657939366964399697e-01
2.568041018828676192e-01
2.698648864233140765e-01
3.067129779905987119e-01
2.757898864916365489e-01
2.884512003444144601e-01
2.630375529577461124e-01
2.862520324794086135e-01
2.675251816523226411e-01
2.779539381993822444e-01
3.428995801747086736e-01
2.288741653962191869e-01
2.725359706828872075e-01
2.673872010803143295e-01
2.425159946036588576e-01
2.501407477729991613e-01
1.843292205425418884e-01
2.199233373649692458e-01
2.470480766320948263e-01
2.213144362115405106e-01
1.844357787565323314e-01
1.623893193395631873e-01
2.085408149440423631e-01
1.865884913193110450e-01
1.760115787987378000e-01
2.147318579322564647e-01
1.503927262308443480e-01
1.143625243199076491e-01
1.779183164619932422e-01
1.558276984827348943e-01
1.663187771298114126e-01
1.906091546070513842e-01
1.015293917516689459e-01
5.333168165973544567e-02
9.041176892026719925e-02
1.516552393273501442e-01
8.254582043198499530e-02
1.147404296694500558e-01
5.682489972091661623e-02
7.955777841131916883e-02
1.229915795795833156e-01
7.272203893414419529e-02
5.727936611869528793e-02
5.708740111011509355e-02
1.066485114000136902e-01
6.598727860686916247e-02
8.010554373923436944e-02
3.174325256899031972e-02
1.865733928297859043e-02
4.445071337080502838e-02
5.004905392793614072e-02
5.657844484432427573e-02
3.222113041034811720e-02
6.197920882144072191e-03
3.091873688828341432e-02
4.828029130286019127e-02
1.335824897261018128e-02
4.014584948888219595e-02
9.895715479515898583e-03
4.102837815233881247e-02
8.074374676076882806e-02
3.459791886515149739e-03
3.766260087581478622e-02
7.695486781632299156e-02
4.746731237291731964e-02
-1.032311107300811631e-03
-1.004429488948775304e-02
2.032730992211519497e-02
4.197269276018232576e-02
1.038463890724015959e-02
4.006341174195646865e-02
6.255240924896188215e-02
5.968238783537738179e-02
3.270238381659915788e-02
-3.267901825007985678e-03
2.771032644917809096e-02
1.374915201996642494e-03
3.282809657327181996e-02
-1.915159496660325672e-02
9.223456522848630379e-03
1.330817639028437742e-02
4.907088994632778645e-02
4.720369225399788371e-02
7.638715800198350725e-02
4.605968397013354698e-02
1.764764625739560430e-02
-1.512896765732444672e-02
4.859234473587457914e-02
-2.398085282521887282e-03
1.871373224233905189e-02
6.594028023426082297e-02
8.294323339524838079e-03
-4.366338448574855202e-03
8.758384559084750332e-02
1.550010857134486580e-02
3.981858994978591804e-02
3.933869226972043498e-02
5.576891473253688114e-02
3.788915501813760328e-02
1.223264921357687142e-02
9.875617297200672828e-02
4.429843827405485768e-02
4.176089614123294769e-02
5.521525479232640421e-02
8.508877948522702850e-02
4.811366325361288859e-02
8.602093165696818311e-02
7.413087316094899015e-02
8.102188432238840998e-02
9.846477370490983039e-02
7.646486798175310129e-02
9.556050109710684248e-02
9.071527655256592104e-02
8.816145063807848126e-02
8.980549006821081370e-02
6.454381456187306687e-02
8.654276610783018242e-02
1.341295369578028585e-01
1.111525878750517782e-01
1.294949626191976844e-01
1.039971847268822969e-01
1.615025876240736569e-01
1.919308468256702704e-01
1.343788048769386789e-01
9.308640362826954562e-02
1.665948630363482674e-01
1.830002172954053874e-01
1.485530988896418270e-01
1.368904363864057727e-01
1.616632262951878951e-01
1.272714187638648575e-01
1.500161901638887296e-01
1.768666767645494242e-01
1.509323014121956852e-01
1.167100630438869385e-01
1.307061921366642898e-01
9.303271054998384082e-02
1.189142014787828994e-01
1.162571985141329645e-01
1.037069135895771488e-01
1.079357993388273124e-01
1.014217478118168703e-01
1.070591455811580883e-01
9.122136859943778819e-02
1.560739024420222110e-01
1.478351770666767040e-01
2.084662794381938189e-01
1.805107361789622389e-01
2.260124633429283492e-01
2.725578960718116894e-01
3.743581361787560180e-01
3.542172392820618354e-01
4.707416621820828539e-01
5.791331705181745892e-01
6.636233415810832703e-01
7.983108246878792835e-01
8.912060417289449088e-01
1.006321548962811008e+00
1.113109028166290981e+00
1.180170531177043403e+00
1.305663296928463391e+00
1.316824736679489849e+00
1.375477090586341600e+00
1.367789096114362390e+00
1.388446101310549796e+00
1.342482136631302669e+00
1.300889386843670836e+00
1.286289984466900016e+00
1.093685537075031577e+00
1.040600989371348151e+00
8.772320993249013155e-01
8.169417584466578397e-01
6.618421365675807300e-01
6.385832142257603650e-01
4.864286285612659522e-01
4.644255355936782181e-01
3.355293629612340345e-01
2.587823675886031238e-01
2.669324104715087853e-01
1.887986284432756068e-01
1.037048633863690977e-01
7.942376257382852134e-02
1.269312833676572994e-01
1.088688961937452210e-01
4.686379970374477538e-02
-3.906094217551274450e-04
5.904805297849116674e-02
2.337113292259355296e-02
1.003435447416322346e-01
4.789186025289735721e-02
2.075430833673522907e-02
7.269399959661787536e-02
3.521359055485143164e-02
1.898633215276139541e-02
7.379142055019612123e-02
7.667895689506877555e-02
9.630152755342688553e-02
1.271756569389176639e-01
9.169639569376371313e-02
1.482846802122358976e-01
1.357302216354782098e-01
1.591867685682457623e-01
1.303752936390918660e-01
1.542334050706171966e-01
1.621540783729823465e-01
1.296772889390770400e-01
1.157192811391547227e-01
2.118168319564087687e-01
1.747296795534820923e-01
1.738774173292558234e-01
1.857491091372020509e-01
2.059146484255691689e-01
2.235226135322392060e-01
1.695695355333813326e-01
2.031665468143661890e-01
1.610120458060313176e-01
2.054068599960763020e-01
2.914419084635991308e-01
1.905172329962765421e-01
1.847409371464698025e-01
2.443307175625636929e-01
2.489994385601615456e-01
2.236998764421845864e-01
2.410917092507079418e-01
2.273824169523639138e-01
2.533170212582300240e-01
1.997410382802947693e-01
2.485995160687605454e-01
2.309654272255657337e-01
2.707013011193118435e-01
2.531755303590819128e-01
1.987510083360537749e-01
2.594505012623190554e-01
1.558934100425677927e-01
1.949455352025211974e-01
2.447073698182667401e-01
2.138487333844605320e-01
2.089227843658871264e-01
1.756771147590113213e-01
2.123133538079804150e-01
1.600344433940312783e-01
2.083314694583143500e-01
1.705998864463784126e-01
1.683904302552519661e-01
1.281979375368464680e-01
1.791320982375416981e-01
1.492474623852939608e-01
9.859276378366679805e-02
1.364470710882542681e-01
9.893608446380595944e-02
1.423922063077661393e-01
1.775636891824310393e-01
4.962976194699174337e-02
8.117144984489710335e-02
7.509594083576054402e-02
8.361319818967320738e-02
4.047202100809416114e-02
4.686666863613093981e-02
7.303656474500117013e-02
2.759624004169412836e-02
2.848678345741103429e-02
5.475324792725157208e-02
5.602631950227734969e-02
-5.791641462835697002e-03
3.263291803209739106e-02
-1.854461086696844452e-02
-7.014781864262638333e-03
4.164280747204607280e-02
6.084171307009524771e-03
-2.592702046064690458e-02
-3.424185786460226533e-03
-3.530618199334138035e-02
-7.893508766954812628e-04
-2.114447870862130874e-02
2.820972252106711958e-02
7.010207817665786711e-04
4.114062746225999323e-03
-1.011152284598107812e-02
4.265228321752541352e-02
-1.725292504518433426e-02
-3.942423246249584373e-02
2.413262438558439610e-02
-2.579517015741787656e-02
4.049026254556055415e-02
1.168007836993920773e-02
-4.120039864865617657e-02
8.244774902393635363e-03
1.306055963354202376e-03
-6.932269009754103706e-02
-4.873551401718277665e-02
-1.783244226260009835e-02
-7.474730302923619785e-02
-3.315859755614266463e-03
-4.598998447564831005e-02
-2.751693916387332184e-02
-1.025806781803046408e-01
-4.641536449055566615e-02
1.371015167777841354e-02
-4.916532619661583003e-02
-2.290917821238000127e-02
-9.450745118816858414e-02
-6.612487287911143763e-02
-3.648068505929066840e-02
-5.006980327481595772e-02
2.728970446836933433e-02
-5.056216567432056386e-02
-1.330768129884267459e-02
-2.203219708191405182e-02
5.433431014202454168e-03
-5.123033824055557572e-02
-4.189141813781877000e-02
-5.189976207110697654e-02
-6.598972417898456982e-03
-1.225610577634426296e-02
-3.432272647358255296e-02
-6.453142114959108111e-02
-3.348673077653210872e-02
-2.721417359053092400e-02
-6.858151948597951408e-02
-5.117222222822233324e-02
1.282338564557858329e-02
-2.724064162421981072e-02
-4.949990854306668409e-02
4.573765507531903779e-02
-3.646029844728511382e-03
-3.820250008801998054e-04
3.344842414427385419e-02
8.784554172348739420e-03
-6.025801827055905086e-02
1.204380335046421890e-02
-6.642729698719135323e-02
2.766243275337646607e-02
-7.134378101720441345e-03
1.015972526373964263e-02
3.721795001159589056e-02
3.227072167741466130e-02
8.492581540615848357e-02
2.555523127094528474e-02
5.125601088012057133e-02
1.241455572271223801e-01
1.402725639601926783e-02
3.887224620606633679e-02
1.299533897322218134e-01
5.427305846458235772e-02
1.001359606104977595e-01
7.383449793422042218e-02
1.066352856344955913e-01
9.943632916738101568e-02
6.109821226477387540e-02
1.385549969950740090e-01
1.006266743637893590e-01
1.484716850455744530e-01
5.667191501350475613e-02
1.477360859360297152e-01
1.236084381701323814e-01
5.170330220204132077e-02
1.643204905090771550e-01
1.068621291679545671e-01
4.954979855457570387e-02
7.592675726574579786e-02
6.545343859678284804e-02
7.843073856733379090e-02
4.162903092391675997e-02
9.265223564932978384e-02
1.122124282537903944e-01
4.689283933770064389e-02
7.176396411669938580e-02
6.167726893582344688e-02
3.105396580535620815e-02
1.069232575409744812e-01
9.971294365914074032e-02
1.054949810859337200e-01
1.426378486291461356e-01
1.512597183711757443e-01
1.697974029410647956e-01
2.913526369092547808e-01
3.441358378910259197e-01
4.523712736757616870e-01
5.411934238034242783e-01
6.268188973799542207e-01
6.582418044012167124e-01
8.226677494160266058e-01
8.737484008328468832e-01
1.001480973756117887e+00
1.100010790068885802e+00
1.208861491033302649e+00
1.254173619745902801e+00
1.281552228633966672e+00
1.324476940756447174e+00
1.293882208339924622e+00
1.298339640705944431e+00
1.303446176928302114e+00
1.184690977316647187e+00
1.090239046468994388e+00
1.031363664882370745e+00
9.301918640770956426e-01
8.061590883944560471e-01
7.022876678286400498e-01
6.092063574695315564e-01
4.583144050936305836e-01
4.329309134334087261e-01
3.492660703650384835e-01
2.852993225781259579e-01
1.702718461093994939e-01
9.968265582950722181e-02
1.050730031291569055e-01
4.876467949141542746e-02
-4.642666892719138350e-03
2.620267557570270939e-02
-1.306301737519383055e-02
4.378959324221427807e-02
1.294298946581911441e-02
-3.430207442197356210e-02
-4.182783651910949169e-02
3.255155279968924287e-02
-4.387585599454672802e-03
6.382560266537939953e-04
1.587112333439680278e-04
1.311407440503761096e-02
4.742484021692245505e-02
5.411407005541059995e-02
4.310222444318086849e-02
1.316256064770240930e-02
9.713745586466168702e-02
6.545804475983360571e-02
6.895751984736221696e-02
1.210287055379739851e-01
4.457618832320340424e-02
5.563224757571225143e-02
9.979024703668870622e-02
1.077149756788227386e-01
1.039581476906368124e-01
1.342262256122253583e-01
1.199110605436689847e-01
1.851426705331076783e-01
1.421540187310236236e-01
1.708808719432168277e-01
1.477515179664442013e-01
1.069091815316219746e-01
9.441308831932948564e-02
1.612301891432299239e-01
1.874385400071934549e-01
1.517960268255602596e-01
1.859687401235060600e-01
2.418927025485600457e-01
2.508536932221256399e-01
2.111092510236978192e-01
1.997703322441257701e-01
2.522072359319829093e-01
1.866782036106127696e-01
2.311536664759687720e-01
3.008802842406317346e-01
1.697026214903464836e-01
2.223161804801363495e-01
2.705483415590441143e-01
2.491904664296338834e-01
1.923834126205641315e-01
2.134925969705026572e-01
1.905296744984008583e-01
2.177966169167700194e-01
2.173974454441500170e-01
1.904221557704770251e-01
1.394697985124414841e-01
1.842464498232960213e-01
1.776815918389445526e-01
1.612228965742074083e-01
8.600950411448846089e-02
1.138946886211539555e-01
1.250212845719677057e-01
1.348706719818067445e-01
1.276113515231322715e-01
6.083942092801794543e-02
1.091479566121097977e-01
1.116284783227312338e-01
1.362482658487488008e-01
4.799388250659612082e-02
8.770917247735110500e-02
5.021250299329724220e-02
6.487522955915847600e-02
-1.637973072043871769e-04
7.828125779326916556e-02
2.250043532831860760e-02
2.361778656000534937e-02
4.415114718589117915e-02
4.757157883033739237e-02
6.424270942998681899e-03
1.747899305184250074e-02
-3.946786696617875234e-02
4.263835016216247636e-02
-1.193180689406062034e-02
2.546358997186040640e-03
-3.402072078298037233e-02
4.179724819565885929e-02
-1.014405847749159234e-02
2.401469868602276736e-03
-1.203499530037051984e-02
9.311038392945822362e-03
-4.820879718745856024e-02
-4.020480889645000611e-02
-2.713399554015554285e-02
1.138870559623031409e-02
-5.147907554248504214e-02
-5.112182374993746309e-02
-3.291213639459335261e-02
-1.344743544970501692e-03
1.492324547868441320e-03
-1.300978175551618238e-02
-1.163511912545101834e-01
-5.213871767339822022e-02
-6.107665451667351059e-02
-9.312558122736701305e-02
-4.860466297399748670e-02
-5.595636683048363369e-02
-4.925415327461494380e-02
-3.938997958851819803e-02
-3.911646763726621401e-02
-3.206162528310729787e-02
-7.270582606820528981e-03
1.930478001490806839e-04
-5.954017564878830160e-02
-4.511265946113756503e-02
-1.651372566608036441e-02
-4.945064375200305257e-02
-4.848661811971263780e-02
-2.382260959805930847e-02
-4.260770666600219303e-02
-5.226733341981078251e-02
-8.486442300327998178e-02
-4.049544688410097737e-02
2.309090526812246358e-03
-5.953106481258502863e-02
-8.713731379776042119e-02
-6.256806374466079845e-02
-1.152919791617050549e-01
-8.515014326154808633e-02
-1.998810924322192567e-02
6.626193034345397026e-03
-5.665429566585328952e-02
1.032631565412907293e-02
-9.053634362881424202e-02
1.233381537141302331e-02
3.580396577337663366e-02
-4.572942500223434875e-02
-2.795745427958941376e-02
-3.715210205838584412e-02
-2.905228248200213484e-02
-4.031499036380185863e-02
-3.643718448189581238e-02
-5.308458170131001574e-03
-2.610928748645996444e-02
8.733878563296909592e-04
-2.978626115085485429e-02
-6.682347507957472899e-02
1.273059401124746609e-02
1.366298526475372144e-03
3.939642453993963400e-02
3.755457038715855761e-02
9.305617405196836556e-03
6.205668731266843208e-02
7.228413255646534696e-03
4.051258165643183140e-02
4.138653877264585751e-02
6.908965962760790780e-02
2.382348501224990783e-02
5.639876878345270739e-02
1.895029425163446274e-02
1.091693112988129655e-01
9.208438570287494351e-02
7.687422417867384450e-02
8.353279401556520933e-02
4.520288886964854425e-02
1.275423212940614281e-01
5.369735950201437458e-02
1.032751928721893642e-01
1.026401397455563858e-01
1.464420021654121440e-01
4.305641073791603018e-02
8.287994540536749999e-02
1.596576564693912292e-01
1.177047547719044240e-01
1.182395469403275945e-01
9.019210030162422287e-02
1.242025921458257964e-01
1.091470862703996236e-01
6.864534152824727786e-02
8.929248953620888551e-02
8.030790634554176022e-02
1.290215200267488815e-01
6.699008847542606282e-02
5.892871914022215774e-02
8.476883598914966567e-02
4.801675951668578357e-02
7.372825590939707796e-02
8.144929805837798631e-02
6.617652604194296240e-02
8.813097627322799554e-02
1.356136210650865925e-01
1.262696646498783770e-01
1.526881649172650013e-01
2.198593835949156916e-01
2.378025127426764695e-01
3.030345119664633602e-01
3.291955456152865778e-01
4.531810054553707667e-01
5.368693915193111232e-01
6.815217990268380710e-01
8.292648430624377509e-01
8.682618271270726718e-01
1.011483412121505276e+00
1.120843577794004897e+00
1.160342248947185073e+00
1.212896935701878620e+00
1.342424523600528774e+00
1.338054273024592566e+00
1.344222640258570411e+00
1.358897899572040435e+00
1.312238329789429336e+00
1.265634831465203503e+00
1.151588351344571493e+00
1.072492694765737609e+00
9.605336557961280386e-01
8.459418583020943405e-01
7.264080092757939644e-01
6.815107263001428661e-01
5.370804621578153526e-01
4.230758323016937661e-01
3.637360329769923073e-01
3.579674163693024602e-01
2.316730757083484971e-01
1.387019966062804921e-01
1.020727287529911986e-01
1.020011477456215510e-01
9.556822458014269106e-02
1.463498335054386895e-02
6.891629009933854244e-02
5.350762266590078364e-03
2.610981477394008071e-02
5.248797432102188937e-02
2.726329647118858751e-02
5.532995846777365168e-02
3.980938595867584973e-02
4.161603680957948193e-02
4.484553504107782751e-02
1.158560627811170557e-02
5.854725346268384312e-02
7.624052998083086230e-02
9.430474323577632545e-02
7.966971596643486475e-02
1.118853631750244965e-01
5.795050982780831222e-02
1.812933205159227290e-01
1.055175383164797809e-01
1.213957673286338301e-01
1.155763343599385679e-01
1.359099711524570098e-01
1.402904475505086235e-01
1.320965523654393792e-01
2.328215953745688127e-01
1.287084149488341711e-01
1.565609084728019351e-01
1.595184142542242223e-01
1.291011230951518152e-01
1.831732022857919251e-01
1.971528333218293128e-01
2.418559325166987350e-01
2.000980698801639868e-01
1.849439048811063191e-01
1.764634343959056162e-01
2.316904618124630000e-01
2.451242148323355408e-01
2.221051113244891240e-01
1.700886707418345911e-01
2.689717511859209820e-01
2.605465960675265036e-01
2.102138144128939956e-01
2.187995363319459874e-01
2.528069053033250579e-01
2.354977721777272437e-01
2.326209447982606204e-01
2.693657453773341537e-01
2.691375857453028320e-01
2.233039630280027055e-01
2.150092171950321596e-01
1.619334441802968982e-01
1.904693253991059654e-01
2.226828321352462836e-01
1.624795385632437639e-01
2.667280123349798915e-01
1.633191306603224147e-01
1.719922639451047508e-01
2.440844290640828140e-01
2.326721525545737135e-01
2.062707546191080710e-01
1.931885714526321296e-01
1.357100530377080283e-01
1.602884809637248609e-01
1.369214424296008314e-01
9.204150682869341460e-02
1.523399792462298286e-01
1.310287321742622801e-01
9.494131859457739797e-02
1.282592490097244908e-01
1.059824800947566509e-01
8.384141713281248465e-02
9.223936743722094267e-02
7.108991557523661187e-02
9.396012706984001317e-02
1.128442575620796778e-01
1.103352563471428349e-01
6.940327768808084163e-02
6.374426460703284947e-02
-4.550285448754534667e-03
8.650043878717873780e-02
-2.758887246143286801e-02
4.138336501045877802e-02
5.187319910621410873e-02
6.088180903038509229e-02
-4.049850832002670556e-03
3.176003645248291762e-02
3.260485405369227541e-02
5.549180428282872446e-02
3.771370735357295473e-02
-5.306137481761935559e-02
-8.853296718523273948e-03
-2.910601654408508793e-03
5.165501449631364206e-02
2.101049209470563436e-02
1.341894973840500327e-02
1.424641831764973318e-02
2.292057142964006380e-02
-1.486691445033208256e-02
-2.039890619296202967e-02
-9.064264755937509466e-03
-3.461730866305912785e-02
2.841101695003649119e-02
1.173739806461797895e-02
1.568814759176711052e-03
1.729289149941335563e-02
-2.706152736910259413e-02
-2.668990315503889238e-02
3.203002155855734501e-02
5.051808065709754991e-03
-5.293200730349360839e-02
-8.441298907032440679e-02
1.666076170408319762e-02
1.857828840502517148e-02
1.481767053171024855e-02
2.132532959247646770e-02
-2.409110951723559407e-02
7.364172620705886421e-03
-2.590636324373334510e-03
-6.933218898129971108e-03
4.331632491338486407e-02
-2.376591368361684678e-02
8.198779379091792469e-05
1.603440553407609048e-02
5.176227568659157174e-02
-3.480215494753394895e-02
-3.200151607610134553e-03
4.453215048970261131e-02
3.908255692026586792e-02
-7.209130290987639592e-03
4.321680513387801507e-04
2.224781867351614470e-02
-3.280302574115356168e-02
-1.305504421318191485e-02
-2.246767497532312433e-03
6.265447713114208686e-03
4.285460954686084317e-02
-3.694980792225470607e-03
-5.805772080254495426e-02
6.707265610762076780e-03
1.132597961708008312e-02
2.855617494174827325e-02
1.997012923638344373e-02
2.134365773925351456e-02
6.027566646092522712e-02
8.203038158006117908e-02
5.181433164504883199e-02
4.119246000372545069e-02
2.613837583069054255e-02
1.051843137135662354e-01
3.351845097977898535e-02
4.774991002798617545e-02
3.872731095209093477e-02
5.079235569059667443e-02
1.345225467535497155e-01
1.188838991354118219e-01
1.302865676929095828e-01
6.578693777648300656e-02
1.368752238925171338e-01
1.705091035804801314e-01
9.037674092789800551e-02
1.418873394377330177e-01
1.462911993986042436e-01
1.298837605089092628e-01
1.598283690488569442e-01
1.260624744476628867e-01
1.417194440387239962e-01
1.450812117702634796e-01
1.381326022251933572e-01
1.734210620040955164e-01
1.701740826367775516e-01
1.557405065254955367e-01
8.227399237955479450e-02
1.580548119504404103e-01
1.488699085772215436e-01
1.440384019956096884e-01
1.758392331700426581e-01
1.424102610801977198e-01
1.503273086165731465e-01
1.452496838398221746e-01
1.567039177326809418e-01
1.230446626380297670e-01
1.965189800929135755e-01
1.383892458114929780e-01
1.338908430740803901e-01
1.280591215328740762e-01
1.522497259138245185e-01
1.495091760812015669e-01
1.304009382802124029e-01
1.255825503411426014e-01
2.066148695991601447e-01
2.249495900029798157e-01
2.321239156145875893e-01
3.000954574735738567e-01
3.304036513589113655e-01
4.154497271283768556e-01
4.233293955099358130e-01
5.692602037319562935e-01
7.307095902732047010e-01
7.959628359775313688e-01
9.061002971367935199e-01
9.489942617511339940e-01
1.101427731995135773e+00
1.224014213423670894e+00
1.255522089505240135e+00
1.363608732396536682e+00
1.341645428377243876e+00
1.404605473833667517e+00
1.449920068362755110e+00
1.344126910949730025e+00
1.351674372718300043e+00
1.246027727997861545e+00
1.174531576059650417e+00
1.026614821062231453e+00
9.647932496700447613e-01
8.860908901795900849e-01
7.468235513751663168e-01
6.300891336008900279e-01
5.460002084619306473e-01
4.184039273746911203e-01
3.388252490671875283e-01
3.080612090661720703e-01
2.427298627691392985e-01
2.194779110941310341e-01
1.476224586838350561e-01
1.966652345879869035e-01
9.311144012892240418e-02
4.635571735386116721e-02
9.832579598875315630e-02
4.515278564777724934e-02
1.070367727609992381e-01
1.233694538239610838e-01
7.241005372885427060e-02
1.191068809815643281e-01
1.313812419436480861e-01
8.169462040875533071e-02
7.946092959737968697e-02
1.142193145384134412e-01
8.382845483741743764e-02
1.564173345233467460e-01
1.116659326277067432e-01
1.399680664641722028e-01
1.409966072594066033e-01
1.510535344787675704e-01
1.761340133786168105e-01
1.337986030440405372e-01
1.768471676881414600e-01
1.828315567487256710e-01
1.872956120924676449e-01
2.377925016442620498e-01
1.953303778621857112e-01
2.038507229118932118e-01
2.440487558373453381e-01
2.337823336597401602e-01
2.309508009926788119e-01
2.472008638387352963e-01
2.416481626116071257e-01
2.326206144059714820e-01
2.270993756765765093e-01
2.181490814574385539e-01
2.627489259542391542e-01
2.921060427748816690e-01
2.485895203863904834e-01
3.499724435806823020e-01
2.308423488396022516e-01
2.617421613596334629e-01
3.237948169207154336e-01
2.338015106977683888e-01
2.830245047338955100e-01
2.722262617381485672e-01
2.844448919161510214e-01
2.209373171312853934e-01
2.621113427458863221e-01
2.994852750450510137e-01
2.983262866306147232e-01
2.590342477369406149e-01
2.900435386097950374e-01
2.548237599699188505e-01
2.935908359755843300e-01
2.634967642054917292e-01
3.254723169808266814e-01
2.508718908987195295e-01
2.557542737921609799e-01
2.182875893344423668e-01
2.488088290742346831e-01
1.883567262260855968e-01
2.161668651867675039e-01
2.284550525199271487e-01
2.014038573717255864e-01
2.018622224275440358e-01
2.004169445255851723e-01
1.953274885304440711e-01
1.505479925701732613e-01
1.985066673326675302e-01
1.790132146170770600e-01
1.475245267099231650e-01
1.617487977875649297e-01
1.302171046905779006e-01
1.448726220469276349e-01
1.193517185904384853e-01
1.246412448365488285e-01
1.321828799551731937e-01
1.249502485237155430e-01
1.498227707883901805e-01
1.170641555823354746e-01
1.470694077134461764e-01
7.501733922276658528e-02
8.191420094518708783e-02
9.825110754270532931e-02
1.380474595492766077e-01
1.034910717862718849e-01
1.272708642503837251e-01
7.717807928501278780e-02
1.332887497368707153e-01
1.179365530802327228e-01
5.998115091177393110e-02
6.746760757589295721e-02
1.074922057896093158e-01
4.413693463036642839e-02
1.569569649929349400e-02
8.960642646947722390e-02
5.411453700908616660e-02
6.775254276794633046e-02
3.995847228579183646e-02
1.173325209833814137e-01
1.783757260706958503e-02
9.372035945960166536e-02
2.223500501681392391e-02
1.176968766108753978e-02
6.221444879913776149e-02
4.540471700282473072e-02
3.276098465869387022e-02
3.914174481263717198e-02
6.981975079637069148e-02
1.320432063579263238e-02
8.337852905989404095e-02
6.182323282966328826e-02
1.337675083070669069e-02
9.689065340940820892e-03
5.929342062759863224e-02
-2.563657681314671088e-02
2.537138311962268064e-02
3.992192341106161335e-02
3.385785297810543770e-02
3.863034838051921521e-02
5.575095287632165358e-02
9.854208380555207203e-02
3.859146090729103501e-02
3.638251627142109756e-02
-3.798077400612288879e-02
7.607920622586747395e-02
2.562006237149123955e-02
-2.986916500136542474e-03
6.851681451717031579e-02
9.366669615485959111e-02
6.792511042014877376e-02
5.633052020718788688e-02
1.157745712687339862e-01
8.856927866740500754e-02
4.532549063669120276e-02
3.474449310705432503e-02
4.472430833368331443e-02
1.177559165604842584e-01
1.750685509158313863e-02
3.872914579799859730e-02
8.013776443114201120e-02
6.573097248700915385e-02
3.553518867836706618e-02
2.053029649107432353e-02
6.252024013611667819e-02
7.016682563746706736e-02
3.229433232026712036e-02
4.967490421723798344e-02
1.044538385164279215e-01
7.437497230429461481e-02
8.423573333470932289e-02
1.079779797371793471e-01
9.419021344051757560e-02
1.783220287546332106e-01
1.111360585363058151e-01
1.374315988103826103e-01
8.241801792340322508e-02
1.129956487876048188e-01
1.638818075080824832e-01
1.717922122767434334e-01
1.907617534754835753e-01
1.446824383616560905e-01
2.062836022589253082e-01
2.223502336024838211e-01
1.705692900748501106e-01
2.338520504094177832e-01
1.573191200248121868e-01
2.323254887914980027e-01
2.327094295761278908e-01
2.151452816560729397e-01
2.237568097498606468e-01
1.911029740572546820e-01
1.558107399225748813e-01
1.780139082614469459e-01
2.184415593086468377e-01
2.248226634914527455e-01
1.542109115166547806e-01
1.551274857184801459e-01
2.078754126797237589e-01
1.496346566980976955e-01
1.794787337069604083e-01
1.852488231007979602e-01
1.461406169072745898e-01
1.408284522514022252e-01
9.585394653157847111e-02
1.803532195123842552e-01
1.921263084343560468e-01
2.054757701125753955e-01
2.102779947506561442e-01
2.043248193733965268e-01
2.058314303663546785e-01
2.174256956310874900e-01
2.789974758236877239e-01
3.036815030699780982e-01
3.439808204805694380e-01
4.344351134887873833e-01
5.034740536844041214e-01
5.818695546957889375e-01
6.915929606314976663e-01
7.968265808782132309e-01
8.895225516313894909e-01
9.770017551222266450e-01
1.059997618719626722e+00
1.162870184027462450e+00
1.287304515553577611e+00
1.404850441869473610e+00
1.478009955143829046e+00
1.486919028543048915e+00
1.424277186837437537e+00
1.472017974086006875e+00
1.389566902072190580e+00
1.293358702561865359e+00
1.245034919086080105e+00
1.148313177019040454e+00
1.074283691354646741e+00
9.394875157106057362e-01
8.088242715265039351e-01
6.935436608236100753e-01
5.892316619892298268e-01
5.088218865584854811e-01
4.305568274745623647e-01
3.193470220430620343e-01
3.009573359860212571e-01
2.495913203997563723e-01
2.345119161759870452e-01
1.384670466099845454e-01
1.636119882339523712e-01
1.068259668019119757e-01
1.037306646705470903e-01
7.982444387123649454e-02
1.296202269600565116e-01
1.322858834145022311e-01
1.660115118904390008e-01
1.052001956274383893e-01
1.392796141107972285e-01
1.148795726592090755e-01
1.150931207291145814e-01
1.839473194370203624e-01
2.064480252161324803e-01
1.520620757836868009e-01
1.574189115359539426e-01
1.321523924635600866e-01
1.638461928668918377e-01
2.417156803091128070e-01
1.535561901084084302e-01
1.786949415245935591e-01
2.263201708693904357e-01
2.066875128372167858e-01
1.654622690185563738e-01
2.249701933842217505e-01
2.055467194309440193e-01
2.176349689881416916e-01
2.551252381102020461e-01
2.211489499378011536e-01
2.597593415904426717e-01
2.011242583384959537e-01
2.409573866534334141e-01
2.719446855062455093e-01
2.308552915733274868e-01
3.199027668931953561e-01
2.526606214738705836e-01
2.816144568440102636e-01
2.746794084427856553e-01
2.635877445183718026e-01
2.459465504950944514e-01
3.201477943425083961e-01
2.377344284948919584e-01
2.551779594643135418e-01
3.056239642842132342e-01
3.056676008534591205e-01
2.873874602075307538e-01
2.801070894252309929e-01
2.777113654941323340e-01
2.657412426844837916e-01
2.479269406033887124e-01
2.556011733138965347e-01
3.528960208519273389e-01
2.765956753759717945e-01
2.690804540562430902e-01
2.690380080352566261e-01
2.731519017943684902e-01
2.555260925824891505e-01
2.767663524047941914e-01
2.536771706707269258e-01
2.242114254097975212e-01
2.417446862186966028e-01
3.254996299229524492e-01
2.455587461657976478e-01
2.507336543821929720e-01
1.992447139541969336e-01
1.830924422544832342e-01
2.450493012880777810e-01
2.252178881643613628e-01
1.540273009685053651e-01
1.770443988500975951e-01
1.883221046807769805e-01
1.562352804256765815e-01
1.849842154927192062e-01
1.541288859131271505e-01
1.910543372100586001e-01
1.628124393912360190e-01
1.422389007983805298e-01
1.040573461463998040e-01
1.205298064890596155e-01
1.737199114106526554e-01
1.386233061469645533e-01
1.370800460947405319e-01
7.514814765707303335e-02
1.191731923335202087e-01
2.075574129840534465e-01
1.418002803667209044e-01
8.399028416033413325e-02
1.014487234636655688e-01
1.116613248636676714e-01
8.901247590526684128e-02
7.018460971861489872e-02
4.501076022372859503e-02
3.297051119142463405e-02
6.529402108098335267e-02
4.152312151171871218e-02
4.065709386931252306e-02
6.156109587274770367e-02
1.433882151010308983e-02
1.158733627386372145e-01
9.736882381802480779e-02
4.954511570121325481e-02
-2.480871839406036117e-02
5.553158661770357662e-02
-1.568883958337374818e-02
7.745915399856101446e-02
6.344084069864644460e-02
7.253303336184747929e-02
3.082370244110649304e-03
-4.697230524549442232e-03
3.900972339171081965e-02
5.257495667649336041e-02
1.689794918513828903e-02
2.235401522059993207e-02
3.871674250159424374e-02
1.261694322858630812e-01
6.228133336888631161e-02
6.512827312973321070e-02
8.303315089951360251e-02
-3.718181672908507651e-03
7.325386396665560518e-02
-4.084396416091311266e-03
7.005631161980882537e-02
3.381621419114342469e-02
1.139531139486548161e-01
-1.653301175774168907e-02
2.362674948304014505e-02
1.004069994689479745e-01
6.005637995970335152e-03
3.655169169347580876e-02
4.318706878810189137e-02
5.341990994773145041e-02
5.704226510027443631e-03
8.473427910408254382e-02
6.534220116975616999e-02
-4.547679421892658613e-04
5.033290386515337084e-02
8.071544368648411738e-02
9.665792386535541902e-02
1.174994423437739424e-02
7.111412092026525578e-02
8.107841979021429557e-02
2.917572779010779369e-02
4.682841399732159959e-02
6.540530986833284488e-02
3.977533276620345143e-02
1.664745012526033796e-02
1.119176853510440439e-01
9.703625070091825844e-02
7.045127098379468100e-02
1.119850301104265144e-01
1.135852407886131510e-01
1.171878410028177608e-01
5.969735187083009126e-02
1.540552130781065177e-01
1.233557335409918576e-01
9.934108088929002878e-02
1.403220597694956884e-01
1.420642005669160990e-01
1.469482965646947692e-01
2.397071829780514085e-01
1.140960558389296775e-01
2.082972064671206047e-01
9.725192120422443409e-02
1.669461963291874185e-01
1.775290118505625236e-01
2.164910988144663484e-01
2.200483451619999475e-01
1.394363643811227238e-01
1.798848114827768518e-01
1.762855652868111633e-01
1.689840201253716978e-01
1.871727124531953335e-01
1.798430013369888558e-01
1.673336871118941138e-01
1.290055038067993709e-01
2.116453971473628015e-01
1.910313021191506755e-01
1.145830297547249799e-01
1.759365849289063477e-01
1.971612587843421804e-01
2.311633511268208485e-01
1.596559344043985140e-01
1.352943971496949338e-01
2.116384201804740739e-01
1.430777501273443886e-01
1.236293368384988184e-01
8.212172119647104251e-02
1.303833796035223092e-01
1.572696573947308940e-01
1.796280464542222843e-01
1.601875029222064317e-01
1.998017761891005550e-01
1.810800069226554121e-01
2.536694232185197073e-01
3.098165238036590385e-01
3.868707605332468713e-01
4.201497499665976521e-01
5.882378522187450276e-01
6.280367069745855790e-01
7.068638723500474397e-01
8.775497093443632712e-01
9.146429983574850819e-01
9.693766473950500284e-01
1.098493899656310058e+00
1.186420501425937024e+00
1.316642989895286719e+00
1.333342524460218392e+00
1.407222346672280411e+00
1.384402726991614152e+00
1.439988768565512833e+00
1.383475288339800713e+00
1.289556496490945836e+00
1.201138553105707718e+00
1.186566258317576672e+00
1.029624014533235377e+00
9.065432032107596516e-01
7.979771359916898454e-01
6.933860404653225951e-01
6.590648480160655742e-01
4.903149231955244436e-01
4.702434233071963732e-01
3.504565342799895178e-01
3.108797325971855430e-01
2.488802629762967289e-01
1.927964473978230897e-01
2.124174848571932783e-01
1.469710944892821669e-01
1.486452457373344249e-01
1.287587209333438676e-01
