1.439138249598141295e+00
1.435585276941547583e+00
1.306652316329117713e+00
1.305208316177991268e+00
1.223478132755969616e+00
1.159248074522510219e+00
1.033157036032905207e+00
9.380943367848975090e-01
7.699730708175037686e-01
7.236518848087868383e-01
6.084083276809183483e-01
4.849324975716562958e-01
3.993063665130127671e-01
4.300617766784340934e-01
2.403616838060971539e-01
2.228464807028522343e-01
1.616777081683410111e-01
1.641687662051126984e-01
1.030432415356637987e-01
1.602164702820279840e-01
1.229913955186008323e-01
1.312007098902555347e-01
6.719698947451802074e-02
1.085436944105589718e-01
7.435157687355985201e-02
9.585157001945124322e-02
9.470528251813493947e-02
1.078938507366528077e-01
9.968348193416415315e-02
8.644151201471497736e-02
1.057483842013291903e-01
1.458967126682243487e-01
1.339451201895209831e-01
1.180871360690001898e-01
8.329368280256219115e-02
1.281678155365684746e-01
1.431095607651660107e-01
1.113355759153035335e-01
1.129443502068714911e-01
1.759454411569099652e-01
1.904868592866342247e-01
1.570994980618505843e-01
1.827669778759808406e-01
2.071087041926839567e-01
2.187344113335813467e-01
2.073313391619204527e-01
1.718543363141012970e-01
1.980284733870953107e-01
2.297631943057905357e-01
2.033707345955444445e-01
2.311709866795697288e-01
2.356677940819793260e-01
2.254838631512950109e-01
1.953689231162408224e-01
2.521532672294612976e-01
2.669023763799974747e-01
2.656444365957518761e-01
2.990150889467770856e-01
2.970978442457685720e-01
1.860582252374895218e-01
2.870853424549433819e-01
1.859741306453547016e-01
2.052633672842897883e-01
2.730347953126884275e-01
2.751687936084211139e-01
2.512640240191127416e-01
2.235681430251442725e-01
2.480357545413892362e-01
2.513236928237596590e-01
2.034771635097060993e-01
2.352966131928577731e-01
2.547320224610904460e-01
2.280227596590845007e-01
2.543280718455617762e-01
2.012390453412633562e-01
2.854608677921991466e-01
2.214205144446235451e-01
1.993593652058767707e-01
1.468512906544799101e-01
1.851395706975993705e-01
1.729611215306068317e-01
2.008187761585304432e-01
1.319229756899537032e-01
1.694897880433424986e-01
2.352320038745555342e-01
1.991979548712703996e-01
1.672589268651572536e-01
1.075141384169756992e-01
1.455759141021684966e-01
1.737018353512043423e-01
1.249036778298503736e-01
1.189181798051133637e-01
1.316109036254458076e-01
1.240287515122718009e-01
8.937375083706709800e-02
6.708844151363649311e-02
9.576835578039202823e-02
9.211597248843551855e-02
4.871407071806244105e-02
1.139858510041825007e-01
4.524226381002621755e-02
8.074778796648409904e-03
6.455256337610716655e-02
3.641171657060698202e-02
7.141387199416028564e-02
3.694377595269817544e-02
1.828448421178879499e-02
7.068516572918069618e-02
1.754889885368052238e-02
4.191928827638776237e-03
2.026937612619948009e-02
1.162995270680521054e-02
-1.221816124171616440e-02
6.472941833460543054e-03
5.090083008488711230e-02
2.620411283469906844e-03
1.649898184196295012e-02
4.957994269276905924e-02
-2.638300318960084753e-02
-1.618374303286552671e-03
1.278430352765661318e-02
1.261153323991248340e-02
3.355316363543710961e-02
7.471681443344320439e-03
2.362956593407882985e-03
-6.182482025767634115e-03
1.179484326530050309e-02
-1.654244457114294881e-02
-1.730421942418140444e-02
-1.531867899282094922e-02
-1.621204063117329813e-02
-5.001335127998161184e-02
-1.261485030146050623e-02
-7.488121252606688531e-03
3.379506517113795017e-02
7.652364687847809654e-02
-2.958903538788692361e-02
-6.705173441495651532e-02
-2.723048521077881673e-02
2.123815105607231718e-02
-1.802862070433004782e-02
-3.404092069451289393e-02
-2.197864262315313288e-02
-1.406569202196963561e-02
1.462937012532732756e-02
-2.459698093548664394e-02
3.111838862479333195e-03
3.545067966405322790e-04
3.317912500314149082e-02
-1.321670191593880134e-02
2.133379144701131117e-02
1.613499347578070328e-02
-2.322401934529682438e-02
5.882327011463298755e-03
5.202794452023093430e-02
-4.641895771960025119e-02
3.170674107822425009e-02
3.843755806369804351e-02
3.372481756723777480e-02
2.798915172852499758e-02
5.463903042458322090e-02
3.004721754788933566e-02
5.758866476677829138e-02
7.817079126096161679e-02
6.607825515048720844e-02
6.179219409826995635e-02
5.727839627488587326e-02
7.578104058034165758e-02
4.949908516021322979e-02
1.416888931011671127e-01
1.015061420962069250e-01
1.222721338698168070e-01
1.061408614756787494e-01
1.213541731532264828e-01
1.455140009742877660e-01
1.167449063437949880e-01
1.258875467013950145e-01
1.266458413112172554e-01
1.116112185711958804e-01
9.960935679053417591e-02
1.103379978273617834e-01
1.410854713535431848e-01
1.299110489834015558e-01
1.258349235931564558e-01
1.429544931918337314e-01
1.328453923859521379e-01
5.793425113506109336e-02
8.366248641316625934e-02
5.940196027344191165e-02
1.369571326702978264e-01
1.163536951181596141e-01
1.278322479676577139e-01
1.164306895096945266e-01
7.812976048812644847e-02
1.485874060302697641e-01
1.348272292657470284e-01
8.766874299587568142e-02
5.990380061869053641e-02
1.334088585564934815e-01
1.722449180486201881e-01
1.348226222852448031e-01
2.197871536019139482e-01
2.085478981172724233e-01
2.416175721978871538e-01
3.378214863574074966e-01
3.752319367186736643e-01
4.339952013857337754e-01
4.993139354780098960e-01
6.238236513239937553e-01
7.651179959379833528e-01
8.463275046573125460e-01
9.652593007974067385e-01
9.968467351424730172e-01
1.197787253819103004e+00
1.215131270917438888e+00
1.340038457878942380e+00
1.302255343801374865e+00
1.313674408109809288e+00
1.358322218487656219e+00
1.371308095249325287e+00
1.304875634665398021e+00
1.241066995511747928e+00
1.146978897814214138e+00
1.043471179196132859e+00
8.814995410004741183e-01
8.029238124994784176e-01
7.463086586844095427e-01
6.363346651043374491e-01
5.288393755992171208e-01
4.355575101741456789e-01
2.895026984935618053e-01
3.181830202933437768e-01
1.923372918602891113e-01
1.446617162899032916e-01
1.556721530401016518e-01
6.881156016586723045e-02
7.503873743395680918e-02
5.701628858957633744e-02
8.111570426465603001e-02
3.110367931912304262e-02
-1.391798596846897246e-02
3.489381179347604556e-02
4.478685129488006733e-03
3.823973409975619381e-02
1.686505167581697079e-02
1.772116548009945725e-02
-2.533220966785307282e-03
5.970428533480662964e-02
-8.427868903516509691e-03
4.497741229336101737e-02
7.658020049080754843e-02
7.646549547505021582e-02
1.588668123417108502e-01
1.317039307550880722e-01
7.819011160574346198e-02
1.385748779523208740e-01
1.147030098051788072e-01
1.924844856013245564e-01
9.363418398035644463e-02
9.694436602790131030e-02
1.378945608420103774e-01
1.556689939690439617e-01
2.205100208057669819e-01
1.427402587754046381e-01
1.495844504673428665e-01
2.375960344673587465e-01
1.636626938076919113e-01
1.725739515580171357e-01
1.999209051569768580e-01
1.641761680006167401e-01
2.060927123308731179e-01
1.773347305464987311e-01
2.065506727731709624e-01
2.253670146261750606e-01
2.481848687846741064e-01
1.920235127074556847e-01
2.279072381065080366e-01
2.401550339735315232e-01
2.035668798236280885e-01
2.103518064596211212e-01
2.394354648169252642e-01
1.490634311707619564e-01
1.756471213084059291e-01
1.868640923040075230e-01
1.993068132412120774e-01
1.689030714978781711e-01
1.914917661146797179e-01
2.385887083697515454e-01
1.816835424830213763e-01
1.986408004334246358e-01
1.618627063398651589e-01
1.703635218181104583e-01
1.618469317063075952e-01
1.496484376925119042e-01
1.039157198873147392e-01
1.299984844396423478e-01
1.524820187393861604e-01
9.200526060670637107e-02
1.467060451008167510e-01
1.385468580621557755e-01
1.071896823366195600e-01
1.572665520450525212e-01
6.060061578106078900e-02
1.055020107320639722e-01
1.433497497795623854e-01
1.123240793800704407e-01
9.137534505334063417e-02
4.949634418705238514e-02
7.731872034547539185e-03
7.517577390543789262e-02
2.856626498979163847e-02
5.329652812294815439e-02
1.040248912059585362e-02
4.852847719605126592e-02
2.825375172101775301e-03
1.831948872265039274e-02
5.326718102479475331e-02
4.915753986380243246e-03
6.473786894175065365e-02
1.511576281451933873e-02
-1.151436194067634311e-02
-2.162124595012132264e-02
1.803873224138897308e-02
1.423354396570296332e-02
2.954846550101115216e-02
3.737852877963462189e-02
-2.728512258707343346e-02
-3.803632519608197982e-02
1.503706116118289776e-02
-1.569001096256102817e-02
-5.600221089866358470e-02
-1.119434162653022563e-01
-9.841995273550160905e-03
-5.078024461463971628e-02
-1.048837753598799993e-01
3.988054893262690803e-03
-5.294460183002121234e-02
-6.642194679256402390e-02
-5.246822728748753301e-02
-7.001305187549554387e-02
-6.514034359391226991e-02
-3.039125899561143096e-02
-5.315981235212526718e-02
-4.362314666397438395e-02
-7.786183157494389051e-02
-1.023660327052533514e-01
-4.914201871685250356e-02
-3.150752867936962298e-02
-7.409627797129289539e-02
-3.013702914652815687e-02
-2.451315409435508852e-02
1.004755655000208470e-02
-5.770976163211673227e-02
-4.991907268013592858e-02
-6.207465138695471979e-02
2.167702956734839786e-02
-7.490885877048429620e-03
-5.346230953077603376e-02
-7.618196927738561663e-02
-7.771400265225165971e-02
-1.336283684101424035e-02
-5.832310244556711265e-02
-2.533309753500861961e-02
9.226388797412998777e-03
-6.290323362832198062e-02
-7.343860009269828626e-02
-5.702509562614643812e-03
-4.067718505193247680e-02
-1.455682205940710822e-02
5.352205613815122498e-03
-3.778373202209525661e-02
1.394013204285168839e-02
9.884777011524403800e-03
-3.252098744780430872e-02
-1.392158845894615748e-03
-1.035055743547480533e-02
-1.411314802925813655e-02
-1.573805153726128003e-02
8.311667893433190291e-03
1.649576928485592398e-02
-6.720852157600661070e-03
2.268001987722211010e-02
2.476909561898584661e-02
9.565317680040222315e-03
3.114864935020971587e-02
5.521309784257172337e-02
5.429953838297379293e-02
5.233292022281964967e-02
1.424826228584315513e-01
1.170868947138999083e-01
9.234363697857533859e-02
4.004383293754181644e-02
6.042561568369713559e-02
6.226872956480915267e-02
5.460133938360753336e-02
4.902958501390725088e-02
4.332656743462071774e-02
1.401803363835215643e-01
8.643158462731057035e-02
1.233932500137386035e-01
9.841662191117289682e-02
7.122318639238134352e-02
8.768218385974287099e-02
1.159518452546813710e-01
7.730435398047834361e-02
1.124154112428751850e-01
8.894757579831125138e-02
1.001283539710440262e-01
9.506088942530681318e-02
4.451785704988757419e-02
8.433621463170221100e-02
1.174169149389181904e-01
5.536566136101989111e-02
1.107975868348490267e-02
7.272475507042629184e-02
7.243711782312892145e-02
1.065828039479679579e-01
1.242491925307941114e-01
1.223738830748971329e-01
1.718875660921663218e-01
1.886276524999101478e-01
2.018098550639960964e-01
3.078162582991584295e-01
4.209362710298347743e-01
3.833357318155439231e-01
5.608287761694100704e-01
6.710644500125468870e-01
7.100037477202260083e-01
8.496884325404303606e-01
9.861803284082536480e-01
1.038972500305164637e+00
1.180232353870217299e+00
1.257963946093120011e+00
1.303332659428016127e+00
1.314827198693335308e+00
1.376019376341837130e+00
1.289303974902389571e+00
1.274885626614105316e+00
1.219342374666118278e+00
1.163272325221921477e+00
1.011211340497941924e+00
9.223168833909173303e-01
7.643792322555214014e-01
7.000282684445466863e-01
6.046698312390618169e-01
5.465460786503472113e-01
4.474576878368926036e-01
3.708461344498813483e-01
2.382725346396947219e-01
1.586844172401896125e-01
1.615542109336108312e-01
7.224590515147663594e-02
8.468274417692500666e-02
2.982268743476926276e-02
7.794821895957874947e-02
1.488605350866692434e-02
-3.729270839872800281e-02
-3.815287800880760166e-02
3.079986488610020334e-03
3.604158435626762108e-02
2.370811183515292297e-02
5.162243977512703114e-02
3.695924298699574534e-02
3.671874250557134040e-02
5.870327561006152134e-02
6.614606740389757100e-02
3.098338022150301518e-02
7.834034362021846665e-02
9.624278204168121298e-02
8.944935998131142707e-02
6.526770362602138387e-02
6.873649157754793682e-02
1.150723075439087362e-01
5.560641948511087229e-02
1.454538551100851562e-01
8.100174752632000041e-02
9.799645660697919869e-02
1.066845490105648997e-01
1.242227579823513839e-01
1.401628646269139356e-01
1.005651629223772159e-01
9.771418658483875530e-02
2.038876969105167525e-01
1.545862920175535560e-01
1.549104357531483345e-01
1.399650018108802851e-01
8.284072419092068651e-02
2.004236926192258517e-01
1.789594190370180082e-01
2.186257144765098581e-01
2.471320375922186896e-01
1.677696583873447278e-01
1.941503641410604608e-01
1.811610779116330505e-01
2.338333245808657812e-01
2.188111922797573161e-01
2.494845077476540718e-01
1.826886927944200989e-01
1.752714978319088179e-01
2.093065466431638100e-01
1.943445788547221720e-01
1.512540008731679264e-01
1.880470352870262374e-01
2.042038735317575626e-01
2.348056171655288904e-01
2.150202405257798932e-01
1.721666238249320857e-01
1.671534127531149050e-01
2.018454876637849615e-01
1.650531487564705357e-01
2.046764395653907775e-01
1.092535975923353275e-01
1.833431661055262840e-01
1.920496779529601572e-01
1.523580512960958921e-01
9.966025865464947509e-02
1.248326502311529612e-01
1.641056507286598742e-01
9.758889117289894222e-02
7.396576497808914075e-02
6.530240893630108456e-02
1.207663486200060143e-01
1.329667721282394299e-01
1.147835970567283453e-01
1.408066024956745599e-01
4.157501315009373699e-02
2.038822470374189455e-02
6.099307592717746057e-02
7.887918904630064620e-02
9.902148322461935825e-02
3.428906073433885676e-02
8.046855695357033045e-02
6.462656182788954762e-02
-1.580694286035091989e-02
5.103719958369687393e-02
2.647166156388089386e-03
2.142758065042491000e-02
6.192986345841989398e-02
-3.245155679624026068e-02
-2.196681411821560861e-02
-2.668036151238872139e-02
7.745027133592466417e-02
1.982834415188570315e-02
-1.031574735077769867e-02
-6.585916033792989926e-03
-3.561790434575390352e-02
-2.008885517059692816e-02
-2.707648466216837704e-02
-1.162597791624121052e-02
-3.174013991195197282e-02
-4.920181383073429782e-03
-5.223302009009838515e-02
-5.140074804455908170e-02
-1.617319170791118102e-02
-1.537724574527263993e-02
-1.980333570837542606e-02
-2.260007057272936382e-02
1.200995985077404210e-02
-2.905117723352352091e-02
-5.311736724449681035e-02
-4.885211730458365043e-02
8.068353981898701566e-03
-2.303907700388773544e-02
-4.914926900787452979e-02
-7.258418503506977593e-02
-4.249765515863825061e-02
-2.647905045557272935e-02
-2.819705284144679094e-02
-2.352400542745791689e-02
3.803364491277057280e-03
-4.765769458745328785e-02
-2.444414743005608737e-02
-3.167605516917396113e-02
-2.050921139952598116e-02
-5.857963273881565403e-02
-8.643288521009196562e-03
-2.194323952837472225e-02
2.237409593428837593e-02
-1.155167610519512722e-02
-7.272534496076780985e-04
-1.378489777345410366e-03
-6.322046476927416225e-02
1.507902471209604522e-04
-1.172423459676197668e-02
-2.559819751165096774e-02
4.947871919500876348e-02
-4.561795276298209745e-02
1.187741947224663086e-02
1.459021564324763931e-02
-4.724485407115689567e-02
6.801011241800844487e-02
-2.545730991011315239e-02
5.824739622580667187e-02
3.405768014552529310e-02
4.142603122737714000e-02
8.058939432064889108e-02
7.322596152118857060e-02
2.542110406801068728e-02
2.598332746017961714e-02
7.254869515294586069e-02
2.852024498192089891e-02
4.235821534322248283e-02
5.714141608185577259e-03
7.574038751335368524e-02
1.026278511321526421e-01
1.281324990265432784e-01
1.101391515545378508e-01
1.032312117749909913e-01
1.141131627268560794e-01
1.279245417608325941e-01
1.568212556162411897e-01
9.331978613077517026e-02
9.769560877875714533e-02
1.228869274241813497e-01
1.128982123762526379e-01
1.207005876072347744e-01
1.645206090130696408e-01
1.670780430453711329e-01
6.948162089562648358e-02
1.489856508197097418e-01
1.158025979427605712e-01
1.007964703724734401e-01
1.356502826534820572e-01
1.750632825131254733e-01
7.927149870484861971e-02
8.997010593254758937e-02
7.081365771284620081e-02
8.695622876242323218e-02
4.037544057609843140e-02
1.063515911802626335e-01
9.598564134575393592e-02
1.013646699775047483e-01
1.391859023984799437e-01
6.558835197919707372e-02
1.409601108236868405e-01
1.854490625890497790e-01
1.894562228150446503e-01
1.785749294177785274e-01
2.777111654379825767e-01
3.193745429356752985e-01
3.628109952734530075e-01
4.639870546245813410e-01
5.443946584351933016e-01
6.879639738893451595e-01
7.600784538580109828e-01
8.390423007728577964e-01
9.620006290433962270e-01
1.084685028377375238e+00
1.188358809762954937e+00
1.307751097732078316e+00
1.324919273529543418e+00
1.364920868246602526e+00
1.365313569473339150e+00
1.415698944151209560e+00
1.335425823798615852e+00
1.351433841326220797e+00
1.198118097863893006e+00
1.091186400032758685e+00
1.022614568590692441e+00
9.367195091330724477e-01
7.982995454908835553e-01
6.876344166758936449e-01
5.918676060637191316e-01
4.586388047663114143e-01
4.123585612080145624e-01
3.123370095053875639e-01
2.787701608805440712e-01
2.235102324386308847e-01
2.012726675748692240e-01
8.959255031844381989e-02
1.005988437072312253e-01
8.097944399024582796e-02
6.154175230245731432e-02
4.693124007826046662e-02
4.557759125500840391e-02
4.001089010335150478e-03
3.912251078138249960e-02
5.777895281312558223e-02
1.138833195646412610e-01
6.106316571209514932e-02
8.613568067596406863e-02
4.647340726840358538e-02
3.821201234286684262e-02
5.046767673081171968e-02
7.998279282830778047e-02
1.520227946583382339e-01
1.464843223415542850e-01
1.096910829174749524e-01
9.809177630404536385e-02
1.690970500040722135e-01
1.327831348264733591e-01
1.689727487274331752e-01
1.709682687427972747e-01
1.484863279521811408e-01
1.824322244773348145e-01
1.636373385462142893e-01
1.835262637033198974e-01
2.333568413680572329e-01
1.577275651944818613e-01
2.084130978312075666e-01
1.819947084413381377e-01
1.834983840864055915e-01
2.194501644188535106e-01
2.159092880579437379e-01
2.083784679287926656e-01
1.999705057462194957e-01
2.577695373887675667e-01
1.772644726573811835e-01
2.751175188717242537e-01
1.624648271575111491e-01
2.176854441402121254e-01
2.003214540529881516e-01
2.071241069610216257e-01
3.051698644744061384e-01
2.372582069355111123e-01
2.121923043139430365e-01
2.273850808763994147e-01
2.724309679867305545e-01
2.758316850573461765e-01
2.412423995535845911e-01
2.852580640253130628e-01
2.370115308607889937e-01
2.348473624013656114e-01
2.255598195829162933e-01
2.501489596869908572e-01
2.584251492240154935e-01
1.802339901810373901e-01
2.219323294580553274e-01
1.722235659509836758e-01
2.355912245071364042e-01
1.856385681103498997e-01
1.879161649884336094e-01
1.811839831062171391e-01
1.905747905534580233e-01
9.054162565151910314e-02
1.707800011702483023e-01
1.586335719053683924e-01
1.745362176932126752e-01
1.152115601323337041e-01
1.535512906943251876e-01
1.701173217234976665e-01
8.247358526124444478e-02
1.787452377989184049e-01
1.149345516138252643e-01
1.075309579299680851e-01
5.889995844503238820e-02
1.039362449929921856e-01
1.183541148983108388e-01
1.090656500073409058e-01
6.782134004217299506e-02
7.672481610463308468e-03
1.137610051129851890e-01
9.837909779047909753e-02
9.720444080430197531e-02
1.408807965820400021e-01
7.282496911987576538e-02
9.774402488446375104e-02
3.136381619354897121e-02
8.493686594796549805e-02
1.018231266766273825e-02
5.427675147163211339e-02
1.667800047566527291e-02
-1.698084927517917384e-02
2.603108316540586956e-02
6.606892607400903505e-02
1.958649770008945648e-02
1.539898917961554647e-02
2.448035016708398348e-02
-1.995045887518349936e-02
-5.516894780744229301e-03
1.921115635602176075e-04
6.614200692222992062e-02
1.038246462039837809e-01
7.681685318199878154e-02
4.918706210138550083e-02
2.974214232337370895e-03
-3.078659271874849973e-03
3.089615678162831863e-03
-3.023234960968100918e-02
-1.129478989410967471e-02
-2.245920882830869381e-03
6.479170278052838461e-02
2.417416420771957911e-02
3.717353514915283652e-02
4.768900133931518182e-04
-5.784444301418521783e-03
-4.225107539627852293e-02
1.169569498233181785e-02
5.798224538396737349e-02
2.249686636830252467e-02
3.366890227597156560e-02
4.644528786661006325e-02
2.591698368755995449e-02
8.462455701562927868e-02
-1.327217854656782131e-02
2.069601964944131969e-02
1.397094207772101374e-02
6.746895631804739751e-03
7.670134910386150473e-02
7.574524717288581843e-02
8.067619383070208372e-02
1.022072982759882065e-02
3.801834461451616964e-02
3.648739811764313556e-02
4.714975825846551977e-02
7.248029445341272470e-02
1.117401332647692258e-01
4.737941842781592111e-02
7.669420899851527029e-02
6.788613859826010677e-02
5.748664013448065435e-02
1.387730716423370980e-01
6.788633833023013930e-02
5.894509663667185650e-02
1.138706731572893260e-01
7.639094834213415453e-02
1.100379567841965056e-01
1.416215662492683047e-01
1.746769292449991129e-01
1.583413935698967934e-01
1.581527262956768931e-01
1.189700826630136071e-01
1.216492400609777841e-01
1.632861372125364585e-01
1.097599285655595919e-01
1.775871937885925012e-01
1.580292447936209599e-01
1.830058093483301340e-01
2.299644195893780219e-01
1.279436404727270216e-01
1.367771645186966201e-01
1.710411101393645716e-01
1.891016322039415498e-01
2.029781675298974741e-01
1.801698729465070759e-01
1.322922409970124225e-01
1.448798869774176323e-01
1.698618530124291204e-01
1.710320125973024408e-01
1.958984384520685018e-01
2.201379377691164430e-01
1.794978948454549195e-01
1.291105694290635153e-01
1.324460967148097523e-01
1.194432164767038063e-01
1.784387574233138318e-01
1.465473636731264850e-01
8.625027348756378331e-02
1.848783749285280442e-01
9.254910437429283987e-02
2.226283291817298393e-01
1.830660863844928432e-01
1.833332836152902767e-01
2.048082949689107035e-01
2.391356062134554483e-01
2.208392564035820405e-01
3.785808878085488161e-01
4.711208241896319149e-01
4.967093639583143316e-01
5.578210346091539984e-01
6.708151940445598038e-01
7.036674151731693305e-01
8.411834397066577651e-01
8.923825052116622913e-01
1.079587971614361708e+00
1.206732666243798713e+00
1.257126880134467939e+00
1.369614193268124058e+00
1.379863052412990898e+00
1.429928467489452126e+00
1.497632753080486934e+00
1.465133580600987306e+00
1.386053686840361898e+00
1.313258568917972102e+00
1.234940521722592388e+00
1.096394414566112863e+00
1.033757945316910565e+00
8.647123173633939341e-01
7.692620886537826497e-01
7.300046456257954786e-01
6.658066418868737735e-01
5.362782431577779452e-01
4.302772136789297375e-01
3.463552601267568254e-01
3.069834519023961761e-01
2.212088989287258889e-01
2.041416082523196951e-01
1.577519574978149819e-01
1.352057046286381792e-01
1.515098071128988810e-01
1.041142274018492103e-01
9.684749827019158153e-02
1.108862937141567029e-01
1.015419968365696701e-01
1.355245559725758997e-01
6.934925380565150344e-02
8.004512489271881082e-02
1.035731880305115760e-01
9.657133631002315366e-02
6.280029326084982100e-02
1.434519373399971709e-01
1.419855232941051315e-01
1.692095753343430820e-01
1.335472640274354417e-01
1.766241671805063307e-01
1.618091723282501504e-01
1.421029710044761085e-01
1.939378637632970248e-01
1.541710499919346500e-01
1.410864663483912818e-01
1.900386546451841852e-01
1.949268269927008357e-01
1.801986585122680173e-01
2.318892761979795547e-01
1.888968173141828133e-01
2.278986677397222271e-01
2.456699863231515124e-01
2.330255595007089675e-01
2.690948117510026383e-01
2.477492269604358865e-01
2.348158057421688982e-01
3.013378487927409477e-01
2.971764186726271184e-01
2.427466052813942454e-01
3.169550375907835837e-01
2.462196786652423586e-01
3.346807513487806141e-01
2.696824498069257392e-01
2.330096235058876364e-01
3.489709826712512619e-01
2.778605831127486936e-01
3.284510176878959187e-01
3.218161588842328169e-01
2.483610244371162179e-01
2.639617765246263237e-01
3.504635667584203862e-01
2.473277361727186929e-01
2.929033563908924331e-01
3.114384874377787438e-01
3.194555830806676822e-01
2.321924683567233583e-01
3.106949445159789547e-01
2.443911526039622695e-01
2.696049960854787209e-01
2.404534953588436386e-01
2.382748195199481112e-01
2.138926461259783585e-01
2.803480854150157131e-01
2.270585209266514359e-01
2.841996677850852082e-01
2.062352098808203082e-01
1.951428445080909402e-01
1.735564381435119874e-01
1.890225279263593461e-01
2.560151141456833424e-01
1.868807180250948441e-01
2.148771296408465981e-01
1.683203010148678347e-01
1.900844277058060250e-01
2.159651684347410616e-01
1.496642766795842627e-01
1.697012311800004669e-01
1.452427828629574147e-01
1.043805598977540772e-01
1.301191189599587850e-01
1.592939164387963957e-01
8.681935423490103054e-02
1.221122184054637544e-01
1.139051058443552034e-01
8.647372693210567118e-02
8.434771524833686862e-02
9.936375476019045083e-02
7.689800676395094903e-02
1.050783136737953594e-01
6.636346936247887462e-02
1.129183224593258567e-01
8.761830279995289072e-02
9.758328201283067438e-02
2.740180016345371977e-02
1.046868685663189524e-01
4.927412511886919422e-02
6.889820393689599642e-02
8.143879141989103509e-02
1.889573210354883112e-02
4.883394620756944388e-02
5.349419005697957086e-02
4.987979403897298963e-02
8.706138085903268597e-02
4.085451416192746599e-02
2.422065643530733892e-02
8.378078773504807342e-02
5.361415728448564594e-02
7.064821349838810993e-02
8.908511144359335110e-02
4.816056792780952500e-02
6.330646884465918056e-02
7.633698717985867854e-02
4.501017712081743782e-03
-9.399980755121946363e-03
6.218009562155062120e-02
5.842786079018257028e-02
1.937231737566907225e-02
5.088476720952612303e-02
6.163557128265309548e-02
6.054836971561508574e-02
1.013516632714055871e-01
4.791499468163153141e-02
4.517291249691151450e-02
4.110902743429974832e-02
6.570024066646780458e-02
9.528419764445512918e-02
7.100164028558536566e-02
7.341755289811673080e-02
6.667030632569778681e-02
8.424869617828127655e-02
4.761251622178290510e-02
9.461529732350142108e-02
9.107185810118172131e-02
6.119415206728866241e-02
5.650288591795085691e-02
7.806909198329098354e-02
5.173471068396792716e-02
8.214726529721100290e-02
7.300414851771402924e-02
7.704865044850818523e-02
1.162731772000738933e-01
1.108876961439086706e-01
9.105791785308632591e-02
1.183744793973068449e-01
8.346778654416864285e-02
8.804477228277876599e-02
1.505953871940761135e-01
9.371321427344933563e-02
1.172322447101993570e-01
1.170109770975141794e-01
1.408963545962546582e-01
1.552783787000896754e-01
1.130320500244619275e-01
1.354524875396197481e-01
1.832971934343936016e-01
1.668804449423713088e-01
1.179301896953110773e-01
1.780953091958812906e-01
1.763502289363252373e-01
2.300248140156722909e-01
2.061868658565297330e-01
1.904761975100891791e-01
2.348940281701657473e-01
1.536392164892157741e-01
2.039084133797415543e-01
2.337454456071161035e-01
1.919115082688129248e-01
2.058493156069258478e-01
1.723502465492521840e-01
1.899457424930547089e-01
2.273098269523309289e-01
1.756188106921559022e-01
2.056442098912982519e-01
2.272685456548127758e-01
1.989642888054370951e-01
1.665601157272660893e-01
1.540044058054247933e-01
1.917009329572342824e-01
1.604173046606168773e-01
1.894659390938547017e-01
1.275592629005322665e-01
1.907887611593664379e-01
1.814076711472066838e-01
2.283163730544598147e-01
1.774789720206350618e-01
1.724927260288920128e-01
2.300916731710459517e-01
2.198636832142850106e-01
3.404218429320419737e-01
4.448740124269350282e-01
4.885419700495490236e-01
5.631053104733678705e-01
6.325240190811274310e-01
7.565457146456971982e-01
8.494199902520015444e-01
9.828214352311499535e-01
1.040588890400791833e+00
1.190210144402733317e+00
1.271141464003256782e+00
1.350415937445106129e+00
1.365282928154538222e+00
1.385531238080248917e+00
1.377814308086696693e+00
1.467014896319482231e+00
1.413408905100107749e+00
1.367970582230949583e+00
1.292582505484155320e+00
1.201218374609112294e+00
1.118955734951742720e+00
9.723537784031722753e-01
8.457413618681803857e-01
7.661833114375635745e-01
6.503595348375172946e-01
5.980070622129560753e-01
4.489815753063448045e-01
3.832061762970332408e-01
3.180644749843206665e-01
2.619655464664993327e-01
2.471438769283980097e-01
1.618645976521401186e-01
1.192064569206679192e-01
1.646962142087643743e-01
1.157939691216383626e-01
8.712071060597842420e-02
1.541571022416189374e-01
8.094935513350481893e-02
7.408571949300693515e-02
1.172974581206406020e-01
6.706456841069594055e-02
7.692594648372702570e-02
1.132838811736103513e-01
1.309238663705321049e-01
1.435834762687846489e-01
1.579360000925322804e-01
7.304073328673219012e-02
1.707382000457846327e-01
1.516681909994454514e-01
1.786593099343471713e-01
1.822605316655865337e-01
2.066572619416885692e-01
1.812067161691346961e-01
1.977822589029200329e-01
1.893938871123670153e-01
2.134938555148661044e-01
1.652922781168248978e-01
2.553785669729412566e-01
2.100276642421377848e-01
2.579015439202894111e-01
1.959684572368823319e-01
2.580249334090732316e-01
2.123208055666946370e-01
2.484989030379621266e-01
2.608087666232448143e-01
2.371718672601044464e-01
2.350252863020193539e-01
2.194434563751656020e-01
2.487102865606000690e-01
2.909534176319800158e-01
2.785037384450390063e-01
3.033431429974687288e-01
3.062104011954910887e-01
3.338009158644226204e-01
3.193980443060548402e-01
2.972074424915633339e-01
3.258990255918469137e-01
3.190550476043811368e-01
2.735329687956045697e-01
2.800718902082557360e-01
2.778218773818335041e-01
2.546818334292813568e-01
3.070407000059745539e-01
2.772400711313227073e-01
2.778231424916950409e-01
2.469660718009468181e-01
2.689024847272905028e-01
2.874755959846381215e-01
2.252150428453384701e-01
2.260904192155935022e-01
2.614167934917593916e-01
2.599062533391805485e-01
2.506188450703060733e-01
2.011243927956435917e-01
1.881298381535390363e-01
2.202129471259236804e-01
1.979691299478270328e-01
1.975428334388559248e-01
2.121381132774407263e-01
2.074105054546978300e-01
1.419882304048316057e-01
1.690215643878927032e-01
1.266776079621719231e-01
1.576864532272809205e-01
1.201258464902511813e-01
1.779044837873761109e-01
1.681026413339636039e-01
1.686865464243400559e-01
1.258989419708298196e-01
1.942708104437955718e-01
7.525015877103394257e-02
1.253091555155210202e-01
1.126671948147461022e-01
1.075190661218875798e-01
5.365881720108576364e-02
1.640166208346693910e-01
1.145184217868079057e-01
9.332944903598748565e-02
8.844121199473337080e-02
6.270264493141121387e-02
1.024905720339380488e-01
1.083591932271876224e-01
2.899979993719972032e-02
6.406441923233779923e-02
8.777404136215508079e-02
3.884392067761764655e-02
1.110328678080308440e-01
4.688355669018187677e-02
5.104357110720354751e-02
6.298263724208505443e-02
6.498746797158916344e-02
8.012271298000010755e-02
5.606675614224372606e-02
1.958160415901496337e-02
9.251895053861577956e-03
3.924028760171321961e-02
4.020675694009959167e-02
4.616571014255255179e-02
8.092971220999466142e-02
1.072838697828574356e-02
-1.943235951010349391e-02
4.150839994399687510e-02
3.813735053124779617e-02
5.983930063266799937e-02
-5.795989339337330459e-04
2.623313217186685337e-02
-5.319643462030343439e-06
2.307506716906806282e-02
7.553658971135299161e-02
6.307180266039488781e-02
4.935913105855553595e-03
2.290524431360698235e-02
1.962668485423836248e-02
4.373190771146642092e-03
3.767159846220494157e-02
-2.572675062013438790e-02
5.233708022611903432e-02
7.527097557795224547e-02
2.807771848450635321e-02
3.226026005224841980e-02
2.905410473595088083e-02
4.787885501814796718e-03
2.447717307881014381e-02
1.661766468850178757e-02
4.023331541686982205e-02
5.333515864243288523e-03
1.474331875349302323e-02
1.008660410177611988e-01
4.071308632368406122e-02
1.038690868322301453e-01
8.423746687719649295e-02
1.055285739045148663e-01
6.027311464497101673e-02
3.672366909599472651e-02
5.744957925911223229e-02
9.755686610183551821e-02
1.080112489895517641e-01
1.056017170370085190e-01
9.333631435924574782e-02
7.851230120555495462e-02
1.166649450588666259e-01
8.938675621555164374e-02
1.487682378704631159e-01
1.007887067233331074e-01
1.266105267646123744e-01
1.773420187917412461e-01
1.669176786838718063e-01
1.817557740593225279e-01
1.707346410366112344e-01
2.209051454926090619e-01
1.196116725925641805e-01
2.151599195715446777e-01
1.309646570088839612e-01
1.879193945265756893e-01
1.675877730640735197e-01
1.489444372856327803e-01
1.658115363865935166e-01
1.765955490109508419e-01
1.317338831344992967e-01
1.625155197388429840e-01
1.775413657133032286e-01
1.192626278555935920e-01
1.845878011691107767e-01
1.911176914944942573e-01
1.667199419283087458e-01
1.323092495294778681e-01
1.410905561416738174e-01
2.009888699843209448e-01
1.819106883035135624e-01
6.767575688074889406e-02
1.517904548227487771e-01
8.512820164321405203e-02
1.060332015628454444e-01
1.144892716819224943e-01
1.683330974601025543e-01
1.937913522564982671e-01
2.241217462563160623e-01
3.094967991794133622e-01
3.121997477764847373e-01
3.850576025872856079e-01
4.932500432678658675e-01
5.680857409467424679e-01
6.960442285350482150e-01
7.771289910193973638e-01
8.990451061541270272e-01
9.456470047614360386e-01
1.073746449705220263e+00
1.188936690251058081e+00
1.286226365212179035e+00
1.314244633299789466e+00
1.420219796987517435e+00
1.400004764981262362e+00
1.404744609918922249e+00
1.398625481941708770e+00
1.318564496537422137e+00
1.201439831328738217e+00
1.142651684968190473e+00
1.105079825756993372e+00
9.878509467725130611e-01
8.584766610982935697e-01
7.378021399096077459e-01
6.321388274396728679e-01
5.490894043601892704e-01
4.707573368813541270e-01
3.706621062283886880e-01
3.405099708197574793e-01
2.267434754738283098e-01
1.911182287874418351e-01
1.798210769879904636e-01
1.702862856707377526e-01
1.529596716227860642e-01
1.250900354873746290e-01
1.143664143179689424e-01
1.012942122178877719e-01
1.212595953949414940e-01
3.159190043829839672e-02
1.853048435153751075e-02
7.710272051028384255e-02
8.549119945404784482e-02
6.587513130566337305e-02
7.867051613591098669e-02
1.017437094714225831e-01
5.513574886160391153e-02
1.047652662026226228e-01
1.366199844200523261e-01
9.831001036808452442e-02
1.213375687695316674e-01
1.604759606708686115e-01
1.435420239094961081e-01
1.474786423734187613e-01
1.311823516825814384e-01
1.296664690799900765e-01
1.740787283516856410e-01
1.549566230713533554e-01
1.983304312673757341e-01
1.841700222046446511e-01
1.695987241541988266e-01
1.814585416869614887e-01
2.025926085241877284e-01
1.545494569929293793e-01
1.826271277095724566e-01
2.378505646302347121e-01
1.936544135950266643e-01
2.118232160492870553e-01
1.990977658789538640e-01
2.238586628770972975e-01
2.926902153971952525e-01
2.252455127304933968e-01
2.122721566131612891e-01
2.243430245198927420e-01
2.674966027889995046e-01
3.119880092639999991e-01
1.968152775505972452e-01
2.837054567087269885e-01
2.548400560743576682e-01
2.593325798031542728e-01
2.776002528592375063e-01
2.346102829466613082e-01
2.621146435460051660e-01
2.580964257730867240e-01
2.897976690736879246e-01
2.626983435946482204e-01
2.580788476663645192e-01
2.161538903338729722e-01
2.395694151177541753e-01
2.473385755301945044e-01
1.694805633167281167e-01
2.063929520682375451e-01
2.284338447398214511e-01
1.694036728419801019e-01
2.024031670903312374e-01
1.315516290667466948e-01
1.923650703658735805e-01
1.709291236234648792e-01
1.448551417792350582e-01
8.339237528339235594e-02
1.561235142469473980e-01
1.617571365689560448e-01
1.585875421252171680e-01
1.378424563043693096e-01
1.555244652215095058e-01
1.198345042256491466e-01
1.274836186329487420e-01
4.695408958516020248e-02
1.064511289147220263e-01
3.893257211437248927e-02
4.540593238637621182e-02
6.195125775205000129e-02
7.267741915653630480e-02
8.529025384490067363e-02
4.555222072764629482e-02
5.291244057592765782e-02
4.954222168178011587e-02
2.341304185177546168e-02
-1.663825764044521427e-02
2.840308269717031070e-02
3.798283384811432239e-02
1.052588819431987677e-02
6.004777391303073308e-02
5.643951463064199314e-03
1.282209737655495840e-02
2.512528659409705642e-02
2.746686710199730194e-02
1.601856539951666825e-02
2.016994371354958321e-03
-2.615414544424639331e-02
6.267307707170530207e-03
2.477670776159553861e-02
3.148299718209685710e-02
1.789501725104940266e-02
1.691118796974136473e-02
-2.820688978972540201e-03
-4.083168276075987979e-02
-5.360552419414653380e-03
-1.631722312967025940e-03
-3.735975008412389248e-02
4.770469071285820400e-03
-4.746315687786048509e-02
2.287484200388457262e-02
-1.621291077819678184e-04
-1.362964032801336489e-02
-1.645135303033494825e-02
-1.495992753330827908e-02
-5.730998959531938275e-02
-5.795132742921890734e-02
-4.028803894122539447e-02
-1.319953010234176279e-02
3.302585148549951055e-02
-2.483541558208500824e-02
-6.028354280465648279e-02
2.730007700405143178e-03
-2.168378588154184355e-02
-5.845350096366611764e-02
-5.114053878981368595e-02
1.631307064766912909e-02
-2.580691171880245688e-02
-5.558959283724268507e-03
-6.294661158538449042e-02
2.350219090682195699e-02
-2.021694269631602037e-02
-2.545977852544440909e-02
3.041053461186582485e-02
-6.299832698323268310e-02
-6.297951841581772570e-02
3.728544873003825089e-02
-8.451789331262900273e-04
1.167083581640371640e-02
2.411315454447871681e-02
3.568622788970049475e-03
-2.164010892960700760e-02
-3.334732372621064533e-02
6.464739281167333762e-02
3.891157118732119224e-02
5.180119404439903485e-02
7.514448586130072216e-02
-4.008908305500689245e-03
1.664889542433225372e-02
6.820754111815888199e-03
8.332907819989027187e-02
8.210061070738415567e-02
8.294289763861831255e-02
1.657660892638670447e-01
1.049365487249853957e-01
1.119078640555293824e-01
7.231708290675259443e-02
9.302278587609891236e-02
1.360643483274792398e-01
8.055930634454130934e-02
8.634401381362835637e-02
6.584453387052430218e-02
1.071301094391242104e-01
1.130591808508575047e-01
5.859421474255652879e-02
1.230194747803930594e-01
5.929931181725806716e-02
1.132139158500639065e-01
9.340569454174342534e-02
1.166405622956035865e-01
1.435023322147934433e-01
1.362387978552266898e-01
9.278872911858737638e-02
6.444680444497619121e-02
6.760623186687425568e-02
6.891172155435493218e-02
5.578843639307796282e-02
5.838043555098663268e-02
6.236325787294021844e-02
6.975362680191940501e-02
5.361992156089277067e-02
1.240880791685562978e-01
1.180874561164662606e-01
1.326271282931428819e-01
1.419982830223169568e-01
1.433167935801219761e-01
1.941826871973783564e-01
1.941293786699214430e-01
2.991084948845780245e-01
3.801445744518008873e-01
4.551944399604070379e-01
5.121746796005233193e-01
6.749924871853572039e-01
7.840622379947843612e-01
8.662980320195324824e-01
1.066168806080833864e+00
1.058329895772644580e+00
1.178241308125330677e+00
1.301952419692212759e+00
1.346985621116995713e+00
1.360168002630793849e+00
1.332907120430568471e+00
1.334498584073765537e+00
1.293527013235286738e+00
1.204643840421347090e+00
1.225871617031237815e+00
1.109908102684499243e+00
9.470827465485266439e-01
8.559947876160305391e-01
7.619453486698298805e-01
6.521523895980735341e-01
5.588660996016280302e-01
3.901937941950858746e-01
3.569239687564796926e-01
3.272803593813615741e-01
2.476556794943886031e-01
1.452560596506005108e-01
1.178057545042195953e-01
1.648327619155923740e-01
4.928858559375325771e-02
4.676407861245213127e-02
3.228995599256571924e-02
3.319879136041387069e-02
8.267552709914664788e-02
6.487371430545105233e-02
5.344783017722204432e-02
2.768860998433258364e-02
4.534572713985587228e-02
-2.217258496800745410e-02
3.189089577921715851e-02
3.056158047096131647e-02
9.161989767951567165e-02
5.156429678149321294e-02
5.281665446165772354e-02
7.620235019190865766e-02
7.376784310649245335e-02
7.030768323058114722e-02
-7.792722087822431809e-03
1.224083619212108509e-01
7.265302465852035985e-02
1.065016497381378185e-01
1.110380702903670941e-01
1.602440780148983723e-01
5.807302455036437300e-02
1.332944852800697910e-01
1.768496270398952630e-01
1.535597531559874107e-01
1.802177568111671957e-01
1.385150735231861774e-01
1.466514597240047846e-01
1.912221785405833763e-01
1.595608341506382644e-01
1.672813169286266610e-01
1.992565057509842474e-01
1.723110878874836993e-01
2.249022685820228906e-01
1.975840471930727926e-01
2.394483059339028996e-01
1.929535247172672330e-01
2.016859146959253946e-01
2.454032998448135161e-01
1.800334975945043769e-01
2.187434945677532161e-01
1.918289148074866501e-01
2.167016840836286096e-01
1.995236276257397190e-01
2.258851721319848904e-01
2.236734386251231776e-01
1.989554468220359196e-01
2.261693257813883473e-01
2.310046570616175188e-01
2.345564736732778932e-01
1.896325278241924039e-01
1.890181054709804964e-01
1.861731286252195083e-01
1.853120214542502142e-01
1.511527785922133216e-01
1.545270035142070064e-01
1.799593923312638455e-01
1.113286830253466808e-01
1.383911126457642859e-01
1.560793620887574729e-01
8.975869113832721236e-02
1.691356344088720542e-01
6.073988309411759712e-02
9.749408394749199680e-02
1.175075725502171542e-01
2.207777449295177802e-02
1.076259804744766624e-01
6.836189467867404002e-02
7.547509764290952217e-02
6.312468053162628712e-02
3.821913598238953907e-02
9.319454148468156451e-02
3.012394378983732079e-02
-2.514901218949580630e-03
7.389269711097931626e-02
-1.709633426934237949e-02
5.462964192522505591e-03
4.418644926247898563e-02
1.532985887537875735e-02
1.804913155756454612e-03
-6.453374935011477187e-02
-3.865424976418360692e-02
1.583553188121575306e-02
2.727860355769029521e-02
-1.439105437629231016e-02
3.510726978344187038e-02
2.735675428592436453e-02
2.373972639861562928e-02
-8.210961480529534173e-02
-4.911541380104687826e-02
-5.621328247818901946e-02
-2.099244576857262068e-02
-4.714979669606306212e-02
-2.107199477729308768e-02
-2.752605265357369047e-02
-4.044448955560636660e-02
-4.190867081699622271e-02
-8.550220427591154193e-02
-7.257518646882016311e-02
-7.099600502327030327e-02
-3.396888346681358611e-02
-4.268301188241915844e-02
-8.848136238346682170e-03
-8.882724129641997313e-02
-7.354033491900387187e-02
-3.701635655271167530e-02
-4.729331354650715552e-02
-1.159046178376878927e-02
-1.597457687971051699e-02
-4.200948487013803079e-02
-3.020642753876437089e-02
-4.882698604788755781e-02
-7.374519845414956309e-02
-1.146266115499267046e-02
-4.248490440648695216e-02
-3.334494205627144131e-02
-5.496243842281093445e-02
-3.719074559707611499e-02
-6.816668341880219306e-02
-2.820956998480708688e-02
-2.176540471842842647e-02
-1.542485316387452038e-02
-7.156987646811496795e-02
-3.096304743965053174e-02
-4.466715974926586952e-02
-3.097689341843945510e-02
-4.884015563898067014e-02
-6.425434026439895419e-02
-3.319903523091356778e-02
-6.880089120357896215e-03
-8.016147369185175342e-02
-2.333047542164333812e-02
-8.062595799408399377e-03
-4.875428761625588692e-02
-1.119984219283966242e-02
-1.645868199667280263e-02
7.925421320810338566e-03
1.219858848209067620e-02
-5.063604170035857638e-02
-6.054073362046851620e-02
-5.462277038234010507e-02
4.140917715304230640e-02
-1.258413045252349677e-02
7.102796674500966301e-02
-1.008276517220523666e-02
5.962977313451876815e-02
2.338222153202471759e-02
2.916783756408856954e-02
4.568796706921975093e-02
4.111311894332603245e-02
5.085769251455339590e-02
5.432735723075245160e-02
8.007153110210291080e-02
7.204636144841029821e-02
7.868904228998385708e-02
8.645633911067117372e-02
8.677029564718184707e-02
1.002410398150300752e-01
7.993977983892380790e-02
8.155806021252048899e-02
9.458131367618868857e-02
1.497992511863806553e-01
1.809271149871318207e-01
1.034070863721717054e-01
1.166978218631932462e-01
1.016190157873036737e-01
1.267444539681261695e-01
6.401814111376222249e-02
8.362322246226522315e-02
7.219945796127380522e-02
9.004632938092858863e-02
9.945026604592055453e-02
6.841264798694435267e-02
-2.772197213675992727e-02
4.228353997352800320e-02
7.467830122173907403e-02
9.142608969783799777e-02
9.331315673657941678e-02
1.217697995878107703e-01
6.679852810793002194e-02
1.142753562575886117e-01
1.846006681055210041e-01
2.224538902389078532e-01
2.750372988067369406e-01
3.928694239992160941e-01
4.172495329521457297e-01
5.406909874576577568e-01
6.370585596462121636e-01
7.575009045015145270e-01
7.610531889170655262e-01
8.820462137299300842e-01
9.939614232569213836e-01
1.176231550098636447e+00
1.215471937586705131e+00
1.267426164522006626e+00
1.344085705495378980e+00
1.406238267450513613e+00
1.353441648141576303e+00
1.365063436905568750e+00
1.230515179232424927e+00
1.137083034886820165e+00
1.079826131315872351e+00
1.009458729684787004e+00
9.206455233042429853e-01
7.976739275408326613e-01
7.042149181670102065e-01
5.463997405185002654e-01
4.824467784811477533e-01
3.938711085258742584e-01
2.424933087267230059e-01
2.301226519590407749e-01
1.833936555151612080e-01
1.564000452854085177e-01
1.388764217807897106e-01
1.041617522016982655e-01
6.506774343017621143e-02
9.426506919929635020e-02
8.407608926471597799e-03
7.291613045803788107e-02
2.894100505956460900e-03
1.707541473930480197e-02
2.844722281959341514e-02
6.041402122977244243e-02
-2.327512541455439843e-02
5.713949754483013677e-02
1.055745534905416783e-01
4.013348029150348023e-02
6.591021359066703833e-02
9.879427362781592614e-02
6.623046354557640680e-02
4.038708535227750196e-02
6.316120935501882971e-02
1.151134362716843135e-01
7.780342124480907340e-02
8.634190937379582209e-02
9.582200491882728044e-02
1.421550158024382227e-01
1.488070172004605229e-01
1.005335627580821456e-01
1.578333696881791537e-01
1.068914729804912311e-01
1.236387468190993655e-01
1.736414557037453121e-01
1.755455186477411778e-01
1.846426842716324956e-01
2.210466062571493917e-01
1.304637422337274200e-01
1.750064905248282510e-01
1.914559721071189546e-01
1.409637227755055344e-01
2.356106501594820157e-01
2.445510954082201760e-01
1.538063397365312113e-01
1.878944449065000633e-01
2.154215733024647805e-01
2.241811893731876504e-01
1.951750404702042863e-01
1.921743677818416041e-01
2.192445594130794650e-01
1.913830913902390407e-01
2.542439959387812198e-01
2.154845203126171393e-01
2.230962997959414218e-01
2.039692462128000205e-01
2.288932159736461747e-01
2.129639334463833134e-01
2.137784226642185093e-01
1.947124292772974274e-01
2.018900119877158894e-01
1.882805439169045747e-01
2.039345547921716517e-01
1.982328413966620295e-01
1.914996452215561584e-01
1.385987306626009774e-01
1.283711482032966478e-01
1.764328594891877433e-01
1.410132443712030503e-01
1.616589364947013385e-01
1.446587101562278599e-01
1.290327233019666897e-01
1.920886570012772798e-01
1.106733823302533948e-01
1.359630199240068060e-01
1.053697597661288066e-01
6.525742713861604205e-02
7.329315071138217674e-02
1.129796128272205491e-01
1.243771439310360216e-01
8.279372662542494599e-02
8.170778247586399368e-02
1.208284092027472195e-01
7.049111635748414595e-02
6.258708922286580767e-02
-4.054626267317142790e-03
2.369797773225437373e-02
7.843153440247602193e-02
-9.965180173186725943e-04
3.665789165890098733e-02
-1.747422528516295176e-03
-3.701833937817014530e-02
1.723817398930138634e-02
-1.265328240473495569e-02
9.107749887954369461e-02
-1.915289232691983964e-02
-1.544788085883944811e-02
-2.457952417003949480e-02
2.907657140217891067e-02
5.625878215920072922e-02
-2.362443440280610416e-02
4.528452151572202877e-02
3.398507313618857884e-02
-2.513702710948902477e-02
-6.175918013618695440e-03
-6.836821138725052149e-03
-2.976221216498442859e-02
-2.833962699786819403e-02
6.503351689832841120e-04
1.174503709415186670e-02
1.995695530970999221e-02
-1.951085479422812533e-02
-8.435121600697273458e-02
3.281651497263814166e-02
-3.910066062625883188e-02
-6.274191320787832205e-02
3.184392635492452189e-02
-2.986846450488622046e-02
-6.131043660758805913e-02
-1.076012450093363944e-02
-7.076705025772025981e-03
1.439098144311446587e-02
-4.043563594127108640e-03
-3.166701184776684469e-03
-2.954125281940022524e-02
-5.732584957830702543e-02
-3.597651837637577676e-02
-5.815263323915310922e-02
-2.553979270122795631e-02
2.345125043350888838e-03
-5.501537572028397660e-02
-2.126327378571781640e-02
-7.726318206332316585e-02
3.421932048517494634e-03
1.114689502263998752e-02
-2.857920341144179477e-02
2.510819199440373489e-02
-2.567876318644366981e-02
8.697457165608463159e-03
9.222755592711007894e-03
1.889211823531290052e-03
7.826238289291245764e-02
-5.366919004869893928e-04
3.166304049921848246e-02
7.404030165108942130e-02
2.213724427902984473e-02
3.444092829313177145e-02
2.623473525045726812e-02
5.317144456926103935e-02
6.220250313429524780e-02
8.767918684397114915e-03
3.848035393599830156e-02
3.136129587118152706e-02
9.414549662946154751e-02
1.199021911807255231e-01
8.782951380219228277e-02
1.171470816112806929e-01
1.461202055879608393e-02
6.083239396417679246e-02
1.304279757365532366e-01
1.389310623001698830e-01
8.991627454281786447e-02
9.892445866414241451e-02
8.736748190277225656e-02
4.841509638061747278e-02
1.933848686023916796e-01
1.588198919397894315e-01
1.530636325478317850e-01
1.159232879725236864e-01
1.082225449878589374e-01
1.122167046293555681e-01
1.666124082136777873e-01
1.549892078948877927e-01
1.692406850554600273e-01
1.619838299459371855e-01
1.696580153605751762e-01
1.311966619399236034e-01
7.216349995944532081e-02
1.533003683846308196e-01
1.148144140599870328e-01
9.957723947385291319e-02
9.025424379034713285e-02
9.742372679677403779e-02
1.078342269412761040e-01
8.396198132251883606e-02
1.329056314174164311e-01
1.069511972344052014e-01
8.110612408155469522e-02
1.479653388534392933e-01
1.665634032421170196e-01
2.534312455640483908e-01
2.472690559338684146e-01
2.774215336344165728e-01
3.983556272521642239e-01
4.678231868905175506e-01
5.575649356307357252e-01
6.675074125296822647e-01
7.197279864409106276e-01
8.725990289619236506e-01
8.775410847381965862e-01
1.075532994084496652e+00
1.183532007345269310e+00
1.222521425889698365e+00
1.353501569444662600e+00
1.307474367746896071e+00
1.391572279301079629e+00
1.465162339953332671e+00
1.357148394769851718e+00
1.359152229054979344e+00
1.208339838950166945e+00
1.202254531704586293e+00
1.096283656608673995e+00
1.016212846326052244e+00
9.386109271782911989e-01
7.910133383694682996e-01
7.062816095534191208e-01
5.535074308156987533e-01
4.336617482344463648e-01
3.838813409066711424e-01
3.225603059536134021e-01
2.287164795351133151e-01
2.314295806803752242e-01
2.335735112551675652e-01
1.510558578567096910e-01
9.764422200725356160e-02
7.931258761076302732e-02
1.055369014540072370e-01
5.938580227194422551e-02
8.019032105522821974e-02
7.062151819457998525e-02
1.217827463716937009e-01
8.560973814536067261e-02
5.875195905844116107e-02
1.060645867829969058e-01
4.962494074420611273e-02
9.621476827096850371e-02
5.984076100376216345e-02
1.205871902926363703e-01
9.866570354263265452e-02
1.501584070578685648e-01
1.454821669550622754e-01
1.341139047423106911e-01
1.423764266633322784e-01
1.644901864478903464e-01
1.341192705220384807e-01
1.801582542264242304e-01
1.534026297134051253e-01
1.821858612603702854e-01
2.200085108370129494e-01
1.329982793811844977e-01
1.019056336465709867e-01
2.164913503587283794e-01
1.663162684758091037e-01
2.104824077319964459e-01
2.581092101870652300e-01
2.372069657095824957e-01
2.280246289422780404e-01
2.401828302205067101e-01
2.368684052687627661e-01
2.567487733437190944e-01
2.540468614639786460e-01
1.618943933423916681e-01
2.868806130448989244e-01
2.132368788112168068e-01
2.471210796630390061e-01
2.581394128172010416e-01
3.125137739741276066e-01
2.402269397869501444e-01
2.760937864199150549e-01
2.692013018025252169e-01
2.663702393320271367e-01
2.655081926216757426e-01
2.567796844468969719e-01
2.875453404386508760e-01
2.695700939988593947e-01
2.659309126755649011e-01
2.842886425978531362e-01
2.146560599551466109e-01
2.616239362655540246e-01
2.138657951189407713e-01
2.467458615578779768e-01
2.389616352165514768e-01
2.283524731530985341e-01
1.943455640743479984e-01
2.342870093609369930e-01
2.133621810602538138e-01
2.216854482992157704e-01
1.371500077151626695e-01
1.931347433752313159e-01
1.647808641181688627e-01
2.116430823950931628e-01
1.909371340215923196e-01
1.791544140046015254e-01
1.623949617788897903e-01
1.140022832327553526e-01
1.417381675398698693e-01
1.079143610470524040e-01
1.288753689064460750e-01
1.511472205001176405e-01
1.272066877833606668e-01
1.298008165112461421e-01
1.360299836963210218e-01
9.233248068477478698e-02
8.457693137524964488e-02
1.546389867054246414e-01
6.994456191840082993e-02
6.858238060408382297e-02
9.582078349054803934e-02
8.927890483076486583e-02
1.555819632841446976e-01
7.826629693112893693e-02
7.666358518529148292e-02
5.218112727720403132e-02
9.583237584770279427e-02
8.914878989058842851e-02
6.321690792156975380e-02
6.058109466950827721e-02
7.155774765635937451e-02
8.872595040523320598e-02
7.651778129837438769e-02
2.055670053070270467e-02
5.404544574574135507e-02
4.515571574271039224e-02
7.666840807871920516e-02
6.176362893482924277e-02
1.500658000532963977e-02
6.415064056431730999e-02
5.464383319204964284e-02
6.948716272612825984e-02
5.406282539505035539e-02
-2.685997596974252707e-02
4.103719860633862210e-02
-1.167300787743380530e-03
8.663169122141702039e-02
-6.388856989204709513e-03
3.052582503762299102e-02
2.493096934506795065e-02
7.749398221939231279e-02
1.435455105106413567e-02
-1.743677716184813264e-02
-1.532747011962422301e-02
2.133791338491397571e-02
3.143738509651235191e-02
4.324538147672297994e-02
2.309621505328417201e-02
4.765478705545712207e-02
2.191263586893393497e-02
5.342679848364049328e-02
3.776259335312391607e-02
7.669372832427628905e-02
1.303082277475868245e-01
1.182788164864621849e-02
6.122646690613690185e-02
5.023748409047378016e-02
3.807959911476205273e-02
9.201836578040646641e-02
5.193907453394419615e-02
3.200446397307521451e-02
8.006149044137111925e-02
2.001180600478434657e-02
8.604895781318055992e-02
3.156476639286306951e-02
5.126224177019361034e-02
5.969969019280498002e-02
4.763111168754140951e-02
5.520395898029088755e-02
1.304502614448664055e-01
1.166762012950275373e-01
1.306324013363268088e-01
1.185593415736630740e-01
1.360289986762623915e-01
6.645631586042230476e-02
1.393000387096601789e-01
1.778886129413128070e-01
1.702447510271869746e-01
1.819105261847223098e-01
1.827746841531744382e-01
1.567369592472283302e-01
1.311105951690633709e-01
1.864117366181154145e-01
1.625151859446398173e-01
1.989927798513634327e-01
2.063028927823841174e-01
1.676019036551406050e-01
1.329082488206184687e-01
1.984271926543996478e-01
1.551400688999162170e-01
1.867192486464371304e-01
1.699360551496587046e-01
2.005764669410222134e-01
2.420079334927593140e-01
2.293878181145666550e-01
1.447119135528820155e-01
9.467210282842770941e-02
1.531861938342957419e-01
1.646898983894536650e-01
1.187499230896900682e-01
1.542932917377197732e-01
1.769285369598154189e-01
1.949394615968928213e-01
1.221185128463573716e-01
1.144292990678744404e-01
1.565512634834826944e-01
1.283000982573567206e-01
1.797302541962251254e-01
1.706161417295964655e-01
1.819267651325738866e-01
2.006357171838814846e-01
2.172293548331453716e-01
2.933840212892627752e-01
3.779213213009092742e-01
4.450576883860153377e-01
5.673066038913068265e-01
6.220310467050564895e-01
7.572395184677177538e-01
8.075158905784632912e-01
9.466302273515057042e-01
9.949633039957056502e-01
1.126891743858865036e+00
1.268715138440620782e+00
1.353577628417713896e+00
1.349744851929791656e+00
1.469360199154422730e+00
1.501822186433223516e+00
1.462663205131611965e+00
1.419211981052209914e+00
1.300263377916920593e+00
1.288357701186497062e+00
1.259696697262598031e+00
1.103277684365828737e+00
9.407593723847412770e-01
8.637529602799685069e-01
7.862970304798827526e-01
6.395990824289766730e-01
5.617546790778396026e-01
4.059605185959500595e-01
3.411435319986240722e-01
3.231917727877924307e-01
2.442334032969498969e-01
2.537954095102112340e-01
2.459432471011301635e-01
1.954784966792967316e-01
1.187621760522989955e-01
1.575228852171537963e-01
1.800369604037518334e-01
8.388895078003269501e-02
9.777276953854197039e-02
1.427868078962154508e-01
1.723119368804431617e-01
8.574191717831226855e-02
1.252886702766061733e-01
1.535308109250853592e-01
1.194989225361382523e-01
1.370793492757942655e-01
1.120471319221240658e-01
1.765299638523892822e-01
1.857948410991332455e-01
1.624860316593253473e-01
1.821077802614788632e-01
1.748470615118108695e-01
1.848705347232033613e-01
1.742192373750666712e-01
2.132239079082568489e-01
2.262687150983402895e-01
1.827695059811244305e-01
1.660727368553095440e-01
2.141536603654085880e-01
1.908534900879478025e-01
2.099938241414824047e-01
1.997999779817422605e-01
2.031061640967429804e-01
2.488266751435135593e-01
2.200478788651346884e-01
2.860155474072583748e-01
2.613621265617239731e-01
2.474260898245891349e-01
2.467351548661957106e-01
3.006224472650687041e-01
2.791765266776204957e-01
2.454492870828434148e-01
3.223882650606875733e-01
3.060884648577659739e-01
3.118205290461966150e-01
3.219177072676270845e-01
2.600882611549782952e-01
3.615258860255704532e-01
3.302569907105226132e-01
3.360754913180159509e-01
2.984424931499023437e-01
2.876123939026190568e-01
3.031291407502336166e-01
3.145287548890856044e-01
3.212260019242703657e-01
2.918849482694155228e-01
2.821995910399409668e-01
3.255310227066630091e-01
3.129098121864749005e-01
2.723907041698629405e-01
2.588110465800105287e-01
2.613071116408645089e-01
2.583999262753170489e-01
2.961611102053326450e-01
2.543121252522240749e-01
2.412828251252989997e-01
2.182286690738656221e-01
2.314120785489510446e-01
1.932300169065275797e-01
2.420399675031904285e-01
2.219104716054021709e-01
1.674613250776025852e-01
1.579771065839000455e-01
1.689499215379066388e-01
1.244664768634082541e-01
1.703444309752683572e-01
1.999573215322687780e-01
1.583834944849001891e-01
1.767035912890175531e-01
1.434773841857781007e-01
1.402446956126636168e-01
1.491325966942585457e-01
1.948793279136882828e-01
5.414855958521817836e-02
9.986032727086967264e-02
1.317322538902357398e-01
1.333301939350046150e-01
1.008894628006176131e-01
1.224711491766271726e-01
8.308424982708800810e-02
6.883477606492691137e-02
5.855072567830660324e-02
1.301816447460005244e-01
8.702749642749893488e-02
7.680710325298709118e-02
7.117545576935968565e-02
7.543220472015171874e-02
1.065689713790993198e-01
9.459287615075917532e-02
1.166985262810954216e-01
8.148866156870698818e-02
1.662648285345999510e-02
2.269903912768667098e-02
8.329212273549604917e-02
1.660858436404415162e-02
5.307158630561047141e-02
6.873525492206830623e-02
6.021092744833267396e-02
4.999521288808390224e-02
4.313684615507271808e-02
7.880978262473882501e-02
-1.441236721910929552e-02
4.450872256358788526e-02
1.029225779983630740e-01
2.962842951125852636e-02
8.842044519597522245e-02
5.046397041190930910e-02
6.001162892371324914e-02
3.732316980470670731e-02
3.261365266224581366e-02
1.141550929365812567e-01
8.562379939646458382e-02
5.073749705736187166e-03
1.004870452823565796e-01
5.817317205498690608e-02
2.790776385106631327e-02
1.706978490393010889e-02
4.697960704337126453e-02
2.107563775704565656e-02
3.782627583306812785e-02
7.238371123824897946e-02
5.342497191987892469e-02
5.937149777584196930e-02
9.854260720809904228e-02
5.963136320521705835e-02
3.835318329302320195e-02
8.637420291781035264e-02
1.087305459594338081e-01
5.487304793808378545e-02
1.176958696928510628e-01
4.431341602330563650e-02
1.171020054378517639e-01
4.781376625859745655e-02
1.043585350632627723e-01
5.613755016409036763e-02
1.122559786691953165e-01
9.206699357228895209e-02
1.378299037923965409e-01
1.410899594218875119e-01
1.484457252246449144e-01
8.802427369225238052e-02
1.706481179150017846e-01
1.669470271271057960e-01
6.957983299303943658e-02
1.240590204840596178e-01
1.786822543658114770e-01
1.312009450977585923e-01
1.667326409397044129e-01
1.622167860653263571e-01
1.768742377283646361e-01
2.086345938427176527e-01
1.757041941646604599e-01
1.634871041295786476e-01
1.937916051684994145e-01
2.206051410158295922e-01
1.926300033998803174e-01
2.330425417944866906e-01
1.769483029308450417e-01
2.782696021312431878e-01
1.975961906836051774e-01
1.292691447131774918e-01
1.610111881106992548e-01
1.585182370250125816e-01
1.401035755300725494e-01
2.167184801486318757e-01
1.618709766792568727e-01
1.400974846109798722e-01
1.364165315511654264e-01
1.673951138382292203e-01
1.104056494748659745e-01
1.798671289508113058e-01
9.925416262332439898e-02
1.702343709808299133e-01
1.920642351039241746e-01
2.144191297519637274e-01
1.688648932853916707e-01
2.635639794531901559e-01
2.736345346220557806e-01
3.194385324754974165e-01
4.205374901820196909e-01
4.622768230288386571e-01
4.886632810298219276e-01
6.139497638518230938e-01
7.009234321092779885e-01
7.920450274545984826e-01
8.884190241808891386e-01
9.529263958357886422e-01
1.093953131137188617e+00
1.235805112460798938e+00
1.224324970595323858e+00
1.347897528745976015e+00
1.474289499556454830e+00
1.427465445414044520e+00
1.430035909730380750e+00
1.414942484488328267e+00
1.344941885945369897e+00
1.262302945448281255e+00
1.169532921207819154e+00
1.216882282688562134e+00
1.027957784838644972e+00
8.743604485483646993e-01
8.195066649016280458e-01
6.817717403682310717e-01
5.585146194694154964e-01
4.846651851244380138e-01
4.032047075416377302e-01
3.498806532110311229e-01
2.367562155949992364e-01
2.077289549240871058e-01
2.000147359543957004e-01
1.753023657266117585e-01
1.059297703631597032e-01
1.300911362597299004e-01
1.188385363725538851e-01
9.116455061470055132e-02
8.073562225787930813e-02
1.064819063848180258e-01
7.974036368511275286e-02
1.026505464889551356e-01
1.113439593970423080e-01
1.146486645015163397e-01
1.431106233036053832e-01
1.234705842810508714e-01
1.336770561424208970e-01
7.891190140100121098e-02
1.003980647188785769e-01
1.415499499773328895e-01
1.943904312246979849e-01
1.601576757259222106e-01
1.820276248830069166e-01
1.352301167844949248e-01
1.458990354111288357e-01
2.049687118290337562e-01
2.148414272822736504e-01
1.987331054230942473e-01
2.036992279478057610e-01
2.197937299564864388e-01
1.982843642363355252e-01
2.242999164683791291e-01
2.718043118219844456e-01
2.294597212199376568e-01
2.422944814849105621e-01
2.483076926562519937e-01
2.572845919427786399e-01
2.383922352014149482e-01
2.860387228390336989e-01
2.272722775637803228e-01
2.626381780169540492e-01
2.790120863436198473e-01
2.289724909140802012e-01
2.758863549237106083e-01
2.604836518768212095e-01
2.466820609072523096e-01
2.321218187027018209e-01
3.131448497101615436e-01
3.218114070327096066e-01
2.586488743100415766e-01
2.713126043418105371e-01
2.455048704463832498e-01
2.160014873711510464e-01
2.832797182504137035e-01
2.526223888161104880e-01
2.200098148246890650e-01
2.746081580669677003e-01
2.379239349630318523e-01
2.303146070424350045e-01
2.405902372748139895e-01
3.109771973504749654e-01
1.898273881978261857e-01
2.525296695809199909e-01
2.712388665427478140e-01
2.482199935375317412e-01
2.214384603633182125e-01
2.395615288494480632e-01
1.798056147959748441e-01
1.931428217314681006e-01
1.248858884714720840e-01
1.577823833893800820e-01
1.804213565812793352e-01
2.155136926313989398e-01
1.595552778540502425e-01
1.583616327238817068e-01
1.477385980512557762e-01
1.275363724215353989e-01
1.363652943686431418e-01
1.126986503583121135e-01
1.566678437625463050e-01
9.186042732157498336e-02
1.204630011831571423e-01
9.396501640813809120e-02
1.160092175055594671e-01
9.864251926049524832e-02
8.729000213456482304e-02
6.722556020251374553e-02
1.008194197567603145e-01
1.009032713192673653e-01
1.051722419675539533e-01
2.930594768664098945e-02
-7.359800732929779044e-03
1.337604608667675721e-01
3.491913469806746245e-02
