1.429080627610614274e+00
1.447139115995835557e+00
1.420971102276648024e+00
1.335012165379483973e+00
1.225992333989607275e+00
1.187995462582670747e+00
1.068121569959310513e+00
9.694984260198851178e-01
8.144400690640317686e-01
7.249080869850119679e-01
6.542570959185832757e-01
5.549338251740795203e-01
4.418611866804104671e-01
3.892956092935657142e-01
2.712523753188647024e-01
2.820578359107405730e-01
2.119609836990965224e-01
2.143546644642362886e-01
1.079759066658980554e-01
1.094575882952319862e-01
5.680098287084676956e-02
5.020629557778545637e-02
7.696283765891057116e-02
1.235624175530945501e-01
1.696395841168731045e-02
6.803283850800233290e-02
5.536289544239405419e-02
1.139664507984799180e-01
1.130612530753766359e-01
4.729983759427060924e-02
4.112911204192257891e-02
1.271871939303800825e-01
8.076161782566396163e-02
7.885884443888525885e-02
1.085543968739786647e-01
1.178101667623884657e-01
1.714553053230236657e-01
1.471374232484091160e-01
1.531554873825423102e-01
1.317034939923074632e-01
1.706538202747593935e-01
1.666862657366887934e-01
1.734390161903803795e-01
1.875872143618436128e-01
1.679598025471569223e-01
1.973931315026400679e-01
1.821907276363900485e-01
1.803666165100468177e-01
2.356609443193428688e-01
2.621363107003014670e-01
1.919965045044394192e-01
2.141565548113951445e-01
2.575508509866124007e-01
2.790600772590540735e-01
1.910976420274721754e-01
2.406897341729183348e-01
2.817976157353474509e-01
2.449092210359749833e-01
2.687584539459953459e-01
2.425086455545263642e-01
2.588719823685878829e-01
2.871851359380015456e-01
2.432766168493095127e-01
2.380013747133647162e-01
1.806161335154554126e-01
2.156756213655225130e-01
2.498505092211392442e-01
2.568972851492597465e-01
2.776701959030568601e-01
1.906061722624176058e-01
2.670339344451791441e-01
2.615895276853197893e-01
2.739601127449288742e-01
2.603499360248774375e-01
2.405998143225947239e-01
2.482159356856731836e-01
2.245633750056580391e-01
2.265441406484272613e-01
2.145975861577891219e-01
1.852521289772770807e-01
1.915232832753497039e-01
1.354571317842192535e-01
1.706283228254066864e-01
1.774752148402095053e-01
1.875795707373156262e-01
1.112105663720514004e-01
1.005812355019502224e-01
1.243183023138390991e-01
1.604457438652094059e-01
1.637985461383151820e-01
8.454582501798571514e-02
8.496535621059742027e-02
8.680523604590130449e-02
9.077684958339146681e-02
1.168323084688074054e-01
7.034910250326534276e-02
1.124468198152673987e-01
5.384234363916556854e-02
6.918541637179077830e-02
6.818248370678968440e-02
4.913652300330444145e-02
2.966062645660172414e-02
5.961105120009808911e-02
3.099910578067860065e-02
5.794603464489496425e-02
7.865526731447015918e-02
9.337774683485709770e-02
-2.374886188649358992e-02
1.769476000266527807e-02
9.193326773651948336e-02
3.743518867767992725e-02
9.432540200820576856e-04
2.216037555157784888e-02
4.845180115074562699e-02
4.106734827850420932e-02
-2.548607676720667306e-02
2.976382915569140628e-02
-2.293914465622200888e-02
8.268955452697644704e-04
-4.314613702907342530e-02
-7.812226918472806730e-03
1.428490130309955849e-02
-5.415358098607222365e-02
3.477345775068460543e-03
5.753747612855781429e-02
-1.357057302326863946e-02
-1.859697950395768073e-02
1.453182408853480323e-02
-6.177710796632176343e-02
-3.280694136347993284e-02
-6.077935344369361607e-03
-1.223749250621518868e-02
-3.686635903462574457e-03
1.954057850628198451e-02
-1.525960578196901285e-02
-5.360618311619790022e-02
-1.388829886465257901e-02
-8.034128160410325403e-03
1.701469909107874642e-03
1.412492196041311050e-02
-2.597814233708489046e-02
2.267895442401356154e-02
-5.840987466196199962e-02
-6.103101865036038992e-02
4.076059373132066843e-03
-1.729439482660753355e-02
5.964072220594123647e-03
1.919529432867183444e-02
-3.270036717811293514e-02
-1.004895671163847683e-02
3.369561996530304193e-02
3.117402808231271513e-02
5.224477417966561649e-02
1.638610136148993882e-02
3.619267845177384646e-02
4.431571467399361003e-03
2.865970550962890911e-02
1.033473644471581340e-02
8.251354054156874451e-02
3.285319856199772626e-02
5.791874682929076812e-02
6.084339946233144336e-02
6.270497397175849030e-02
5.502795682803571231e-02
8.366659913137911020e-02
9.516373339895389805e-02
4.981794001396748495e-02
9.264544414373042380e-02
8.084605395825761320e-02
5.495985687995533220e-02
1.037599496540519278e-01
1.369577386267105124e-01
1.405880377570024320e-01
9.968778310423057065e-02
1.240998506932511486e-01
1.366943753266850192e-01
1.592020638954154410e-01
7.058053875868530724e-02
1.475122210542076651e-01
1.371367825285577102e-01
1.737885253395530238e-01
1.293395191749147632e-01
1.714822283618062937e-01
1.132376773536254572e-01
1.297207556597185230e-01
1.124583835600273113e-01
1.577123400301747025e-01
9.755659392937972296e-02
1.035791638639995127e-01
7.087057440389200880e-02
9.162048221178763219e-02
1.361945299067264525e-01
1.052322279058542226e-01
1.087562702763569950e-01
1.193169491796595982e-01
5.694355137910912801e-02
9.345706256766095343e-02
1.125410371804965864e-01
1.355128028351723635e-01
1.136257917670567136e-01
1.258578264361888410e-01
1.739169543707476673e-01
2.584441580072014966e-01
1.910788914124554871e-01
2.784538434942129270e-01
3.650652220090224165e-01
4.538154234302440582e-01
4.712912782006915546e-01
6.321871661421351041e-01
7.210296090202101826e-01
8.500785360454511386e-01
9.989881204656424485e-01
1.023760822919016267e+00
1.190392646805959798e+00
1.194147166760655132e+00
1.308254488873868748e+00
1.344746205221887481e+00
1.370769473629706248e+00
1.398978449142843195e+00
1.381978737777278310e+00
1.326753786556501780e+00
1.227346172699266713e+00
1.203019053631380730e+00
1.029778115589000009e+00
9.554921281603576677e-01
8.204323228968610771e-01
7.142814969571812389e-01
6.549292509159568842e-01
5.391114699089925022e-01
4.401733451127863850e-01
3.530324426593296483e-01
2.707050451118671042e-01
1.865934974803505619e-01
1.960940549840993197e-01
1.160793690081816376e-01
1.440597019811319102e-01
1.356751517446420918e-01
4.274063556978912465e-02
5.673047606795452585e-02
7.823140661478471258e-02
4.633654460507621170e-02
3.113961458744518573e-02
3.438606906850341649e-02
2.162070342146304308e-02
6.268043775257758909e-02
7.085903066095425307e-03
5.650124999746580085e-02
4.304743746360347595e-02
9.392957997514228552e-02
1.716490052602144545e-02
5.313527055488616313e-02
3.712722533352254967e-02
4.147706735157535851e-02
9.927155876547047453e-02
8.824843758621045420e-02
8.241459561049793714e-02
9.560169992790254478e-02
1.407541497202858816e-01
1.391993864670517667e-01
1.442604166544554367e-01
1.719893781183794712e-01
1.197329750512516888e-01
1.470364033747056931e-01
1.548102389913785792e-01
1.932373868883851542e-01
1.596576487393265020e-01
1.674800475744219752e-01
1.299557305415734998e-01
1.113767339378634452e-01
2.340826583551118001e-01
2.302989504189956183e-01
1.835982006847300396e-01
1.794130211805687880e-01
2.110078753273302576e-01
2.701118349671026708e-01
1.902823481684044193e-01
2.268560321220789433e-01
2.115319677212204874e-01
2.004178528519676705e-01
2.249949903053957978e-01
2.382598433475220656e-01
1.943805820275402163e-01
2.032121188235381237e-01
2.612557705986861545e-01
2.184826735298359690e-01
1.740176667839154756e-01
2.160376997765796059e-01
2.414535516359907485e-01
2.121031693937120433e-01
1.276947396356966635e-01
2.241761129262531682e-01
1.213509170814330851e-01
1.568494673091924696e-01
1.320140328973917754e-01
1.441089093669118970e-01
1.749393409621133599e-01
1.603722827028054021e-01
1.824522075973343260e-01
1.566251421208126327e-01
1.782675143821919328e-01
8.452373507447970280e-02
1.013325251524244408e-01
8.087287573301163435e-02
9.373027776513412346e-02
9.040777163596482036e-02
6.663842835139849319e-02
1.465894593916870770e-01
5.337676971391240588e-02
-3.020090749792120333e-03
5.502807170621931698e-02
7.178931597852752922e-02
7.023438969738907134e-02
3.524898894730368187e-02
5.243398637879626706e-02
7.914342105995465781e-02
4.697803746493360577e-02
3.123622545199717521e-02
1.708419467088712757e-02
1.663916532850898827e-02
1.575641851857204762e-02
4.100339648125048142e-03
1.291084232050437181e-02
-7.523435828693682270e-02
-2.445342591274111965e-02
-3.292975640552124605e-02
-5.001585342847947313e-03
-4.813528806315421626e-02
7.932793854280584256e-04
-5.353396004404398223e-02
-1.735499547762774097e-03
-2.533788496610512447e-02
-3.069507140127200606e-03
-9.447598293303727246e-02
-5.958556222870443897e-02
-4.345895685901002281e-02
7.416176040425229155e-03
-4.839548522725325985e-02
-6.392542972122559897e-02
-5.855148812709444484e-02
-3.109110703209880949e-02
-4.662598632531948784e-02
-3.167980938870779140e-02
-3.406932672130602580e-04
-4.283127601817688507e-02
-7.182324343362764263e-02
-4.321835048698902115e-02
-3.622491269878189840e-02
-6.200785236646654680e-02
-7.815412665150417437e-02
-2.808215722119174890e-02
1.834433678763798536e-03
-4.905787669458615274e-02
-6.990493248334109233e-02
-4.741719641573833438e-02
-3.772879892897987308e-02
1.597108099096147121e-02
-3.636674477412138451e-02
-8.047994350768859773e-02
-5.709610544882911393e-02
-4.131292030535847759e-02
-5.498822945407114138e-03
-8.949138496974257118e-02
-1.403144100888644580e-02
-5.455734599224594528e-02
-6.863423592404670204e-02
-1.771043920744914957e-02
-1.522418745644739391e-02
-3.827334225428413728e-02
-5.526525897250324226e-02
-1.091347531636926993e-02
5.952032542318463904e-03
-5.388927550159999802e-02
2.760849443370499978e-02
2.990891333527348483e-02
-8.297278515076006444e-02
-4.143158565078811084e-03
8.432529445373256050e-02
8.698245918534749932e-02
1.270893725397265195e-03
2.012346688581694021e-02
9.575919261636686719e-03
2.851726121259043345e-03
4.713053084959637623e-02
-1.081548523148058438e-02
5.062607137508532557e-02
-8.978157594308797118e-03
6.120792326508468079e-02
4.761124430988344230e-02
4.796740756617566548e-02
1.044465302108638916e-01
4.174987195338297763e-02
1.080880571397690171e-01
1.167031456186917726e-01
1.294169608546898442e-01
1.442035144641612143e-01
1.447432172598523969e-01
3.921041643491301326e-02
8.026661701076703848e-02
1.555675635273569557e-01
1.900284486804203199e-01
6.806023705834905735e-02
1.010233342512514565e-01
1.306892157911921926e-01
1.023371382080355413e-01
1.232603129138356707e-01
1.221168345892052753e-01
6.621722909267482859e-02
1.163028611374176957e-01
1.992523816160704508e-03
5.767141922635642126e-02
5.716056608530992178e-02
6.177835772428910688e-02
8.104597148358380632e-02
3.449493867323038393e-02
5.354094412811538639e-02
6.034091364794041956e-02
5.351566676782648635e-02
8.475118754725735615e-02
1.248359164950569589e-01
1.826604202978471814e-01
1.687255636091609667e-01
2.471622695964139915e-01
2.685561179745634131e-01
3.845755740182010274e-01
4.365770576919613122e-01
5.429465927582948215e-01
6.658953558443053700e-01
7.976544525524156271e-01
8.926190828630787832e-01
9.911040390908533171e-01
1.122334049279700707e+00
1.236655529333522852e+00
1.242431571769846199e+00
1.331070609098622182e+00
1.354746379234620157e+00
1.396035412434601275e+00
1.364980889253211593e+00
1.298618686199825234e+00
1.281878536787422362e+00
1.268594450776577842e+00
1.098180707078704632e+00
9.351223048897204793e-01
8.796418481296301994e-01
8.080576998695182533e-01
6.759685525255934024e-01
5.451233337245897648e-01
4.570141526924009212e-01
3.116981121591321235e-01
2.902749479336672045e-01
2.943073211499007691e-01
1.464930810120957383e-01
1.298252851326036628e-01
8.550896199020846522e-02
7.412993378844172365e-02
6.700563224793962269e-02
1.407350544148146948e-02
1.609785765832937032e-02
7.170917165931239845e-03
2.051479859509532100e-02
4.468987032534878917e-02
-7.999974754016377088e-03
-6.248693311587110583e-02
-2.157808888818515958e-02
-5.197896491526778073e-03
1.477547232150734635e-02
1.702995494611160565e-02
7.712586967038574659e-03
3.228824575095105148e-02
9.201603728245244529e-02
3.969364541074137109e-02
5.768893373295279348e-02
5.552403723202996993e-02
5.500464915077660916e-02
8.955212980649307486e-02
7.553763076221770012e-02
7.422485704482523206e-02
1.308605745965360778e-01
1.331166925789491751e-01
9.400069502728072846e-02
1.026657169562857352e-01
1.355366121779970623e-01
1.746304738499250830e-01
1.796317408384909275e-01
1.947461380860959768e-01
1.699765946045518616e-01
1.292673501888255416e-01
1.305645734878377873e-01
1.787744317958208373e-01
2.149355051953550089e-01
1.489599217326418867e-01
1.956003889521981121e-01
2.032743168508566178e-01
1.657193307585689557e-01
1.417127090711860493e-01
2.214840897676363107e-01
2.319910303088442705e-01
2.018982412428959039e-01
1.910159108072048695e-01
1.911873617158511562e-01
2.122845833216659150e-01
1.834151703580789716e-01
2.125971198644435456e-01
1.793382764317671962e-01
1.710498802551357334e-01
1.518768085173967108e-01
1.828298656322631388e-01
2.205514936139186810e-01
2.171651706044578356e-01
1.457533209480912084e-01
2.032693195223397309e-01
1.787335137494851511e-01
1.995786339448298585e-01
2.130171106133388059e-01
1.348500530559560429e-01
1.118519959790506557e-01
1.987798488003385267e-01
1.278832830514842755e-01
9.814458169685266742e-02
1.200173270400399644e-01
1.041036617504628170e-01
1.420998288027620626e-01
1.401746401589206714e-01
5.437805529067089860e-02
7.556813878319540434e-02
1.028387093984961531e-01
9.417873589222844344e-02
1.103028039731689808e-01
4.786905069197325974e-02
6.485367880890266501e-02
2.787717984444958164e-02
4.460329365189697609e-02
2.545464941740406550e-02
5.903229693328926331e-02
6.578159092122830287e-02
1.844787703998496814e-02
1.224596735875033149e-02
-9.471361115201415437e-04
1.299216240890186530e-02
-3.447012156665270333e-03
-2.707725560769849715e-02
9.317024169367985054e-03
3.407108040201695803e-02
-9.103433724610355410e-03
3.539682926279602571e-02
-3.226212570600779650e-02
9.390995572883337195e-03
1.759316575324373910e-02
-3.553834724722459287e-02
-8.796156159420101539e-03
-9.657350094783138245e-03
-2.315657030600435165e-02
-1.418623381928620780e-02
3.739242909926249192e-02
-3.823805714165591507e-02
8.043900539163727215e-03
-6.503387497632544256e-02
-8.806827455828342144e-02
-7.658983925390019237e-03
-1.004336377678753112e-01
3.914144962078718731e-02
-7.923651398327566375e-02
-5.539597415410640185e-02
-9.327934754874775414e-02
-5.270509493911117171e-02
-8.749414269278718570e-02
-2.273740620073914226e-02
-3.440246268159453252e-02
-2.209721890225858562e-02
1.274441999756025651e-02
-3.071144601517009423e-02
-6.117761337459614451e-02
-4.912160502364663894e-02
-5.295935120270718610e-02
-6.674953972647706957e-02
-1.939677601824218653e-02
2.400499742479195869e-02
1.456244685102157932e-03
-4.460312352152725340e-02
-1.616170941889371465e-02
-3.650632737455169335e-02
-1.694457315152138321e-02
-4.522752544056554691e-02
-4.241774061291800346e-02
-3.951327586302145339e-02
1.222133995890289579e-02
2.459748522108141586e-02
-1.639120820691956221e-03
6.715852353041398826e-02
-7.360339344527799116e-03
-6.151751480228227070e-02
2.970883563516754297e-02
2.505732031967446150e-04
4.940008502408753388e-02
-6.377502873366670821e-03
-1.854551817467336994e-02
5.331995420654322970e-03
3.211266219064612404e-02
2.064573531943960510e-02
6.025057165825782601e-02
3.467900183129511704e-02
4.129612756551993141e-02
8.239047109453287443e-02
7.488221319414239963e-02
1.133215162490962269e-02
1.126211587330328001e-01
5.973538941199278696e-02
1.112531383957757747e-01
1.232617706831904553e-01
8.533970337067711687e-02
1.081502272981842150e-01
1.298134985329706670e-01
1.184799410324619967e-01
1.141381696328121892e-01
1.811355050872936467e-01
1.078471353993453452e-01
1.324414347102690903e-01
1.208248038405090458e-01
1.381417406463094910e-01
8.395033296996298744e-02
1.366123357083905698e-01
8.950255859338590581e-02
1.584162529342079684e-01
1.425149525217258017e-01
1.353448711254556791e-01
1.040377586001515198e-01
6.714805310174608299e-02
6.115197340335577075e-02
7.902406879696412256e-02
5.946378505623402255e-02
5.583974096743049564e-02
9.353017004568786597e-02
7.462033646859733693e-02
1.683015408178495653e-01
1.312466510872199454e-01
7.843566196277229619e-02
1.005619371680544633e-01
1.404882414966390214e-01
2.004888109939476082e-01
2.282114471619455243e-01
3.150462315793066126e-01
3.720370237103666766e-01
4.541135712920165712e-01
5.382643391288729484e-01
6.261547713103906565e-01
7.034118749381931268e-01
8.096055574770557595e-01
9.149836995224092107e-01
1.059291332211350189e+00
1.171019368035676411e+00
1.230268977688504517e+00
1.308041560909740220e+00
1.396089970464590824e+00
1.449514703728255638e+00
1.421390470575055964e+00
1.373297623839509152e+00
1.313068976671674992e+00
1.295505393583872733e+00
1.221758895120368615e+00
1.103386508208336281e+00
9.811001141638980849e-01
8.787191659818412992e-01
8.225369633781836054e-01
6.331713633369449035e-01
5.793894879731928960e-01
4.634673586778433330e-01
3.701276322933589324e-01
3.293492136787378177e-01
1.957044223427651664e-01
2.239491930193137359e-01
1.937384500748227656e-01
1.174800523307449746e-01
9.312089782539792471e-02
1.094613231415378779e-01
9.422663367888553521e-02
3.391009596935821990e-02
1.075310773626976524e-01
6.517331635833376047e-02
6.443929011409037233e-02
2.873753410322034060e-02
5.151280777747684753e-02
8.640741496863174609e-02
8.488667734226898465e-02
8.682099710574088525e-02
1.271927442138936770e-01
1.094984373628461460e-01
6.557859175092513315e-02
1.249453866024801546e-01
1.414436512125639422e-01
1.262535797086888900e-01
6.273696027897200655e-02
1.259695030587015541e-01
1.127520523889906368e-01
1.448231424411662582e-01
1.973954356042504910e-01
1.791775875135327156e-01
1.677812898598793623e-01
1.535703265069558732e-01
1.418384934382607432e-01
2.734064716430328890e-01
1.831457215489533386e-01
1.588991611642058543e-01
1.379707754356621630e-01
2.331155527150452489e-01
1.758678562171034909e-01
2.160013992288087603e-01
2.161617806736668146e-01
2.727945457650714500e-01
2.484065589721595191e-01
2.816972744114838445e-01
2.562425510171404408e-01
2.204150956610469447e-01
2.783842100886674276e-01
2.567411271918059179e-01
1.852461856432676413e-01
2.828582693517459612e-01
2.346954563737555233e-01
2.437506725694604248e-01
2.243416446957008925e-01
2.582761258081977540e-01
1.881935989295458467e-01
2.189826577600511304e-01
1.778517619549327411e-01
2.181883451234810090e-01
2.183849510760296209e-01
2.405111786102253624e-01
2.421120126797226824e-01
1.917998475843850636e-01
2.061234396909504829e-01
2.059189581297936333e-01
2.020944233294656167e-01
1.684915585116444625e-01
1.798396977023900278e-01
2.259683788458160536e-01
2.148720341425039704e-01
1.522923925595933425e-01
2.042290181026343021e-01
1.559107420463677895e-01
1.669826208635622200e-01
1.665353626109148943e-01
1.383621474140752095e-01
1.014216678951359585e-01
1.288109146054859377e-01
1.369656733022956985e-01
1.435723921082884547e-01
8.527394047490298445e-02
1.439829764646288202e-01
9.504925862291369043e-02
1.416115972625981434e-01
8.400861564247044666e-02
8.572068200240411107e-02
5.238728571814511153e-02
6.488806016124608333e-02
9.398709692562917661e-02
4.778365196871730419e-02
8.464989774612757811e-02
5.956307681822618078e-02
4.449466797562075249e-02
8.012103546648041696e-02
3.858972542831340391e-02
8.768631092654602388e-02
6.707125479132662604e-02
1.325264719239442612e-02
7.743073406310679863e-02
5.178540936087822066e-02
4.664577311583358032e-02
-9.141825418088861399e-03
-4.563183982823762475e-02
8.413427603410925104e-02
6.415903954677161514e-02
1.596915750076067370e-02
2.793860183460421254e-02
4.194034011558168962e-02
3.321097274001968969e-02
2.558644375051654860e-02
6.441689811772476071e-02
5.457538826266399024e-02
2.966714876261986739e-02
-1.568119656868022932e-02
1.621537886731989550e-02
2.867873751416500847e-02
7.364987259971672584e-04
1.862035316319590045e-03
4.889211833851074551e-02
5.360888914825748253e-02
2.346224815770151656e-02
2.675938020721384258e-02
6.300957242621792187e-02
1.453598975393880291e-02
5.684621629619372035e-02
3.498673880253833079e-02
2.598205528046121371e-02
-1.976462435330223963e-02
1.302261407081834257e-02
-3.591250312518384780e-02
2.256769257831404280e-02
4.821163845481117594e-02
6.761027734102367792e-02
3.062310335040953346e-02
3.165449236623234242e-02
4.091603107698880970e-02
9.077123784355467517e-02
6.847014219364466747e-02
3.864072181003963546e-02
4.384230275790196307e-02
2.438091175242343422e-02
5.262874084662450686e-02
-1.706241141425598670e-02
3.643465318563406108e-02
6.126968377671543342e-02
1.539243030855892355e-02
2.911554333337580333e-02
6.639786510183692814e-02
1.102698945610922354e-01
6.115613554774108895e-02
9.544619689706779209e-02
1.015267865100263900e-01
4.462366800322960236e-02
8.063719386477471995e-02
1.302411631430767103e-01
9.061917608965960880e-02
1.025535941753788205e-01
9.929659261197050502e-02
1.669535940327350754e-01
9.619516905323180489e-02
1.738362146650550000e-01
2.145929282749315936e-01
1.894261596459194674e-01
1.378068994714430340e-01
2.242022747520151515e-01
1.955035757357530823e-01
2.149653160911440264e-01
1.623691662419185777e-01
1.604433342373010329e-01
1.878074946034879733e-01
1.258933727796927304e-01
1.994055817995675772e-01
1.923785918881363577e-01
1.611729775846807433e-01
1.599563386346023741e-01
1.784645064806463510e-01
1.276560420862652701e-01
1.746619903180388067e-01
1.249077050356152269e-01
1.155544926521111654e-01
1.208867480305519104e-01
1.370235202218509363e-01
1.300627001488864898e-01
1.350358725512968705e-01
1.212212679635886886e-01
1.065477931453356897e-01
1.615461869875566836e-01
1.281974609062794812e-01
1.580482284446928509e-01
2.254974019367270432e-01
2.305380603766465364e-01
2.626107890588717519e-01
2.692337990570278228e-01
4.261684971253778542e-01
4.159975971329467614e-01
4.832649257713020341e-01
5.845980830932255845e-01
7.446237741072131433e-01
8.006376658751414022e-01
9.624590558168648613e-01
1.047621569658580443e+00
1.165257673421375983e+00
1.247208331320049046e+00
1.335940480218970938e+00
1.354190652080619728e+00
1.460425896565661796e+00
1.445227306194122541e+00
1.455470992303136146e+00
1.444173458093852336e+00
1.359062933098544868e+00
1.226569125052172637e+00
1.242441157194434265e+00
1.178471071688431904e+00
1.045691606553074804e+00
8.990699682101429557e-01
7.425725620273401217e-01
6.925615668012093940e-01
5.803169654442684733e-01
4.719323774095260382e-01
3.256264554046732762e-01
3.544284009327063334e-01
2.549292063064720892e-01
2.325300332930346492e-01
2.024963006102099561e-01
1.879056822921805758e-01
1.341463103596182704e-01
1.634747609878803298e-01
1.333052474590177283e-01
7.196127838042892799e-02
7.900059271787907011e-02
1.212050980894059798e-01
1.328797711699128969e-01
1.000162802739369694e-01
1.541375885700693726e-01
1.394001398531283242e-01
1.088710479906205286e-01
1.451508826122062112e-01
1.321575685900911457e-01
1.653295780867654330e-01
1.254938128690695209e-01
1.148904340764845822e-01
1.420296738855056362e-01
1.902507941760449572e-01
1.694195550770772052e-01
1.658057661256298054e-01
1.805859044581557549e-01
2.100200102046821671e-01
1.902676736151225345e-01
1.755971009441079644e-01
1.994761707340455825e-01
2.719214211512484547e-01
2.172251920477254739e-01
1.657561040065620994e-01
2.491592237878090255e-01
2.523291476128503574e-01
2.443959566298997688e-01
2.901902513360826164e-01
3.303217207294596447e-01
2.085573423814151284e-01
3.222240745254530969e-01
2.555256029569948906e-01
2.484922949696766470e-01
2.613518195050701376e-01
2.452648720212229350e-01
2.959314201168216085e-01
2.730330551974067821e-01
3.153577328047390549e-01
3.019741638179443410e-01
2.905706828237279993e-01
2.783633455112405342e-01
2.840166989629216432e-01
2.938137154487524549e-01
2.726121751824390205e-01
3.342729796026758793e-01
2.588552114131845161e-01
3.240288650848784369e-01
2.789081343620939957e-01
2.565588285393807233e-01
3.075330572882408187e-01
3.040194475816400677e-01
2.857759687239235791e-01
3.014332212034793734e-01
2.119508463673404342e-01
2.242324980658593758e-01
2.151448675389155685e-01
2.241091311750715576e-01
2.312466972966533141e-01
2.015979911834025751e-01
1.936604567466681803e-01
2.403753442205863178e-01
1.928605550725781270e-01
2.095800647307465292e-01
1.843914353252776306e-01
2.216370917468146462e-01
2.356724935010397481e-01
1.026760590527550920e-01
1.476822933308077901e-01
1.578254382937944456e-01
1.979961311958163273e-01
1.726436239618268087e-01
1.217274831709176386e-01
1.410219360590052040e-01
4.960582735129780152e-02
1.414925425057829977e-01
1.846021748834888176e-01
1.474218039186885043e-01
1.673211896016284783e-01
1.190276626690534439e-01
8.150355723175621570e-02
1.272163981829942392e-01
8.006046662630891819e-02
8.095923563039560122e-02
1.279824253082352259e-01
3.981357198604422443e-02
7.972790620395081573e-02
1.150333719158401491e-01
6.656269429899486223e-02
7.358132013753218570e-02
4.359896385747621950e-02
1.216107961208283406e-01
7.827492749904726987e-02
5.372768957383856903e-02
8.321464121550481430e-02
7.364732580191511724e-02
7.106786095790643132e-02
7.372035186786812799e-02
7.520812245482991210e-02
5.584556092282885048e-02
7.974252945725518460e-02
6.493722852952688029e-02
6.967040281938419177e-02
7.649931161575117267e-02
6.163176295037468833e-02
5.530225902799065785e-02
2.211651517963547989e-02
3.851711789984903905e-02
5.196121014272602617e-02
4.952959403955236456e-02
1.107394026351879307e-01
4.304206475102188845e-02
8.432055553839232220e-02
1.588682395942120351e-02
7.494064008465305127e-02
4.243213413047634830e-02
9.501141163221898944e-04
-2.895893064414192114e-02
1.180542257261965045e-01
4.073478944661770851e-02
2.205080004750706313e-02
2.367232421385949762e-02
3.223545704133370937e-02
5.869201384310918090e-02
1.083910796746412331e-02
5.774027418977313586e-02
5.900405838190136282e-02
6.068608362661202099e-02
7.130346981033830467e-02
4.614629731578502592e-02
5.690919101464762125e-02
6.382157581239102095e-02
8.501992790672083244e-02
7.510894131607800950e-02
8.121016421010357478e-02
1.072329905075315309e-01
9.313628887983761706e-02
1.273750954034558180e-01
7.397181352598507231e-02
1.442676802514769596e-01
9.776373363865931143e-02
8.008965439911855388e-02
1.143358543431415020e-01
1.435268899007999255e-01
1.433878958830532291e-01
1.719018337618745673e-01
1.820619912317296696e-01
1.229515086222791459e-01
1.852464387243134003e-01
2.141140002392605268e-01
1.492494264213639898e-01
1.941729126007483153e-01
1.659598877731363054e-01
2.227721479494808587e-01
2.029321637249508203e-01
2.009318706125003684e-01
2.218823929279851725e-01
1.988382227235500899e-01
1.334660621890641496e-01
2.150405797953095499e-01
2.759231274010383594e-01
1.587261535970751758e-01
1.622555063923246110e-01
2.217815593741884750e-01
1.987492787243614056e-01
1.649561121149418219e-01
2.260372343335300127e-01
1.759681021895836417e-01
1.720476523719859374e-01
2.213448496602520299e-01
1.463800068423446454e-01
1.373520489877806949e-01
1.778653357061318607e-01
1.402444034983548193e-01
1.409811618085091145e-01
1.485965216752836993e-01
1.341696863865964595e-01
1.970083525783117295e-01
2.206514894073075272e-01
2.168203241921688451e-01
2.677827532372727970e-01
3.554052316463083838e-01
3.606590320800901472e-01
4.042020772716561905e-01
4.791715633265862806e-01
5.026683427023602713e-01
6.757317857968830888e-01
7.088363470393802546e-01
9.180628554596245161e-01
9.763154981674544430e-01
1.148636576150309896e+00
1.149389606880545589e+00
1.317299975048542793e+00
1.338783760846875781e+00
1.490758143739184804e+00
1.459516572682968416e+00
1.463613559748853543e+00
1.530617449407841946e+00
1.461324580377928894e+00
1.357890078771882836e+00
1.238438279079518090e+00
1.121378752567297798e+00
1.091655577675397115e+00
9.277047869536279023e-01
8.629201053011771316e-01
7.578704740506995163e-01
6.090137741029211238e-01
5.422795574888941150e-01
5.165256047909106973e-01
3.667701281005927294e-01
2.728193580095148452e-01
2.472056406717532684e-01
2.168340217006357318e-01
1.550573345268015935e-01
1.984126893927919966e-01
1.580031142212504902e-01
6.010715900930031774e-02
1.449682675707701374e-01
1.603468137409657102e-01
9.116354990964914418e-02
1.719085264089590115e-01
7.840850732766271869e-02
7.474290509171351016e-02
1.363531690162130550e-01
1.045654092148396302e-01
7.772140460197482503e-02
1.522152868047260688e-01
1.095305317642446263e-01
1.355374581289434666e-01
1.219124529048215833e-01
1.864128801283004011e-01
1.462677536401323364e-01
1.984632465146228264e-01
1.597518855001962557e-01
1.381040324658773244e-01
2.180726110491191805e-01
2.351825414852025398e-01
1.334567321371413762e-01
2.372919090329761449e-01
2.487217471250406098e-01
2.221226681435212458e-01
1.735258483106214278e-01
2.284558192614520311e-01
2.498550919720485819e-01
3.044371846340276355e-01
2.658807496061307840e-01
2.353577589025867556e-01
2.650768310268508676e-01
3.189308339299273820e-01
2.291176601968736293e-01
2.521460629073566939e-01
2.866667928432897750e-01
2.804903568385615498e-01
2.481100035710376572e-01
3.249470690526503058e-01
3.200786114386947601e-01
2.640926973134068989e-01
3.171414682686054531e-01
3.176981656378704555e-01
2.447714588675430902e-01
3.136343898417953691e-01
2.914066088308151503e-01
2.918428899454367786e-01
2.162161890293362587e-01
2.966383605082123509e-01
2.910202310843516549e-01
2.535799650961294005e-01
2.496019023567443151e-01
3.126547117494649086e-01
2.631851910189206278e-01
2.844667339338477485e-01
2.821713092516030530e-01
2.482828290111677161e-01
2.346684083175628599e-01
2.013010226696430038e-01
2.546367214647717869e-01
1.715073058160011266e-01
1.947198974654972270e-01
1.869198502776714954e-01
2.209943232658151124e-01
1.844454990760146518e-01
1.983963109326465357e-01
1.268250941295393786e-01
1.692679585959588895e-01
1.568031920647259825e-01
1.544927250712921918e-01
1.846745268918676963e-01
9.741196206987917661e-02
1.428795864551945793e-01
1.072686938676820911e-01
1.493354248169512233e-01
9.050338408087907349e-02
1.174619135592875063e-01
1.059797242920193783e-01
6.750735873449949243e-02
5.271290231264111337e-02
1.085143591471456337e-01
8.940912536081560558e-02
1.049168687180597054e-01
9.017858073996821988e-02
6.431926944612811892e-02
1.245100188006658948e-01
5.975723360034081166e-02
3.412871930169904255e-02
6.643367968181548844e-02
1.440325238009676490e-01
9.116166741031658804e-02
1.182198380014623518e-02
5.532011727908238419e-02
8.059397284179659060e-02
4.613699270659646356e-02
2.392022717733291448e-02
-6.383094425088223917e-03
3.156043771051672553e-02
-2.891339547346657296e-03
4.232958470870756829e-02
2.607541303325819002e-02
1.467244853376536116e-02
1.276885993508821565e-02
4.753877230907448126e-02
1.053192885307815269e-02
8.761916602475816607e-02
-2.515007178573329047e-02
2.637355844507977345e-02
3.736795929719162468e-02
4.214066383679486438e-02
3.870669441992379001e-02
6.471264216964020544e-02
7.235747784402551952e-02
6.748389167303975311e-02
1.094037319378885972e-02
1.350226313211094070e-02
4.838416299906970336e-02
3.175974224835323434e-02
6.898587416746905510e-02
4.648175229973041528e-03
-2.532514985510152944e-02
1.917166006104151568e-02
-1.117759482649881286e-03
5.068515419052823517e-02
8.920494313307805734e-02
3.790139596531250099e-02
4.421784475584930596e-02
5.871534581226324490e-02
6.644107684799294145e-02
4.427933457791116689e-02
6.684298197258310703e-02
2.155410053131376347e-02
9.334632536611689457e-02
7.575027103997399036e-03
3.847928426711259842e-02
6.331299322416479580e-02
5.371822784664010558e-02
7.948416904474076006e-02
8.784183851863043568e-02
1.603720894461274360e-01
1.131785269258106935e-01
1.148357223985279757e-01
1.238392523267678180e-01
7.992361599460499899e-02
6.261791374970965274e-02
1.704313067651842539e-01
1.591780973169678870e-01
1.527982949296858295e-01
1.383318356591034803e-01
1.046421044432240266e-01
1.312151772724286236e-01
1.577419638499583943e-01
1.220911044613373631e-01
2.047029436964632465e-01
9.071863432599241994e-02
9.145961829201371129e-02
1.977612490048810678e-01
1.641818359181163589e-01
1.435097921932362575e-01
1.587022691557369580e-01
1.302527249391077779e-01
1.833153323884774699e-01
2.008970297132622040e-01
1.636897588495786759e-01
1.726970429300705434e-01
1.542511309135840558e-01
1.476959810322984179e-01
1.498589694424522778e-01
1.754890793784304737e-01
1.248682362642080240e-01
1.441475476948174683e-01
1.283685220847314845e-01
1.194098231250204922e-01
4.791051884439095215e-02
1.176418958541101539e-01
1.278986143611021975e-01
1.163045456098063535e-01
1.074722678319466884e-01
1.431228902291965532e-01
1.809680552201869408e-01
1.377723757748162692e-01
1.873648769666563241e-01
2.102230186300921289e-01
2.736164678803085226e-01
3.698618084156864994e-01
4.036748798818502459e-01
5.435909870498356611e-01
6.277719610678097473e-01
6.695942761315605285e-01
7.837839512959605681e-01
8.900760341302040857e-01
9.979207405086542026e-01
1.067656099998274710e+00
1.241093518498594284e+00
1.327783764504633757e+00
1.393294669056773794e+00
1.435847140004874234e+00
1.476115490057369417e+00
1.383927076832120573e+00
1.437343180761692540e+00
1.345172022253765087e+00
1.303172749106995765e+00
1.205312373524611846e+00
1.106902745868200366e+00
1.007254191441171454e+00
8.658908226587516133e-01
7.488722534112746132e-01
6.407966731269632010e-01
6.034837498598748518e-01
4.448390530868386872e-01
3.944428900196734200e-01
3.156901916795983309e-01
2.365310377236173600e-01
1.941489877960164145e-01
1.944467310596099119e-01
1.391555843533885950e-01
7.681226394913660827e-02
9.869922006405215664e-02
3.978011851634933455e-02
2.667594786918806027e-02
5.669708230442407904e-02
1.041992456125599570e-01
5.297351908856469394e-02
5.083195845950260611e-02
1.107555039928778545e-01
6.889910103704360855e-02
8.483164223359403178e-02
1.227933283816468324e-01
1.207583923465240239e-01
9.606464593770440430e-02
6.489416471976762468e-02
1.008552398081031254e-01
9.947661747583390335e-02
7.649274287213619905e-02
1.275249033235752727e-01
1.317020267243197984e-01
1.256752814960604425e-01
1.812548670615752033e-01
1.675860258826878668e-01
1.264920181957499834e-01
1.772524121719507850e-01
1.609479267345717279e-01
2.331872957764923038e-01
2.238530808563522767e-01
2.236097776504253620e-01
2.063160493472557810e-01
1.850262195052374270e-01
2.804321157304421885e-01
1.717052905829672127e-01
2.042436501003197236e-01
2.258863720645067075e-01
2.520826731805457799e-01
1.842318725654087663e-01
1.366061204934554962e-01
2.622435756151150765e-01
2.226352022372078687e-01
2.810581928630121462e-01
2.213812318178773053e-01
2.836917066047906499e-01
2.434633858146334207e-01
2.500296772125182310e-01
2.773518249343167597e-01
2.325820939946590116e-01
2.577493373686430833e-01
1.768725310212649893e-01
2.227678638462743110e-01
2.154258632828038311e-01
2.784256272770718188e-01
2.716864940024394937e-01
2.245384137901767219e-01
2.227310324385972373e-01
2.076537044558404710e-01
2.266876376524445125e-01
2.056459802600920650e-01
2.710996586520343921e-01
2.082113613355754123e-01
1.946858254825123702e-01
2.332661454760633357e-01
1.162174277707096887e-01
1.331662107317407029e-01
1.467834200070551598e-01
2.152711222786700129e-01
1.482884254676346547e-01
1.773427636481382519e-01
1.155962473118511136e-01
1.254620237111584158e-01
1.246426231150156438e-01
7.379135414443382945e-02
1.299908280076578770e-01
8.626764660565547360e-02
7.234306918366015249e-02
1.004110339717612654e-01
9.322580804162051982e-02
7.222059897739957490e-02
4.065844791410154480e-02
9.784061574299313113e-02
4.749445871913332562e-02
4.913260078133237230e-02
5.762130057334591271e-02
3.843507130731314142e-02
2.224473578034379118e-02
3.544362232156323539e-02
-3.657437054895469608e-04
9.788206038944202714e-03
1.292589441866836067e-02
-7.747798107147874092e-03
2.769096528029456675e-02
5.838129283325648594e-03
-6.715942125215304537e-02
4.156340524295025485e-03
2.753222234777346483e-03
-2.828562562899969435e-02
-6.818628450420108345e-02
1.040815784581741732e-02
-1.925695955929946496e-02
-7.005104154888031065e-02
1.147251119035838998e-02
-3.967126994222142794e-02
-9.244229856902805298e-03
-2.335276067166072028e-03
-5.694277895293990699e-02
-4.133598669968659156e-02
-5.915984254507618278e-02
-7.107256584567359092e-04
6.348488945397873229e-02
-2.489902473448296627e-02
2.975153541884851746e-02
-7.432756237931645305e-03
5.655221506313052454e-03
-3.320658547566981977e-03
1.169888242510488605e-02
-7.861578168877132039e-03
-5.411266988348309437e-02
3.331169585551928269e-03
-1.152312417095805071e-02
-3.358410981332882184e-03
-2.094521377190311506e-02
-4.191137133435839102e-02
-4.317061468415180764e-02
-2.614659316037267617e-03
-4.322171015922425530e-02
-5.133203897363382284e-02
7.542104034031202331e-03
-6.496026455401671118e-02
-2.114097914539427719e-02
2.655934766194145355e-02
-5.121382276719554233e-02
3.014839343611025457e-02
2.677051348736615016e-02
-6.330159839883400807e-02
-1.166052795006674442e-02
-1.781039322279946019e-02
-1.692127393477954253e-02
-2.152929545005077133e-02
5.356623944686410982e-02
4.362581665028983369e-02
-1.320890774724168409e-03
4.114446680503165699e-02
2.440869757958129965e-02
6.195237092708874571e-02
6.489465942516602082e-02
8.205944489204576586e-02
1.450410965673629149e-02
7.458633267088002339e-02
5.306866345140999475e-02
1.423533894257059812e-02
1.313595806346744554e-01
3.643873597846448292e-02
8.921597809738443519e-02
9.348602506139061519e-02
1.338461246732823851e-01
1.081033954540523978e-01
1.125271975634353078e-02
1.393237767975032959e-01
1.138122641508271249e-01
1.322832373446296839e-01
1.096793328436324599e-01
1.467314729545615148e-01
1.562053613722446666e-01
8.111570638779710962e-02
7.216590029320649191e-02
1.007284804416996443e-01
1.387896451454858626e-01
1.222236400835696457e-01
1.098978014025648875e-01
7.859356674536513432e-02
1.144381234837756889e-01
8.650983370666585903e-02
1.696941879005856302e-01
8.281131854349813026e-02
6.724985675009084729e-02
1.350549830483704083e-01
8.342846380902624315e-02
1.010260315233432182e-01
6.147467864890738404e-02
1.040866153104301473e-01
1.109777160612550329e-01
1.420670892174356048e-01
9.821506939765797806e-02
2.254900742565082994e-01
1.703566591056648316e-01
2.022508451775685001e-01
3.214301026156569652e-01
4.397074382487580202e-01
4.811904667248919631e-01
5.299276085747168796e-01
6.565841583846144802e-01
8.170379152358627772e-01
8.846277528949417768e-01
9.592469071902997024e-01
1.089938527808686608e+00
1.205660013513108586e+00
1.248369969318745776e+00
1.343206678940330523e+00
1.337511812756663643e+00
1.375829807649080250e+00
1.369604241049303672e+00
1.402130400633408325e+00
1.251421530901934975e+00
1.231466449695235887e+00
1.116529663035331188e+00
1.050521369865169641e+00
8.287465643185478736e-01
8.208435040856943976e-01
6.518404405728791540e-01
5.625614692105063153e-01
4.047263334924180445e-01
3.883082656427395696e-01
2.723547039000377978e-01
2.269097210405069953e-01
2.004852681606491549e-01
1.771615243673770324e-01
1.288427427975179229e-01
3.338008593687449843e-02
9.669830022628249366e-02
1.014512658058913663e-02
2.486075310338994870e-02
-1.861355297582439894e-02
2.349722420772563936e-02
3.246866031909107636e-02
-1.371745100691972030e-02
5.176500325856432660e-03
5.947619001079660489e-02
5.119454640281742575e-02
3.218455156648318549e-02
6.941776551436774911e-02
7.751055864184816513e-02
7.622449471223678719e-02
-1.423693268583663823e-02
4.482797656559913552e-02
1.127044093835167515e-01
1.035402093051273342e-01
1.033736669110834061e-01
7.644910804665956683e-02
7.070570156182816313e-02
1.199197679571053776e-01
9.483121806911937179e-02
8.711654779926700232e-02
1.598098655764568776e-01
1.377393040439681693e-01
1.699614616217230978e-01
1.170297669657967832e-01
1.683147308746347770e-01
1.528861592995565954e-01
1.057231353935928764e-01
2.096232224611005723e-01
1.663360496601927196e-01
1.806588041623483909e-01
2.021370862475112551e-01
1.737733441073961438e-01
2.375689316470566970e-01
2.418999833746079964e-01
1.886855549282019096e-01
2.220434034509060628e-01
1.835091704416366709e-01
2.237992204503376215e-01
1.851720968690997449e-01
2.182165534423248787e-01
2.167237664881221659e-01
2.440405995592340171e-01
2.537717096555304197e-01
2.244392812282098859e-01
1.676294985394755077e-01
1.927224276310724183e-01
1.301207684838315282e-01
1.718542744687517332e-01
1.672265547977375144e-01
1.652404097296369667e-01
1.722563194863290792e-01
1.383537302251117151e-01
1.502929925443112769e-01
1.752872961485814063e-01
1.374431003036581389e-01
1.457796093914431323e-01
1.620929075057433999e-01
1.454215271284532984e-01
1.165650332161534686e-01
1.400003574173176168e-01
1.088830718247266599e-01
1.188869817462137324e-01
9.545266854520670363e-02
1.605151055892151402e-01
8.257827666707814873e-02
5.667812469450596302e-02
1.065677757163669970e-01
4.001999327160434688e-02
4.573568310297834727e-02
-1.211944747292956204e-04
9.881928715848936617e-02
9.826524461874909522e-03
1.533951373897991105e-02
-1.920692068867169144e-02
-3.309276926506391631e-02
-1.924332605341304986e-02
1.304948996801649080e-02
-2.484652581092217788e-02
5.184024645546474186e-02
3.132116243997694338e-03
2.733866501407823668e-02
-3.904169960292128150e-02
3.518039282856921107e-02
3.777053485578871217e-03
-4.036996216375200730e-02
-1.914803563667607719e-02
1.619295142842893526e-02
-8.204381743948858940e-02
-3.619403409861748910e-02
-4.324066772703571981e-02
4.222844731677177776e-02
1.452706037386557181e-02
-1.005372418592312272e-01
-3.821322218941834020e-02
-8.149236918158958565e-02
-7.899620707646262674e-02
-9.780814431115539276e-02
-4.015836912506128009e-03
-8.433134882118598075e-02
-3.517263461344390801e-02
-5.294866759334086737e-02
-5.999415673780871677e-02
-6.003601821808089017e-02
-5.953574772227189504e-02
-9.593998816465887369e-03
-4.951617907857350231e-02
1.571116960071816671e-02
-2.690593475334546875e-02
-4.336259122848053899e-02
-8.555906054718076525e-02
-3.819062320001220118e-02
-5.780397896981178535e-02
-9.682787883048693534e-02
-9.095666737303936822e-02
-4.994266226069530440e-02
-5.021944504434491807e-02
-6.708534208713003155e-02
-3.935741302143001830e-02
-4.068106062295932801e-02
-1.178300793423115722e-01
-4.677987712546111815e-02
-8.167977717171268082e-02
-3.727395528670560121e-02
-1.129166060308060965e-01
-4.204623258194462032e-02
-2.085515356973689782e-02
-2.968912007830243338e-02
-2.754817838994350065e-02
-1.908121935760962590e-02
7.217654315855234759e-03
-4.272491245961884676e-02
-1.766942426166902974e-02
-5.646894723451822973e-02
-2.599902982378834299e-02
-2.265634206169750420e-03
-1.899810422878851768e-03
-1.635324407562529364e-02
3.781775339972687222e-02
9.898791346816399050e-05
4.146330964205122149e-02
-9.954621901939623985e-03
-8.600233184168956657e-03
-4.148371408315490450e-03
1.741135439961528225e-02
5.220169465074477044e-02
1.282298149618473493e-01
-2.443419759257700608e-03
5.682798519884789401e-02
8.636816702381176769e-02
1.099301737346638497e-01
9.145847350329362746e-02
9.364105526734900486e-02
9.023812241658397959e-02
1.081066610274504097e-01
8.765251653411265664e-02
7.913909129659885133e-02
6.650704872165358328e-02
1.400483367300736637e-01
1.227471175612549897e-01
1.595566311501145917e-01
1.190208466244565694e-01
8.800914309881474606e-02
7.176788419238089300e-02
1.053414251060741380e-01
7.830968375115926472e-02
6.017056920146383187e-02
1.157863287684828268e-01
4.927328433077951542e-02
8.051414643613905020e-02
6.829917889383166352e-02
1.409225329418839490e-01
8.256853096813807080e-02
3.029742822368505784e-02
4.073421801070527953e-02
1.171034661353508588e-01
5.500967491434879952e-02
6.401768478877520319e-02
6.865098456260004811e-02
1.531444955444897227e-01
1.560698706008006587e-01
1.965325407981480532e-01
2.759278129823987680e-01
3.221811261322713449e-01
4.516981914891243788e-01
4.697602952358326256e-01
5.867634204321202640e-01
6.677464512443046507e-01
8.609151636021041831e-01
9.063643541814485616e-01
1.080078408677586532e+00
1.159309426295029422e+00
1.245210306693731894e+00
1.305125089574530994e+00
1.367428723789113398e+00
1.394002248016671608e+00
1.395079945212566841e+00
1.305392408170055418e+00
1.342305568096290536e+00
1.264359342082168824e+00
1.128260139155683683e+00
1.038193424126048647e+00
9.772189842378431468e-01
8.094304805110421608e-01
7.287801107621681984e-01
6.249414442095163613e-01
4.944035233040261490e-01
4.538291176322692411e-01
3.391481063819971054e-01
2.932321187877321989e-01
2.300557789904020267e-01
1.732139730943424993e-01
1.334289972254460721e-01
9.894746698504219840e-02
4.980012451248085059e-02
-1.235410679344108031e-03
6.983014840106056831e-03
-1.094554263639828384e-02
2.943967562903291452e-02
-1.705347308157473957e-02
-1.649848670169928866e-04
5.571205175252767761e-02
-1.416792051830047250e-03
1.354590972500532842e-02
4.285301613012881122e-02
3.664259393197429049e-02
-9.443219710715308746e-03
1.988952011580218809e-02
1.058025796865951218e-01
8.988740722830537710e-02
4.314896336798466903e-02
4.964841430235984038e-02
8.359482398315394580e-02
6.209404145204704129e-02
1.857824106478888626e-01
9.774774435633905301e-02
1.095568393244967520e-01
1.394024512272308280e-01
1.679940948869943496e-01
8.582260223702314894e-02
1.542770556036507923e-01
1.352447328751866240e-01
1.508993678906012104e-01
1.872973375755304093e-01
1.819969079489614228e-01
1.034748114411685044e-01
1.506163616141093509e-01
1.690536488400175563e-01
1.610263308352813949e-01
1.704183205614229757e-01
1.558764001807640687e-01
2.314253709178979157e-01
2.718765071914828191e-01
1.895931761031171836e-01
2.137719093797734171e-01
2.024674724866174780e-01
2.159587564695292783e-01
2.808073393462685030e-01
1.867364321702569274e-01
2.043601418215688081e-01
2.498576578634059686e-01
2.532585004596479838e-01
1.634187423567841080e-01
1.765384080071601969e-01
2.112031599051765740e-01
2.003231547512275557e-01
2.071622839409208439e-01
1.971543073298328008e-01
1.744761622978273363e-01
1.652193067222756662e-01
1.957577019351543768e-01
1.794709106945185650e-01
1.991564021237404447e-01
1.426080868995964479e-01
1.357201363252837356e-01
1.482099034553876760e-01
1.522183698914176264e-01
1.426034167074500258e-01
1.419461593409276912e-01
1.604786160687523555e-01
1.202432900621514256e-01
9.619074294349336252e-02
7.478094448496724889e-02
1.235144299041240484e-01
1.131162921928012821e-01
5.423963740368206721e-02
1.175807941585776395e-01
8.821144916823375759e-02
6.247232671700271578e-02
2.342084906057834842e-02
3.477119198293662783e-02
7.675070943197327689e-02
7.143415363747936120e-02
-2.028283343264276201e-02
2.697751918343446395e-02
-1.111299067231763527e-02
1.734456815866338569e-02
5.319647349970772765e-02
9.607807753633493264e-02
-4.112204403330977504e-03
-1.622767065497021655e-03
-4.766636387602215391e-02
4.353228758577915025e-02
1.338379963987444340e-02
4.261949015976312927e-02
-2.011975072766750139e-03
-9.900973788881099746e-03
1.817888255619193663e-02
-2.105526993513000961e-03
-2.206883008233186116e-02
2.167603971337679278e-02
-2.844825485760308151e-02
-2.356239097553003425e-02
2.636894746442410356e-02
-5.400841699342637248e-02
-6.920001074886354686e-02
-5.094364390332936643e-02
8.173716370659625530e-03
-5.554566641797267085e-02
2.534010885883123537e-02
6.014473319635074700e-03
-5.950754258151189080e-02
-6.141548031326906493e-03
1.424344441332446934e-02
-3.842435342990656311e-02
6.980095001001072885e-03
-1.482206398897874949e-02
-5.302148070113017059e-02
-4.000228382466872179e-04
1.609201488103115599e-02
-6.706903953100841476e-02
-8.024902667233117792e-02
-3.491762499607135167e-02
1.787656339380426507e-02
2.097456734295902875e-02
4.011737678195882728e-02
-5.357495808160303574e-02
1.870189534367781153e-02
-9.730518485886602287e-04
-1.900125406456219801e-02
-1.358837788732464302e-02
2.658608069684213759e-02
-1.608550710007349005e-02
-1.721229166300302510e-02
2.505404556385776998e-03
1.978535796397696764e-02
5.274967267912825108e-02
3.776002641652587838e-02
4.153662707923400088e-02
1.321400584363261951e-02
4.119756406332496235e-02
3.244409363242707622e-02
2.619720624638494089e-02
8.678828750982411910e-02
5.444041010975335382e-03
6.888451867261165262e-02
6.758913217000399321e-02
6.215350536553698735e-02
5.868445514327459700e-02
6.121122703352695898e-02
9.222349557416771593e-02
6.356934938014208170e-02
7.454832333178508519e-02
8.526245821749095510e-02
7.554705775968534320e-02
9.293767109863081133e-02
1.068022466912921242e-01
1.277631477398604165e-01
1.071476160932082755e-01
1.815039592451594408e-01
1.341171739271413421e-01
1.761136311025321421e-01
1.486213435156040485e-01
1.228554458398773974e-01
1.728664900682292116e-01
1.267841528874697199e-01
9.711233240865924099e-02
1.320236871953672231e-01
7.519372505366334059e-02
1.788164133815995649e-01
1.360289854482356064e-01
1.244022996145164733e-01
1.723056099540734853e-01
1.320139199988056011e-01
1.433645589663515851e-01
1.293146652462408286e-01
9.033964803852898018e-02
8.896793570001165774e-02
1.220494913946297416e-01
8.809505952730638245e-02
8.370874648802725804e-02
7.247494776266924510e-02
6.493176428167594938e-02
9.771356553424791203e-02
5.858025663430831836e-02
1.385947532829787110e-01
1.107331962786587132e-01
2.200372008773337773e-01
2.133373625224458670e-01
2.626780489908312477e-01
2.630734417165335182e-01
4.257017694873595492e-01
4.613202871171999675e-01
5.887762669498887158e-01
6.678004641734183178e-01
7.737771655239765733e-01
8.853683289841915993e-01
9.861224121690664868e-01
1.115018738943918342e+00
1.234214863304391452e+00
1.301935442349062777e+00
1.377227320131449995e+00
1.401160934723237883e+00
1.505344563698961302e+00
1.409533216668946265e+00
1.382362995774295777e+00
1.394160574324596613e+00
1.239780394596656343e+00
1.179975995977956327e+00
1.087471487900221412e+00
9.285739897242210050e-01
8.618735378639249545e-01
7.406573733667042303e-01
5.969291522563635599e-01
5.403069757775569304e-01
4.292623409564624293e-01
4.014803490588307322e-01
2.896288505641359534e-01
1.714752496149918315e-01
1.618583721486517302e-01
1.727491029178701565e-01
1.059822767417762795e-01
2.107819967580991660e-01
8.365007782256442259e-02
4.944290106628965870e-02
9.485682358204797215e-02
4.627359422056018246e-02
9.713071531672184955e-02
6.761069462057101020e-02
5.003549967323614456e-02
5.860576250930012859e-02
7.309707517995021886e-02
7.669275911770827292e-02
6.373234713909625704e-02
9.263385524497261270e-02
6.660539554034665410e-02
1.435079904699034792e-01
1.241477352733021539e-01
1.216011938599459996e-01
1.751695210925976465e-01
1.105951687536532724e-01
1.442566774131686103e-01
1.382542595770830385e-01
1.318491152805557065e-01
2.200414762077794184e-01
2.095449037718828122e-01
1.546820229811558256e-01
1.773216528593662689e-01
1.913264276662103858e-01
2.160728874755827034e-01
2.217129422482967960e-01
2.172758561019883516e-01
2.204083833951010762e-01
2.515697129738947990e-01
2.126079998612213917e-01
2.718206363797317504e-01
2.861644299938344016e-01
2.211803217761046658e-01
2.685252951504268903e-01
1.894224478071857565e-01
2.659803439565063266e-01
2.731015699908840300e-01
2.463685389056914921e-01
2.618449060514217441e-01
2.513166403296432372e-01
2.603410609152179145e-01
2.636286100089940132e-01
2.984578935733451233e-01
2.355431423864534635e-01
2.430521874431957330e-01
3.019196776588641828e-01
2.019715346532313105e-01
2.361941614118162336e-01
2.521968261977030612e-01
2.276739998720007097e-01
2.442018020540815126e-01
2.621587913382526502e-01
2.590269834790347447e-01
2.496772276263699852e-01
2.177366181136615175e-01
1.607081718761942113e-01
2.441005223419305814e-01
1.416395083708130720e-01
2.504312755985504402e-01
1.458387160635879198e-01
1.410270591206762014e-01
1.885415801762541921e-01
1.825867214824012652e-01
1.655114874503324507e-01
1.698116687230546151e-01
1.925939300797021858e-01
1.039095992870517071e-01
1.630717880938078457e-01
1.348725315581389972e-01
1.058154386208120801e-01
1.305049180352434723e-01
1.145567295466009550e-01
1.630423865782711368e-01
7.020545087578924925e-02
9.251293303112824440e-02
1.405347801644412642e-01
1.337694168186736032e-01
8.765888342263979116e-02
5.133991849975892696e-02
1.322038714370588064e-02
7.890369872973429510e-02
7.135587855686018055e-02
6.012473241577966782e-03
7.643119158838183880e-02
3.354924047292685840e-02
3.399967101154529464e-03
3.602793189298046650e-02
5.068870015714095623e-02
8.061735732188776704e-02
2.288239836166508154e-02
5.154609579181736873e-02
9.473069807083051019e-02
9.008487814753123046e-02
4.384050901889198493e-02
6.752971753770936614e-02
6.732918421738707387e-03
2.949094570533938517e-02
3.408981769312101340e-02
1.226740778651012886e-02
3.490682441161054028e-03
1.696163556541048500e-02
7.671533100532985927e-02
4.887028147834805020e-02
6.989724941345040743e-02
-8.002764273186430827e-03
2.490619159115386658e-02
3.635464160147289236e-03
6.244603049804849093e-02
2.851788511856558767e-02
2.889206876794054440e-02
2.686666343147456337e-02
1.139119032631156700e-02
-3.632798884405728790e-03
5.457268981738387648e-02
2.036178420612912154e-02
1.125620344329165273e-01
9.185107552882953996e-02
4.653190628550662317e-02
2.597486795005604990e-02
9.193092096982827949e-03
3.209542314504158084e-03
5.296957749768636120e-02
5.317353389338558278e-02
2.396641962201681922e-02
1.222206761558630728e-02
1.346335404171585676e-02
9.842092953724493332e-02
6.071773933990218253e-02
5.114968658546563407e-02
9.556041076914592591e-02
4.920394093888379866e-02
2.370689948118728102e-02
4.150454652222117929e-02
6.115322615917889726e-02
1.026774460726241900e-01
1.216169996644733131e-01
8.838705561082227380e-02
5.006915893008610091e-02
5.366559874262655239e-02
8.399508829236324026e-02
9.274186612283395748e-02
1.176490626830407060e-01
1.202179162995606065e-01
1.770791148004584592e-01
1.001137662886708996e-01
1.229036421508624827e-01
1.493004636292719067e-01
1.197388343212316408e-01
1.391726233190501427e-01
1.239548717692049717e-01
1.540630707005112565e-01
2.318799213977828788e-01
1.960056095573642909e-01
1.956878530856874798e-01
1.911941286185762645e-01
2.066261684435390933e-01
2.170096978850651892e-01
2.133361912835189944e-01
2.351623915027583611e-01
2.009870606367332169e-01
1.765139856530013873e-01
1.559258377821954589e-01
1.821706042345813681e-01
1.749161430452610688e-01
1.491504520560923419e-01
1.439446644228352667e-01
1.641370294872622204e-01
1.358084119644236976e-01
1.089283013586976739e-01
1.611663257961089002e-01
1.516698716208436104e-01
1.424446353379331121e-01
1.148630395919200964e-01
1.447225964307033708e-01
1.737628923390458491e-01
1.650322934360128613e-01
1.221468934269788198e-01
1.267674202716379817e-01
1.427082447224185813e-01
2.310863885252144034e-01
2.119556548946704144e-01
3.043845164594016217e-01
3.791429425489386551e-01
3.868121488983990997e-01
4.896200895483228122e-01
5.552038270782423401e-01
6.375652802800690910e-01
7.592278455231340484e-01
8.740456426377376520e-01
1.008422075796332251e+00
1.087206192386052095e+00
1.204839578909143061e+00
1.292051420863071787e+00
1.378342393387966380e+00
1.429442768032822553e+00
1.486637328541406511e+00
1.464275848725252738e+00
1.469895511983683400e+00
1.365898303158660010e+00
1.310441194719636160e+00
1.292680847028949920e+00
1.179433589038131114e+00
1.027702589231496377e+00
1.032010696145532425e+00
8.307619446454098666e-01
7.055900564736926617e-01
6.086791735448134899e-01
5.138989260792795610e-01
4.473359376661369957e-01
3.311235070900753752e-01
3.364512412410865516e-01
2.506579194212706918e-01
2.225813672905135876e-01
1.623413905507078425e-01
1.727494378840146172e-01
1.594973841318109153e-01
1.087973200814900815e-01
1.145697676595544140e-01
1.332448046734333036e-01
1.390552577589743710e-01
1.115420123542309461e-01
1.076269408701636954e-01
1.407903990324336774e-01
1.430603426303681536e-01
7.296306131913883608e-02
1.625567677681448719e-01
1.399603736748615823e-01
1.619048245172529654e-01
1.259988431979563450e-01
1.404313994677073019e-01
1.484147424554777550e-01
1.815511562272140444e-01
1.960420005092503304e-01
1.863641210892051925e-01
1.852885580420095546e-01
1.839317823286955311e-01
2.212919745686133532e-01
2.327053193123863883e-01
2.390993828419410994e-01
2.232505456597871363e-01
2.302544969400978914e-01
2.438097421197264192e-01
2.459441629807117835e-01
2.599942195954498270e-01
2.636228900841431910e-01
2.362018011441342769e-01
2.472293138530936019e-01
2.856373022188526400e-01
2.249342703102662766e-01
2.891353523304554529e-01
2.963564764538960672e-01
2.914444220075695924e-01
2.860246439155291753e-01
3.191542387948000381e-01
2.622205431074643434e-01
2.603701140284747084e-01
3.327518867368767230e-01
3.473349276943441533e-01
3.198811734912157534e-01
2.922565520465605360e-01
3.099798059472044232e-01
2.677452337882934574e-01
3.125065605302189686e-01
3.073461465155245542e-01
3.084541926659476463e-01
3.146064420167389852e-01
3.155625786404059330e-01
3.208237672958528242e-01
2.436392306989368373e-01
3.009815405601263261e-01
2.643136176287145811e-01
2.627809402547255369e-01
2.423257062613162760e-01
2.027144482220971655e-01
1.938621768596615058e-01
2.470325073867657428e-01
2.609007951619521926e-01
2.135984491159968468e-01
2.063780956014943102e-01
1.918590552389318749e-01
2.056395788444014272e-01
1.948837542280937030e-01
2.371286932402933978e-01
1.907385045712493288e-01
2.118852429100668844e-01
1.653579948637390051e-01
1.900972676952942253e-01
1.819071858106794393e-01
1.913607429807176463e-01
1.326828800312334911e-01
1.658873850676001738e-01
1.377920471634958566e-01
1.038819061596992915e-01
1.349513134993822749e-01
1.180044385880233693e-01
1.010378292708439402e-01
1.015989936728346893e-01
9.380515623672537606e-02
1.055311146587027127e-01
5.913957568383611252e-02
9.556303906715291063e-02
9.148050492655071531e-02
5.912210156502904768e-02
8.267183684512594000e-02
7.120944064777109950e-02
7.973256130049583001e-02
7.777550837694759134e-02
7.487376127455300234e-03
5.051208948263481019e-02
1.678947078503086054e-01
1.003312755469943363e-01
8.552402241842518849e-02
1.666192177746075864e-02
4.043149495712891617e-02
1.933782541471201072e-02
7.969583315349382246e-02
2.149221983432739180e-02
5.590991281140718361e-03
5.881247320947625284e-02
1.399948489170160099e-02
1.846061240853726429e-02
6.077155184758301076e-02
9.779373444268682491e-02
8.162894890940443349e-02
3.724421029117859494e-02
-8.837293034492300914e-03
7.980750775224539073e-02
5.625822515467323454e-02
4.482674517502615447e-02
3.171825602536844368e-02
3.358131167673907014e-02
8.309487878324803289e-02
4.989683891594598464e-02
6.753179148296986622e-02
3.268382926619639584e-02
2.775612267350201917e-02
5.703697267795899972e-02
4.515384161848053773e-02
-1.778525701171279616e-02
3.884482164498715556e-02
7.155468449781431095e-02
9.407623082398380854e-02
8.057682575720812035e-02
7.840924494620606089e-02
9.287501323639019146e-02
5.057300802429036402e-02
5.323520394464455185e-02
1.032704285702019525e-01
1.198871917474511467e-01
5.960260636921635435e-02
8.776249407248040701e-02
1.020978349895311221e-01
4.477691421723299647e-02
1.162172415226705169e-01
1.506036963494962189e-01
1.726990679031437381e-01
1.098585252152177727e-01
1.262008517734340141e-01
1.237678123217757220e-01
1.604351409420171626e-01
8.766034875219419487e-02
1.104439525215313855e-01
1.078380186136210228e-01
1.782547582866244595e-01
1.850655441989765837e-01
1.527604222188323202e-01
1.246192863344527391e-01
1.379742315773867245e-01
1.638199730235526674e-01
1.842982065122658331e-01
1.843134199893620984e-01
2.304565788184776975e-01
1.892011473833181967e-01
1.772101174671862345e-01
1.968725585193780714e-01
2.334589924861994459e-01
2.315519229445115734e-01
2.605127646014659959e-01
2.488725654858253422e-01
1.524410314310130632e-01
2.831796481163478263e-01
1.824384204104486096e-01
1.683694461541385967e-01
1.666223563687045661e-01
1.468292844115509366e-01
1.622633682651953846e-01
1.590761012929536866e-01
1.866912573038789769e-01
1.551157497997466828e-01
1.874321191266344333e-01
1.944636794843717098e-01
1.915981030601763002e-01
1.744741547531533654e-01
1.725024323509820323e-01
1.862670415960601122e-01
2.441427955797889071e-01
2.434140411127252990e-01
2.475797403669592334e-01
3.266906662354821522e-01
3.479594975971082027e-01
4.423027742361197445e-01
4.518283765910128813e-01
5.367009150950010632e-01
6.369696538508471395e-01
7.081121743846382488e-01
8.179756980926975451e-01
9.061999921026860916e-01
9.601675124631916525e-01
1.174146252238342125e+00
1.229879805969738893e+00
1.364929460551509210e+00
1.388782527152567781e+00
1.413469379802430259e+00
1.480899501384347117e+00
1.451572184506665586e+00
1.429604520267010015e+00
1.343798817843748106e+00
1.317234282807288492e+00
1.228667096094994138e+00
1.109179672357284430e+00
9.913879856275847891e-01
8.705992721229094400e-01
7.799096208790589069e-01
6.733256245959889918e-01
5.676536282539231815e-01
4.668802153916474795e-01
4.143047614207220897e-01
3.531410905681026113e-01
2.464402681944735385e-01
1.962343855709322293e-01
1.668456158142576362e-01
1.904268970150305162e-01
1.612595051874757546e-01
1.765294525576074358e-01
1.123017065742180354e-01
1.054535821555459690e-01
9.877369391657371545e-02
8.592994007317830696e-02
7.407536051830002077e-02
7.889300724498329864e-02
8.121989889587175049e-02
1.262490601380945321e-01
8.697996306022151569e-02
1.033230189463366921e-01
1.085692139704301229e-01
1.282211314996520579e-01
1.324743213966857458e-01
1.461043113393689363e-01
1.261529064629410279e-01
1.846925997892495674e-01
1.045548861043777422e-01
1.871769619190136458e-01
2.025511157010820573e-01
1.872204528023253822e-01
2.414376818835335115e-01
1.776828728485263797e-01
2.358708957845677412e-01
1.874644539738288540e-01
2.031352679698383845e-01
2.466641263358440306e-01
2.418545700739625215e-01
2.161429915397910517e-01
1.967947289431432045e-01
2.737958682025930512e-01
2.806692590977120094e-01
2.373740101757404186e-01
2.650718772760888853e-01
2.340245820115784969e-01
3.080949106437674279e-01
2.678453938781585886e-01
2.707932319084295214e-01
2.883602586893558306e-01
2.930687210001784448e-01
2.666954858541619178e-01
2.740517088802333912e-01
3.024419979884802601e-01
2.847739108634205207e-01
2.477276961695090984e-01
2.475122703672765490e-01
2.804255894605098276e-01
2.859742886651810423e-01
2.876390311489638307e-01
2.826732345158901594e-01
3.315096004464027080e-01
2.367075901969711293e-01
2.770097897354324989e-01
2.462938937443704956e-01
2.660457652068917711e-01
2.355718885367617532e-01
2.331618449748592559e-01
2.258925936827009817e-01
2.074592757445035685e-01
2.641401243103421725e-01
2.189969873725252647e-01
2.046241568746472450e-01
2.124968548575371929e-01
2.029524830595012264e-01
2.100918309438460085e-01
1.845176426155935301e-01
1.605735332787861513e-01
1.264535427732326744e-01
1.754338209130882897e-01
1.729281445591334954e-01
1.975357548717598943e-01
9.792766884686965323e-02
1.252988280339722704e-01
1.540106244629822208e-01
5.704315069594256132e-02
1.365126159058842881e-01
1.049514457782087101e-01
1.183192864333644650e-01
7.565829257068779068e-02
8.582877633744732948e-02
6.430927351907653189e-02
1.410077242620927929e-01
1.214616746122405277e-01
6.964487827508594742e-02
7.394367374611324206e-02
8.031647999665017523e-02
6.223017635621126697e-02
