1.483891527614875194e+00
1.379230792368842273e+00
1.367496909967743202e+00
1.328873681612605440e+00
1.218712699104456121e+00
1.124986281062269500e+00
1.001682311141927517e+00
9.265562074906301682e-01
8.411192089632626434e-01
6.992834716313134358e-01
5.957014756596740179e-01
4.820313534790840460e-01
3.834494241174946638e-01
3.640946416587379497e-01
3.020672267180442572e-01
1.941090939875630417e-01
1.140742722165977580e-01
1.751947593294281569e-01
1.201530664181849339e-01
1.323675644138936347e-01
8.793366904998500821e-02
1.277119978174043879e-01
1.038039609123012214e-01
8.212362811319132150e-02
5.548178104348543138e-02
8.928481124465950658e-02
3.104210497648084849e-02
6.706889990225312070e-02
1.158523698825529996e-01
7.205910315627178653e-02
8.118781926342899524e-02
1.043044572458395880e-01
1.488365994356759536e-01
1.402465178788968314e-01
1.451057545655362879e-01
1.068505252381875548e-01
1.524612168830983550e-01
1.714833961246693406e-01
1.655606386345293557e-01
1.511759832034467455e-01
1.980888297020362288e-01
1.769494756975997785e-01
2.188953810092569285e-01
1.915408559994142002e-01
1.313644949581896093e-01
2.112551863583218281e-01
2.662256177317177119e-01
1.909889666555883159e-01
1.832764658742627450e-01
2.226520141784985030e-01
2.202884739877784270e-01
2.334298196876700426e-01
2.182083949040036219e-01
2.320708916884698936e-01
2.591982170722417766e-01
2.521194196020378753e-01
2.411398195529745880e-01
2.425821868305103046e-01
2.613917403352800650e-01
2.852846673464672356e-01
2.562353900520761840e-01
2.190026094783566468e-01
2.482071610719597254e-01
2.697344616813702189e-01
3.064698519403791788e-01
2.373309725633476752e-01
3.206982588941748036e-01
2.084683057170764187e-01
2.372579118739470139e-01
2.717162110059908597e-01
2.960103740463876365e-01
2.460645719269532739e-01
2.870842816873404590e-01
1.659467662438859070e-01
2.202665332321139535e-01
2.073746061208112945e-01
2.057624148998851710e-01
2.040286784815418253e-01
1.756526390922585057e-01
1.978907728399295074e-01
2.098246352729226105e-01
1.406484716326911188e-01
1.342658081630161704e-01
1.451557151159952597e-01
1.758592861388357798e-01
1.960493047577533954e-01
1.740376467017882567e-01
1.335502819123319529e-01
1.085779418582220740e-01
9.963498660990269262e-02
1.945342015133426361e-01
1.576744592551171942e-01
1.288872839944935345e-01
1.168891217799519072e-01
5.003143646768785924e-02
1.311861743067547770e-01
7.082302088189210143e-02
1.112700176241296912e-01
7.034166133286651190e-02
1.195748109768648565e-01
7.003732713866067661e-02
6.335624766346667491e-02
5.979964846919337551e-02
8.822915882193918535e-02
2.528386691671516417e-02
5.808697520573422729e-02
3.099004451694763532e-02
1.595396134454778181e-02
4.393988689948127857e-02
3.994705184955139182e-02
-4.705089876479184169e-02
5.462760776488776587e-02
1.357517571373061289e-02
-1.692821507099790540e-02
2.094312394038054873e-02
6.109030666794672965e-03
2.370500235024985622e-02
-1.171216830178917027e-02
2.210880310452790001e-02
2.830853932875004170e-03
1.312330862966024081e-02
1.460610749620233975e-02
-8.026864985049078638e-04
-1.147253904646128309e-02
-5.342206099081048265e-02
2.042848960427223401e-02
-6.284365692982372964e-03
8.691210391183756823e-04
-9.104115209160146965e-03
1.728321083198323949e-02
1.798112010770099023e-02
-4.480739153523807111e-02
-4.842890982842577158e-02
-1.112301932398456275e-02
-5.700860870090956184e-02
-4.815925205005340548e-02
-3.168066245237981596e-03
-3.646289894600213827e-02
6.409600415848369301e-03
-1.440501576558289587e-02
2.752181635555087102e-02
-6.373335335603316776e-02
3.560263958485192920e-02
-1.699774440017136692e-02
2.829220307364909912e-02
-6.781771346368412057e-03
-6.599701369690930131e-03
-2.683852501282869493e-02
3.151076062272976930e-02
2.202088933695053527e-02
-8.854342699036912845e-03
-4.194911362361814985e-03
-1.630925183889880836e-04
7.022748139562137726e-02
7.233191980570329027e-02
1.882743902708683761e-02
1.522756287264418612e-02
1.218987875905877816e-01
6.995063136074641807e-02
4.209930059394151325e-02
8.664625056217159504e-02
3.905080454238511745e-02
1.001107139129882861e-01
1.222961001264879499e-01
6.257338575567111816e-02
4.725576244254076075e-02
1.158251470460000404e-01
1.179954424446074956e-01
1.205161207093852216e-01
4.447261891935465339e-02
1.419195131206884564e-01
1.116189166620309703e-01
1.578493556069650861e-01
1.444460204880237408e-01
5.742069649459016767e-02
1.609590085294688167e-01
9.907939647609238787e-02
1.804583024866992513e-01
9.987871349276555843e-02
1.359578332474537798e-01
1.018461861898382059e-01
1.162559146732392440e-01
1.271330160760223704e-01
1.649218506972599807e-01
1.374973324398082175e-01
1.594782659595225527e-01
1.124116746652553261e-01
8.918859930407661840e-02
1.286912477697084722e-01
1.081924822180193035e-01
1.193861574239378359e-01
1.222884811958761392e-01
6.216300373003383339e-02
1.185544799319162707e-01
7.124831603819928305e-02
4.679299423160816762e-02
1.233908974288140115e-01
1.152875249069068714e-01
9.860057860473057934e-02
1.396873878392443646e-01
1.766186194284711519e-01
1.774969904472503968e-01
2.470123906102521250e-01
3.078956646958595500e-01
3.491989426442210220e-01
4.269827827726401237e-01
5.401833600196294105e-01
6.619135606384506376e-01
6.845962730302213028e-01
8.862878698768225094e-01
9.687377535537984308e-01
1.042814229079739308e+00
1.111047548416959296e+00
1.189504207508127243e+00
1.301026500588164048e+00
1.320025971155690980e+00
1.296263008737106315e+00
1.348156900897577781e+00
1.309456248398789935e+00
1.284090883277352324e+00
1.175122964835900063e+00
1.119528441207680247e+00
1.001679596396656491e+00
8.941142712460314890e-01
7.485145485664207454e-01
6.830976082034314611e-01
5.672779249001282942e-01
4.920294063269812224e-01
3.663493760461277726e-01
2.950139234389947962e-01
2.492615995461387457e-01
1.923442812690930592e-01
1.583719788788023053e-01
8.625415415742335168e-02
8.916756751526164204e-02
4.831374246765796771e-02
4.806608984875851420e-02
4.232094280674445624e-02
1.145656221804936675e-02
6.107206431702728866e-02
1.935134018374383424e-03
2.507207892469814209e-02
3.726832046579046931e-02
2.892832816332330942e-02
3.318018694559830145e-02
2.698709786754359408e-02
4.268409145983951408e-02
6.654802874910759058e-02
4.431549883627009662e-02
1.177478759745737569e-01
8.036604524993361254e-02
8.368583596759401888e-02
5.405135762301170599e-02
9.852285969107607566e-02
1.040067473608842774e-01
9.648110585117172788e-02
1.259438347311160333e-01
1.361835633821943115e-01
9.127850951989696648e-02
1.224880096790650769e-01
1.240877581250461881e-01
1.514787252730132872e-01
2.336960578667701682e-01
1.707683265177653842e-01
1.436902818228394385e-01
1.801776021859189947e-01
1.848773338076277473e-01
1.841860972199949875e-01
2.409659911157501222e-01
2.645303742318190210e-01
2.536603346000735337e-01
2.026315791981411762e-01
1.617071447387025129e-01
2.315913927296913977e-01
1.885087750772773130e-01
1.673038480411866979e-01
2.265177874461061780e-01
1.716770483042649731e-01
2.465566241090403343e-01
2.001316892409637227e-01
1.716715439513591124e-01
1.875809853196208354e-01
1.772286383617976968e-01
1.995961492151734351e-01
2.121642469475045756e-01
2.272450220746541072e-01
1.831767035490267925e-01
1.751182514911084342e-01
1.845638653030327869e-01
1.878120472950337017e-01
1.808610054124408784e-01
1.632164656648147083e-01
1.432019231120287284e-01
1.734830471240524363e-01
1.768724543495468482e-01
1.323386025351760975e-01
1.292214511800021115e-01
1.257377875731413019e-01
1.634621327473964048e-01
1.173412434253404413e-01
1.607047435463296314e-01
5.331853084594214559e-02
9.606513810162894962e-02
7.880263192987663201e-02
7.810386583610824662e-02
4.963552346600770548e-02
8.910614845095432557e-02
3.964050272087724092e-02
8.996925163692662264e-02
8.055757145105815753e-02
7.501284745365965900e-02
3.462799074671347316e-02
7.184684509718756995e-03
1.420157387899623896e-02
-9.114941319443188583e-03
4.190836986578237722e-02
7.673107063713080489e-02
5.094570817527337148e-03
-3.521743878664173460e-02
1.742109846349814556e-02
1.260722183819382169e-02
1.209348133613605270e-04
2.498491689971645696e-02
-2.637157482939627220e-02
2.350818891768267915e-03
-3.899728903412590791e-02
1.259215533278335020e-02
1.796205530005878792e-02
-5.949417570199225236e-02
-2.613236244600236624e-02
-1.333060179296300524e-02
-7.586608478319348259e-02
5.203269487936403037e-02
-3.634197706535870209e-02
-6.397892848069461347e-02
-3.255240289584811209e-02
-3.889101701289350566e-02
7.804947679195220478e-03
-4.014194944566355783e-02
-3.234742570890737634e-02
-3.036360380150877891e-03
-4.078763648141526393e-02
-5.078178145619668266e-02
2.234077094428802562e-02
-8.629073277674041698e-02
-1.717328730201417297e-03
-9.654096790425691077e-03
-8.618366502280896957e-02
-1.532482903597356255e-02
-4.459076688761740709e-02
-9.664099426673614102e-02
-3.717041123615825310e-02
-2.131000321375461221e-02
-1.439999906031191879e-02
-3.645088737025792280e-02
2.481902106064007990e-02
-2.661294304682501263e-02
-4.978401625334824554e-02
-2.639333074766682732e-02
-5.107619693117926990e-02
-3.303985802308389425e-02
-6.139491574501968613e-02
-7.388829170176644534e-02
-3.826926504740857382e-02
3.560167695331094284e-02
-1.642212045832016493e-02
-1.012559970512286883e-02
-3.454259602822932346e-02
-3.358261580145752156e-03
-4.821118154052862759e-02
-4.195547011907293372e-02
-3.145430265249475610e-02
1.982429591192974572e-02
-1.335024650819804926e-02
2.406111159682779166e-02
1.860632532100985059e-02
-2.172034716847504043e-02
4.037049158726341291e-02
-1.812529535388409524e-02
2.541273611898363372e-02
2.695503871759109132e-02
2.533701443445325607e-02
5.835939531557966103e-02
1.083598301632164029e-01
4.289519827565508453e-02
9.218549832402180011e-02
1.795471443752021806e-02
8.280690440166169064e-02
6.692260714493011853e-02
8.292787972976550792e-02
1.018246860330315195e-01
4.934903456940612637e-02
7.458202638017533137e-02
7.648292318385212230e-02
1.267694726936666461e-01
9.562715528215455507e-02
9.899471419327360300e-02
5.801770792108910946e-02
1.468649961394230263e-01
9.297836252709515414e-02
8.814769975192093820e-02
6.823336052113901373e-02
9.961808906861398250e-02
6.916319255983656433e-02
1.140852130292765582e-01
1.245350124415526005e-01
8.215302631461357530e-02
9.435738084815900595e-02
3.374553136721812618e-02
7.623538921848965755e-02
2.322848363773505342e-02
9.222088454070724584e-02
4.145898128684206985e-02
4.760741309066442856e-02
1.560996550456054122e-01
1.555527762685223192e-01
1.639570409972332943e-01
1.755282374751943042e-01
2.529311218562246277e-01
2.726837071505333610e-01
3.234251313625105539e-01
3.930791076467168854e-01
4.736282157971667961e-01
5.625676885481382117e-01
7.073186682838193962e-01
7.527486440816786306e-01
8.896005567358844512e-01
9.453493505136079111e-01
1.104406761626156364e+00
1.185378515378456843e+00
1.289510186261865865e+00
1.292975492870060750e+00
1.301574421188986586e+00
1.341370101268711590e+00
1.275012633344197344e+00
1.260135752638011919e+00
1.110962247602050867e+00
1.137898588039096159e+00
1.018683338972976138e+00
9.506768224533455047e-01
8.631473362261868898e-01
7.091567436384781375e-01
5.776353537828970985e-01
4.766778837135615676e-01
3.964158929584563062e-01
3.273140780383781423e-01
3.337642432866264053e-01
2.334558632797988642e-01
1.271659404235457869e-01
1.642690128515311154e-01
6.776612992621092180e-02
3.882339267615371459e-02
3.543303916098015233e-02
-2.973854413081142983e-02
5.742847474213179371e-02
1.673740060618152115e-02
1.437150451351393993e-02
4.013431083713070446e-02
4.769811960409196805e-02
4.098117939131163540e-02
6.737192674658572245e-02
-1.136308600017714443e-02
3.789134643664925778e-02
1.392760949594076120e-02
3.682830608475611694e-02
8.790644866685944081e-02
2.427821201856691924e-02
5.806045687020847806e-02
6.534270130798058851e-02
5.184194738444142248e-02
7.409049696781795646e-02
7.799774979512988371e-02
7.271152171427328059e-02
5.794634915985136248e-02
1.243870639627299712e-01
1.003488652930493163e-01
1.227943940082966978e-01
6.612839056888430989e-02
1.545219114828874085e-01
1.333189849219431067e-01
1.072862909008753529e-01
1.619700828392946490e-01
1.957473262692226712e-01
1.693026169100977918e-01
1.275430080586339721e-01
2.078263496259338539e-01
2.092255930245230933e-01
2.077087942863510284e-01
2.064894097763837200e-01
2.800724206715715647e-01
1.654245100689387127e-01
1.999992387996848975e-01
1.883425387290288411e-01
2.007088607523150325e-01
1.729208157439373894e-01
1.925636887744904824e-01
2.380517576766754129e-01
2.009727838836154468e-01
2.061597145875377901e-01
2.164159376489624698e-01
2.089437526443737037e-01
2.053009923895051936e-01
1.686697763004447181e-01
1.823618255969038371e-01
1.633909607237495898e-01
2.514614947035352932e-01
1.782281503934574629e-01
1.480794636921324292e-01
1.543719534285104000e-01
1.149708287878098700e-01
1.328794475879221948e-01
1.177659744233008066e-01
1.316656038077866353e-01
1.269776478105842377e-01
1.388651879450898130e-01
1.449693331628670867e-01
1.277641359533365772e-01
1.338687475110829916e-01
7.793989355073570324e-02
8.713733842748691560e-02
8.987261347342506701e-02
2.568913060514372432e-02
1.355647356310382134e-01
6.507476540247281172e-02
3.102726214398275617e-02
9.552430523208366164e-02
2.163037977417456292e-02
2.311866119514011803e-02
1.309966109549366015e-02
6.766835543531313224e-02
4.185817947846828119e-02
-1.413579403609589724e-02
2.393769995868526290e-02
4.490654600029501953e-02
3.203477749453595425e-02
-6.978463156317935012e-03
7.961332923913606863e-03
-1.484356238101638623e-02
3.786929843998717432e-02
-9.128695094478923855e-03
1.938712884412689685e-02
1.518957000137245023e-02
2.162607380930927498e-02
-3.961470670597502797e-03
-3.392678961929723042e-02
-2.911367942077145582e-02
3.560533593910292227e-02
-6.044494379628082698e-02
-3.046309640396968610e-03
-9.854808175854230107e-03
-3.770557920315807665e-02
-3.350960761160175216e-02
-8.124528299464249537e-02
-5.143647170017541514e-02
3.147971150107807536e-03
-4.935562794654807517e-02
-1.856653142390628577e-02
-2.895966941615842061e-02
-4.425710417341517655e-02
-4.492284168165142089e-02
-1.685926424248254674e-02
-4.495194137327040290e-02
-1.692400583581635254e-02
3.349148125406202492e-03
-6.970494197539434111e-02
1.121322749021803900e-03
1.288357343013506878e-02
-5.014203447765139265e-02
2.868942618693227226e-02
-1.306858392644226485e-02
3.056766920406409072e-02
-2.474158740652764379e-02
-2.074105895136450078e-02
-3.465227726168039479e-02
-8.515345994275776847e-03
-2.348465447590344923e-02
-1.060349302096594629e-02
-1.393475413368331500e-02
7.152406464840720124e-02
-4.405675710003873619e-02
3.622090690775803257e-02
2.979110295986799051e-02
-3.708392722299189842e-02
-1.735015169304260363e-02
3.724225971376138311e-02
2.895050631458782539e-02
-9.803808984497494605e-03
-4.786535354734199055e-02
1.460779122649769751e-02
7.791561184810162632e-03
3.979646078785749330e-02
8.156514442323291314e-02
6.670601817209688422e-02
1.455031642552078938e-02
6.253098085444080967e-02
7.984871443640068067e-02
3.401313510994322109e-02
5.308710366583529322e-02
1.297224832027299712e-01
1.417298595404253014e-01
5.912288510098132749e-02
8.113409382479611076e-02
9.887889071742410330e-02
1.292392552794002225e-01
1.102477368167635863e-01
1.114178405135842348e-01
9.890521553519480979e-02
1.588658118398411645e-01
1.449595135952156388e-01
1.235719957181465323e-01
1.561136234726144822e-01
1.339601861693208718e-01
1.007621201211914841e-01
1.345431717307918884e-01
1.416115448725247250e-01
9.241997966200966863e-02
1.778685004504164113e-01
1.415680001136167543e-01
4.239284431835459166e-02
6.734795578121635651e-02
6.394337244778403040e-02
1.419045512144475052e-01
1.334984459488053055e-01
1.028561440662907334e-01
1.021576230838880245e-01
1.089848266635762147e-01
7.580025074720517231e-02
1.048669740538777789e-01
1.455089596091151960e-01
6.621468760554242994e-02
9.221738493777048573e-02
1.253220353789501473e-01
1.275286458672394985e-01
1.400630680305331444e-01
1.836535683509875061e-01
2.416202656347327393e-01
3.464675061695952074e-01
4.181663619151321232e-01
4.902103892380356709e-01
5.989054469509808021e-01
6.641569085922273130e-01
7.632519776488069230e-01
9.058277216702558254e-01
1.002576567475798486e+00
1.148202195041561957e+00
1.172151607203659074e+00
1.248528202396274489e+00
1.339230908490824712e+00
1.305474602370802817e+00
1.365260221651788619e+00
1.363753932886548670e+00
1.285965969868087866e+00
1.236316934043772076e+00
1.173137479737452971e+00
1.045306083856922807e+00
9.178613955433209126e-01
8.301319930678369152e-01
8.177693213970876895e-01
6.888124928212931986e-01
5.446751447310491656e-01
4.464835963257737794e-01
3.816269853648870392e-01
3.373363269280101329e-01
2.392006158285840955e-01
2.324494333532198809e-01
1.480427532372784183e-01
9.022337493171178613e-02
4.752195452749625321e-02
1.042176829892103446e-01
8.209183658426914831e-02
1.268829754136470596e-02
-4.597257948435296004e-03
7.161380521328575277e-02
2.700438879205754178e-02
4.645530331300413984e-02
2.592181493936263070e-02
5.261416740779382983e-02
3.978332275315530492e-02
1.239612703940553146e-01
5.407141377718963082e-02
9.238846689237503740e-02
9.963903170069374204e-02
4.421915601985902666e-02
3.599853127665537944e-02
1.334550777475311811e-01
1.647502731582257129e-01
1.585530829329084845e-01
1.201455953396104170e-01
8.995152003498529947e-02
1.589142989034308118e-01
1.716309013166157915e-01
1.865986413283122480e-01
1.581859441618820583e-01
1.107729732061294436e-01
1.511755090291984904e-01
2.088481983093330441e-01
2.211816754299600341e-01
1.506628869117015435e-01
2.176669096464300124e-01
1.822809008002298226e-01
2.510533021357314598e-01
2.471495151565054338e-01
1.896723055590862350e-01
2.061174313189659824e-01
1.918968019759182964e-01
1.831239146314730115e-01
2.478404166487621352e-01
2.788470394572713507e-01
3.084548559242520915e-01
1.952055579287030329e-01
2.658149549792407917e-01
2.765140002031793998e-01
1.968622614397601556e-01
2.815828683664227672e-01
2.265829574764899046e-01
2.274358829176940655e-01
2.665158436314583046e-01
1.571522299114503085e-01
2.845646135359494733e-01
2.739067604027899949e-01
2.448617231953573170e-01
1.854992321078018924e-01
2.356019118150183833e-01
1.869994496579217569e-01
2.346107114112033210e-01
2.536895651118588613e-01
2.230136218296094597e-01
1.872658107144361261e-01
2.211701089537712606e-01
1.671077439415833699e-01
1.520439071257176089e-01
1.409387562721639287e-01
1.837313444149027419e-01
1.261959301810924305e-01
2.187583378032633696e-01
1.853953618575168716e-01
1.664734305320254015e-01
1.130548389280273819e-01
1.575195918057406830e-01
9.650866116944439854e-02
7.828529525424671176e-02
6.600536641121355907e-02
1.310242240840868433e-01
9.738767157347102965e-02
5.738808423045006074e-02
9.834157852310984604e-02
9.843377031426608914e-02
8.422264442482954583e-02
8.641058738135770634e-02
7.902727284463417767e-02
4.725096772551625607e-02
6.870546781682980442e-02
7.454166742778418897e-02
-2.695914892874805985e-02
2.180786803587652506e-02
6.134742256875602012e-02
1.909745420462045928e-02
5.026592126600547966e-02
3.889392193300349881e-03
1.537934649119831500e-02
3.898840747615277963e-02
6.466450365879894413e-02
7.356218393415343837e-02
1.915859116011719293e-02
2.261404671832521057e-02
-4.857727929910956449e-03
3.888647755400841122e-02
6.783746935954872159e-02
2.390726194394063309e-02
-1.391676069962101761e-03
4.247383385525398819e-02
3.349931724806754635e-02
4.747672876993321717e-02
2.060047650854945206e-02
-3.571071713899708067e-02
-7.336848342092194830e-03
3.463706482195755276e-02
-1.220176489938287756e-03
2.852232429478560038e-02
-4.783426716752033070e-02
1.745987871606996533e-02
2.175404980879267272e-03
7.934106984213550040e-02
3.346398781877638062e-02
1.193212525576399334e-02
1.748924803370099923e-02
1.026916341819146261e-01
4.948319218361149630e-02
1.610114185220900065e-02
-4.923808071949473120e-02
-3.719039440152022841e-03
6.091855613021139593e-02
5.635439419134811306e-02
7.118425432654866200e-03
-3.123591288318197656e-03
3.273929466882302686e-02
3.967753646649779808e-03
3.126994408247074642e-02
2.478710141422330038e-02
4.423809605641829124e-02
7.471404498226877355e-02
1.962921409824226748e-02
6.495872489172820063e-02
4.506548963498631377e-02
5.413889405280620376e-02
2.742702169453587954e-02
7.734851642901849345e-02
8.042268451425410580e-02
1.492634514466497642e-01
1.294871840437823718e-01
1.480033423323941499e-01
1.088311585146059524e-01
1.245188780811290474e-01
1.240772081576024116e-01
8.643803840603572763e-02
1.452755337750651354e-01
2.152210813763923980e-01
1.462139904595869122e-01
1.356271755150808556e-01
1.067038824600789471e-01
1.517127168946165450e-01
1.368760227957482312e-01
1.244925567665454008e-01
1.487805136183332211e-01
2.113494720693756546e-01
1.309811263923797708e-01
1.240580686222672452e-01
1.324807313756232174e-01
1.269959868366840883e-01
1.440758959595298816e-01
2.376265968788290051e-01
1.529441184640197571e-01
1.739167782713088029e-01
1.365022586806304838e-01
1.381826699182144291e-01
1.712990180885399782e-01
2.170142407293757514e-01
1.544851672160310607e-01
1.517508039984511448e-01
1.446723716940064575e-01
1.611441241405856262e-01
1.441962817531390051e-01
1.290690926266691296e-01
1.320424504405729171e-01
1.319783795206711241e-01
1.460580697794920946e-01
1.414890329529907009e-01
1.258176996741919851e-01
2.227457360931134334e-01
2.573906983985926322e-01
2.579409373759763424e-01
3.450637957981974036e-01
3.211551847617641897e-01
4.074222742883860660e-01
5.580226682102956692e-01
6.143993446344733211e-01
7.267458859292968976e-01
7.982122495924228733e-01
9.095427964489877226e-01
1.050340299391737675e+00
1.132388299190401959e+00
1.126098510878955183e+00
1.263425497281927212e+00
1.356344107508250074e+00
1.422395490676951368e+00
1.410039184525883948e+00
1.388849561160426349e+00
1.327756498041392064e+00
1.315839448475303985e+00
1.244337208913788517e+00
1.142899089446140826e+00
1.091521115945801146e+00
9.540518755791141947e-01
8.937120890204395263e-01
6.798768139437153524e-01
6.983036792974717244e-01
5.736983786004420383e-01
4.801245025123648813e-01
3.591277840066546267e-01
3.365602926056009414e-01
2.187492753231180254e-01
2.670510919081834356e-01
1.590054107394505978e-01
2.114768335101225860e-01
1.250288891125273250e-01
9.121722492975044283e-02
1.178315890994774406e-01
9.370532134936718216e-02
5.680410998201007589e-02
1.377144338607790564e-01
1.103300698328343599e-01
9.970274007022116025e-02
7.713335273899341038e-02
1.095131896506957581e-01
1.160113468378355800e-01
1.551006512534942317e-01
9.186104390705815415e-02
1.728705008783348318e-01
1.655289261970821213e-01
1.130103855366911547e-01
1.164015862360191084e-01
1.807671280554288551e-01
1.598014493048408868e-01
1.035741033593668842e-01
1.851417718056619643e-01
1.600410973678898785e-01
2.192118125364944103e-01
2.154761397470253970e-01
2.166371142220235579e-01
1.560390578282188079e-01
2.000025489337787787e-01
1.791405629909228747e-01
2.498944093342225226e-01
2.578702499332060638e-01
2.640216692143569910e-01
3.318263230198725822e-01
2.332477538553299201e-01
2.561807599339203101e-01
2.830704858269378343e-01
2.226556237602781430e-01
2.984979577896722525e-01
2.786192972595412654e-01
2.897199884507302148e-01
2.310067867467489600e-01
3.022526300717939818e-01
2.840329196472569095e-01
3.583498226578424317e-01
3.235934221080222217e-01
3.080974874560001298e-01
3.545844380875903812e-01
2.574423630043545796e-01
2.823243613026043541e-01
2.607343406113273865e-01
2.792578734131607732e-01
3.368283246262326336e-01
2.950463994250495658e-01
2.851653318601445886e-01
3.184626375524958197e-01
2.970810151044531722e-01
3.131236925873082111e-01
2.588019197075548949e-01
2.631339036989016611e-01
2.325982939026587926e-01
2.213102516379077400e-01
2.552497602146620026e-01
2.202850249388520476e-01
2.068714781483775855e-01
2.111361782581395174e-01
2.704129136282164558e-01
2.276272740476040224e-01
1.926172440506247752e-01
2.419136631374357860e-01
1.347356390841061291e-01
1.992787172902676929e-01
1.603066899886033958e-01
1.929960833988525748e-01
1.966845718102476215e-01
1.935313165576759975e-01
1.837062639438991063e-01
1.770919056541083170e-01
1.193804186794589772e-01
1.327678239930736581e-01
1.487825705972206924e-01
9.996870145734708391e-02
1.543201021273327422e-01
1.072752242227099084e-01
1.246001402841279693e-01
7.708929100039230153e-02
1.320264131167001032e-01
1.077989987371095887e-01
6.691244681388443249e-02
3.500234093696889121e-02
1.018840784364479501e-01
7.035092838387399516e-02
7.123038697769093486e-02
1.311106645450451497e-02
7.983419791352894257e-02
5.648485245815594580e-02
4.463083586796930124e-02
9.010033517660609448e-02
6.000886367065179361e-02
6.550249597124084555e-02
5.633531214421461791e-02
1.064831872622292730e-01
1.115391545206107643e-02
2.539831296130284910e-02
8.424491809589200464e-02
-2.929761020984897324e-03
8.082090271051195485e-02
9.303649163558684598e-03
3.190491076286190025e-02
7.599613956036341267e-02
6.897612962629201538e-02
8.771848776881610577e-02
2.292478310885855824e-02
4.992382131043624632e-02
8.478773196344066565e-02
7.268997545220540202e-02
9.540062904950000200e-02
7.334767761330400482e-02
3.889790861292843904e-02
7.633182795194773385e-02
2.314989731694523656e-02
4.439711645431008297e-02
6.015330072794258104e-02
3.293261998422082615e-02
-3.454117293329728167e-02
6.899225287664419171e-02
6.388332734611792962e-02
8.923018177006036833e-02
6.299049822005330090e-02
4.015624590579623676e-02
1.983283773122328231e-02
5.119555029962066794e-02
5.469510925389450828e-02
6.585580099261700848e-02
9.507517989690181248e-02
4.407564259805527712e-02
8.554123077680955700e-02
1.099256333469675606e-01
9.430172069248837774e-02
1.221527386264972537e-01
1.101818042725266344e-01
1.370593770830230707e-01
9.239206072410971471e-02
8.027690855567211348e-02
1.124949131219020737e-01
1.163415132428150395e-01
1.283554729220177382e-01
1.670237026462144669e-01
1.144899162527463349e-01
1.772912468160132704e-01
1.538958282645437048e-01
1.967758396144056732e-01
2.118107794992288018e-01
1.931179959976273008e-01
1.838934479176699277e-01
2.022759385424350576e-01
1.579361725550280093e-01
2.137272702129032198e-01
1.903033970718538415e-01
1.642163756788004303e-01
2.120344483883866149e-01
1.657445809860442210e-01
2.313682779467563788e-01
1.901633746236324196e-01
1.904836780517654704e-01
1.786122859624653114e-01
1.580390930243788516e-01
1.910052460849398781e-01
1.665619383290040667e-01
1.381465353851253908e-01
1.680451058602396852e-01
1.898855754215659219e-01
2.383808658825849469e-01
1.105271155064476429e-01
1.867834932396031655e-01
1.901324254752007337e-01
1.593048784250362393e-01
1.441050881758904612e-01
1.306167027513029932e-01
2.015998279507191238e-01
1.037273786720454838e-01
1.771194237650339509e-01
2.152337992871913297e-01
2.057154461958508596e-01
2.197390759707950059e-01
2.741003263037770088e-01
3.645104297627524970e-01
4.116152284053512522e-01
5.575999804977684882e-01
6.119003616425150449e-01
6.469920581463568521e-01
7.914081816096256716e-01
9.202111798408104670e-01
9.953811873094620122e-01
1.118020265300007754e+00
1.212270292793888427e+00
1.283241735895265245e+00
1.332283192800308935e+00
1.374224759022603992e+00
1.422435093713298349e+00
1.427255098846696990e+00
1.411305976191099543e+00
1.351191440772584906e+00
1.268829216779041369e+00
1.139378144347018118e+00
1.117454703771330493e+00
1.045288355075508546e+00
8.297635689048453722e-01
7.401774398328250237e-01
6.364090068141868839e-01
5.731789063432949360e-01
4.784108647986535789e-01
4.552681826726322489e-01
3.769105550684453965e-01
2.696594169639937588e-01
2.661972025608947412e-01
1.794228079036792323e-01
1.753168351529186542e-01
1.474487825452717449e-01
1.213230916401769888e-01
1.234631618237758410e-01
9.641380488833613260e-02
1.383198142203643788e-01
8.165372187372679780e-02
1.593212965634731026e-01
1.098295580614267741e-01
9.436269552313919506e-02
1.670003446061621155e-01
1.052186036485917020e-01
1.143613496198748747e-01
1.157750121026251133e-01
1.181405946097571213e-01
1.400724088925377475e-01
1.210235056545644339e-01
1.425490005748708544e-01
1.923238513184667986e-01
1.618814062738122839e-01
1.897792800119730561e-01
1.909594642026061495e-01
1.121793991908205390e-01
1.697235336016767182e-01
2.074976032866126252e-01
2.858071498693645629e-01
2.363452317991379115e-01
2.075024458749327727e-01
2.067008585970682710e-01
2.712555134488882080e-01
2.500112659497507606e-01
2.375221399568596958e-01
2.339437169142438988e-01
2.334592054924248261e-01
2.820392705499004116e-01
2.868311548918581200e-01
3.045485970567267664e-01
2.817755736926751409e-01
2.409802885394135563e-01
2.292389487416610638e-01
2.787302039407619780e-01
3.405995279990267077e-01
3.242120989491589778e-01
3.029915869836972697e-01
3.280797177950952048e-01
3.121081321432662148e-01
3.144763862790955211e-01
2.984941538689244167e-01
3.131348875927387754e-01
2.506388489815530307e-01
2.582796719441018962e-01
2.782770522047803285e-01
2.290147118586848829e-01
2.482322531505506413e-01
2.502647427818273096e-01
2.663118533372238472e-01
2.640692129757075124e-01
2.413714556658436150e-01
2.431730685297386618e-01
2.719134979918279016e-01
2.409039885508363343e-01
2.358286427871465474e-01
2.453394691420268670e-01
1.997467533367132120e-01
2.166921224984664773e-01
2.201461786022137490e-01
1.975910468744880855e-01
1.411991658575066089e-01
1.940306299489667485e-01
1.965583800440023621e-01
1.523549623927440422e-01
1.617397555898150430e-01
1.421658719269501547e-01
1.837539320861666658e-01
1.724643166262886385e-01
1.003279400081334427e-01
1.440834372705201427e-01
1.276402561108876954e-01
1.248547337484815223e-01
1.128760308076264679e-01
1.243579910755734097e-01
7.714087586223626614e-02
5.732162823932770990e-02
5.908977098453695870e-02
8.326380344202138906e-02
1.149550010087147800e-01
1.244275643209555027e-01
5.469412069370167828e-02
4.903240524648404264e-02
1.101243781471035188e-01
3.965736299110551866e-02
7.526747627310156896e-02
4.605822377380993510e-02
8.546933070767109841e-02
1.018527990396187466e-01
6.056318685316973427e-02
6.824914534087733742e-02
3.681588288777941365e-02
5.514308668451898404e-02
7.295684702922269893e-02
3.896364092110753130e-02
-7.681977317260564597e-03
5.557290401172360755e-02
-8.272361878658054946e-03
-1.813168753970764713e-03
7.442511501095021992e-03
4.203301973811197911e-03
5.143971629586165106e-02
9.690369447360597244e-04
5.840038902595384718e-02
1.692070841281220067e-02
8.541018176639536552e-02
-1.820452563234581031e-02
6.907553019065160171e-02
8.271241393840186862e-02
2.937358354282832221e-02
4.571910124540846249e-02
2.668436318270003133e-02
1.522966911406582746e-03
3.320138321492886735e-02
8.166512003312957624e-02
1.303931165295524677e-02
2.209426996440017402e-02
5.811462366005819280e-03
4.042829241830181441e-02
7.649704594546817560e-02
1.638789813831121114e-02
1.810848627406495132e-03
1.845280658447004049e-02
3.851679650416355710e-02
1.637192217904885269e-02
7.771997523108162276e-02
-5.346863657107330664e-03
5.418989526399928258e-02
2.333206012114848876e-02
6.346653736511650989e-02
9.919944866886573620e-02
5.043867510650836689e-02
1.326800746492423980e-02
3.229319615409656508e-02
9.806600737830629966e-02
7.965234034396803664e-02
5.099880809742488030e-02
1.054453377661666441e-01
5.124240258814223570e-02
1.014778734693553980e-01
1.267978993790716546e-01
1.248000621606688426e-01
1.399911612978653186e-01
1.485037859562491347e-01
1.195883244082426439e-01
8.813737727146617185e-02
1.370485549040074691e-01
1.210772440161317631e-01
1.923317719154348238e-01
1.790031404415152461e-01
2.254515188180535312e-01
1.786079396295806587e-01
1.773936217181073804e-01
1.054549652502567575e-01
1.639845819711693575e-01
1.491734247511733447e-01
1.903470002245209458e-01
1.491342352247161107e-01
1.605951921074146305e-01
1.549765734070113199e-01
1.640000900595788014e-01
1.436922298799379882e-01
1.403603583043436243e-01
1.613533079397578840e-01
1.672711465225524274e-01
1.988068578618626403e-01
1.162936328306425765e-01
1.437368436846818143e-01
1.382589325882366271e-01
1.255551173739942739e-01
1.226336363108990607e-01
6.373585275362204927e-02
1.047323565892242098e-01
1.624508695286625837e-01
1.556036087903068243e-01
1.798209715192862768e-01
2.210633024424807080e-01
1.927156818431827456e-01
2.516837243071381458e-01
3.167939130661304725e-01
3.660932676699020227e-01
4.751021990062055944e-01
5.548440974579774698e-01
6.127882782649969329e-01
7.184760622378139061e-01
8.946389757292392275e-01
9.347999116395067087e-01
1.040396335858246202e+00
1.186856817774174289e+00
1.192628652618624940e+00
1.277078493827041639e+00
1.380756256318853792e+00
1.317563316932998552e+00
1.437107602913541449e+00
1.356279085365740933e+00
1.331710681685274622e+00
1.245114868284205034e+00
1.153094577148684019e+00
1.140482089577292468e+00
9.931919989717915564e-01
8.742341007941910602e-01
8.055186850242107566e-01
6.726160226110179385e-01
5.549402786374297847e-01
4.438160910414596927e-01
3.806000897343747580e-01
3.608768281506573583e-01
2.331189217017650417e-01
2.014736946486911928e-01
1.960951287659607745e-01
1.493080447961341872e-01
8.850442319629119037e-02
8.358875620184853805e-02
7.383657822061760745e-02
5.538453690399014473e-02
6.758544084703925481e-02
4.105224224794635363e-02
1.173430051993610973e-01
4.745595236152215513e-02
6.180913765333750920e-02
6.822319810504696991e-02
6.900181546049395653e-02
8.025942066305981337e-02
8.698541438402644654e-02
3.004564406466031165e-02
1.505602022178972876e-01
1.626917706042919631e-01
1.083572461943543702e-01
1.456299492881771573e-01
1.612142845662137836e-01
1.094733499430468465e-01
1.872892808987881019e-01
8.452915193110517589e-02
1.105867315619652735e-01
1.424008635940727518e-01
1.575775554195946448e-01
1.578359450664938990e-01
1.692485723361174810e-01
1.740759863499737048e-01
2.147206485658252895e-01
1.508759577723382539e-01
2.285377532574874027e-01
1.981701768896660110e-01
1.286047621978894384e-01
2.214204171163274837e-01
2.353364173706966045e-01
1.788703155135623057e-01
2.392597656368850301e-01
2.723718328121416676e-01
2.517176227674901567e-01
2.208609064483271767e-01
2.212170906001834636e-01
2.242775957330634118e-01
2.376310228307188799e-01
2.838981088674355502e-01
2.057503733431194359e-01
2.197687559015084890e-01
2.215181806344606319e-01
2.681695997386494001e-01
2.674357635244580256e-01
2.300298313592155086e-01
2.103276693486567095e-01
2.850012171311288589e-01
2.314070986103271277e-01
1.868071557542308192e-01
2.621568074915749391e-01
2.591944014865663060e-01
2.289753111027492127e-01
2.019943536200999590e-01
2.181655220028428099e-01
1.796240578974501179e-01
1.469543426833366806e-01
2.264977817140913785e-01
1.123652738714277233e-01
2.281372640470403224e-01
1.609834941919882356e-01
1.312229907681619345e-01
1.463035404980333742e-01
1.611378716600143368e-01
1.143659381730699753e-01
1.717563923682006166e-01
1.108556424897415849e-01
1.088182667942890203e-01
1.456471817133643265e-01
8.361071285210079640e-02
5.237446498508959575e-02
3.807231299337314467e-02
8.768562822287648273e-02
9.174072948296020658e-02
8.771946470498082071e-02
3.117533139433189410e-02
8.931558790522300950e-02
4.124521617154683351e-02
6.542863565971893114e-02
3.066053371533525307e-03
3.996760369424135623e-02
1.701512547246022966e-02
6.808146571168101346e-02
5.738170816272140928e-03
3.968957419198317071e-02
-4.583975229313804606e-02
2.363266590654245977e-02
6.259488720514737314e-02
1.935434826246349577e-02
6.423026969766244820e-03
7.792123550460453019e-03
4.196868415656929141e-02
-2.857630569800915718e-02
-3.473394536024239365e-02
-4.678746428742555641e-02
4.138542429559735614e-02
-2.055290316204560694e-02
-4.309847204780101193e-03
2.291832311293644231e-03
-2.727582968162084107e-02
-1.137388901861005955e-02
1.990793430287871035e-02
5.291282657330588501e-02
-1.393189774201814002e-02
-2.758637806796488540e-02
2.665359468480772362e-02
-2.911259545945660276e-02
-3.884268415360225823e-02
-5.813385540530474627e-02
-3.541496901889104598e-02
-1.397775677658165405e-02
-1.749700008188819628e-02
1.377317796034436409e-02
-4.663509899771275252e-02
3.850334684531550589e-02
-2.078517525249765421e-02
-4.538770992006904009e-02
3.412781655123570124e-03
-4.631356618197941810e-02
-5.231812823082397645e-02
-2.492524698119442245e-02
-3.326101481419155986e-02
-2.758008716382827352e-02
-1.268952391749639599e-02
-8.699359602331815933e-02
-3.851614712365231119e-02
8.123836946815399251e-03
2.020462163152574389e-02
-2.006250678436890394e-02
-1.194667821024771731e-02
4.185661658210765301e-02
7.393263281328772696e-02
-1.394175943300860268e-02
-1.003217440305879254e-02
9.735500236385002948e-03
7.460717315203677091e-02
3.224003915932735498e-02
5.341555338879104553e-02
5.592502677255012378e-02
8.896760688448115961e-02
3.512136576820696493e-02
9.751900029913206092e-02
3.876226748509013081e-02
5.496885089694887594e-02
1.478945064192165593e-01
5.916070682500160216e-02
7.999326599550593553e-02
6.870636369454022341e-02
9.099922144710850813e-02
7.991684817672364827e-02
1.229916610978314950e-01
7.623884287054155662e-02
9.030673827108173790e-02
1.420480762557348176e-01
6.671303310305798373e-02
1.427026043997582927e-01
1.014533098573715819e-01
1.049199589647348552e-01
1.239498319327759224e-01
6.357431286897188838e-02
1.184956681060130856e-01
1.187016448235446719e-01
8.202822766627036744e-02
1.072449438472480032e-01
6.128142183875609494e-02
6.427209646928089271e-02
1.054908097236864767e-01
8.459799045872093415e-02
1.110890412165843333e-01
1.010028614903604044e-01
5.930367927451064836e-02
1.154905215677404229e-02
8.000554590360614560e-02
8.079495171306402823e-02
9.537737978572724540e-02
1.198833759832869106e-01
1.248715569911116596e-01
1.721803300515651058e-01
1.804419283051877376e-01
1.844632440344724233e-01
2.490108820519348343e-01
2.339645631873948084e-01
3.438555143211421972e-01
4.747099193061064537e-01
5.511080173604196997e-01
6.331214389427926026e-01
7.598865513735253430e-01
8.624141353311024494e-01
9.744954667330967268e-01
1.065730650120886525e+00
1.190048518829395219e+00
1.250204778959514540e+00
1.277805255113958260e+00
1.296842794374831964e+00
1.291706263837296476e+00
1.349000399607485079e+00
1.320598939982974285e+00
1.238346551376577231e+00
1.095953500619323728e+00
1.053536810883690444e+00
1.001325495623501816e+00
8.131350441168690990e-01
7.129196579933708700e-01
6.106498513510302262e-01
5.751920019790383032e-01
3.975243820070001877e-01
3.136193074251733548e-01
2.816478128672290082e-01
1.984443118790711336e-01
1.190233695617048948e-01
1.537582611760908435e-01
1.128258855006651351e-01
7.455407588788359741e-02
5.143641101459164172e-02
5.592279199058212968e-02
8.438908466290301336e-02
9.268598421498003281e-02
8.331197109131402434e-02
4.066197412740800432e-03
5.462965873502208941e-02
-2.479042784247125625e-02
-1.916667231683944622e-02
1.965868052135995303e-02
6.221695945796174021e-02
1.275395727159130133e-02
8.791720180022657982e-02
1.065380281693470987e-01
8.264041178606612581e-02
4.417122892728108513e-02
4.414730034137583775e-02
1.185330312194704527e-01
4.359368074983618890e-02
9.947812677264866732e-02
1.165332262930720703e-01
9.314755357019735560e-02
1.552533699603656503e-01
1.073132156520216207e-01
1.318114249265024684e-01
1.064516103691908744e-01
1.356008338851833472e-01
1.751094696719472654e-01
1.409783618642161951e-01
1.562345674626721692e-01
1.518931115589444714e-01
1.721830117596765408e-01
1.642195713693036796e-01
1.678672980328017594e-01
1.556131155998053961e-01
2.019757505996796487e-01
2.166488115542273829e-01
1.603838378062070746e-01
2.272161604852611372e-01
2.199207331001458710e-01
1.881340768180200240e-01
2.234490449485024843e-01
2.297840832599334915e-01
2.120180081730356214e-01
2.148308615177706993e-01
2.181250784017494115e-01
1.723434208398909040e-01
2.401562466659138695e-01
1.871107326145433070e-01
2.151039560010999385e-01
2.102166093498097355e-01
1.383925966157825704e-01
2.162701045361156149e-01
2.202853059692544135e-01
2.075155330601253789e-01
1.932501502763693257e-01
2.051563943276508706e-01
1.813558784706405802e-01
1.817086044060694239e-01
1.197542492736939079e-01
1.251120300977920929e-01
1.035594150750493436e-01
1.091920610920599499e-01
1.732801571727246026e-01
1.190107247747791697e-01
1.213124793709861593e-01
1.345765421640134352e-01
1.420007867114755351e-01
6.641346737796649524e-02
8.655314428140570282e-02
6.752804581844477905e-02
1.205669145132732822e-01
1.164830067172271943e-01
2.239474196862883959e-02
-3.179441229900867305e-03
5.043209407501154234e-02
8.698593193895590159e-02
2.205880388033585465e-02
-6.656548408170308295e-03
3.100091114116174801e-02
2.828333228684742212e-02
2.703798771460819150e-03
1.235283358564088357e-02
-2.988804860325856849e-03
3.166009854591435302e-02
-1.282820035892159177e-02
1.026578875882247499e-02
1.641913113955795200e-02
-2.747268787329193440e-02
-3.077787617864072289e-02
-1.340857497581484509e-02
-3.387964361405542552e-02
-2.307780465725364424e-02
-2.917922324848036195e-02
-2.793036269334633545e-02
-2.094508824348789711e-02
-2.354044849040412904e-02
-2.077921942139805342e-02
-6.037511593729966847e-02
-4.616834442517986359e-02
1.144770973998746055e-04
-3.206302025125532668e-02
-6.100401768020055626e-03
-2.764785572647614556e-02
-6.302034618324289794e-02
-6.837863124960277816e-02
-6.710911699465482716e-02
-5.319515512651046968e-02
-5.374643826066392849e-02
-6.124735821570263805e-02
-6.366522633529961284e-02
-6.180721878181429096e-02
-9.533989512580109960e-03
-7.503197675975922798e-02
-5.675422760686399393e-02
-5.816079481119372507e-02
-9.830834835491776558e-02
-4.736379333019996585e-02
-3.111501554194448169e-02
-3.430099008682767348e-02
1.925183252917224419e-02
-3.984710633543413899e-02
-4.217245822816352574e-02
-3.092457308299322721e-02
-3.707238483262766809e-02
-1.699278753461636038e-02
-8.410741931992554710e-02
-5.897767447293013332e-02
-5.486519987021454270e-02
-7.944254088281810233e-02
1.140179935920707099e-04
3.383971400685855530e-02
3.335365522770038921e-02
-3.858158779150375195e-02
-2.576572291669444736e-02
-1.179973437728314839e-02
1.234563680654764128e-02
3.685939808031381271e-02
-1.594978560537422402e-02
2.974672284840508552e-02
-8.900894949716429971e-03
6.623981155931862874e-02
6.352961863184292124e-02
1.121395083639326051e-02
3.621124353578252658e-02
1.591298272428266769e-02
-1.310887311177893338e-02
8.791627505544497012e-02
5.056220374723416344e-02
5.315615185633187217e-02
9.250371398886697571e-02
1.070047621603890525e-01
1.223021517258824492e-01
8.689133906855346645e-02
7.952031505637430220e-02
8.425619947478027449e-02
7.273041629183868428e-02
1.084840718929963588e-01
7.761442982117963685e-02
8.532512232475503167e-02
1.120975528730082382e-01
1.311684644591806226e-01
6.600277577443833255e-02
4.900207407161898121e-02
3.636240272824754066e-02
1.081003813851093148e-01
1.392845909725219378e-01
9.693370308947196756e-02
9.436316578058770443e-02
1.114250423480157570e-01
6.699460246907348870e-02
9.133587857760154527e-02
8.002198720667588749e-02
2.641398151505754133e-02
7.084666532533091809e-02
6.828247968532627499e-02
2.014586813117461711e-02
7.249042278482684121e-02
4.090181846351802902e-02
6.618619712302023506e-02
1.021233750126625678e-01
1.319561081913042389e-01
2.062233205227953503e-01
2.194346478577997583e-01
2.977632084322303641e-01
3.864396983157183385e-01
3.990322507163964749e-01
4.997058454464511357e-01
6.172590521142148345e-01
6.948129222167697128e-01
8.713606200448539285e-01
9.336189862855901467e-01
1.006333470498423255e+00
1.122290407528525380e+00
1.214695964330578581e+00
1.285503739143239343e+00
1.311469413911370729e+00
1.319067041686452502e+00
1.336233095569569151e+00
1.278244042125182389e+00
1.268299242126221138e+00
1.149973729207433681e+00
1.106649416171200606e+00
9.855079511532688352e-01
9.159758271422704379e-01
7.805340492910018968e-01
6.426583336398763446e-01
5.893770444968320366e-01
5.007527634370411151e-01
3.711766467477320974e-01
3.203695888092294997e-01
2.772245619200799371e-01
1.545502496335523779e-01
1.503336399510924182e-01
9.675204927404221222e-02
7.062497269539497191e-02
4.091730136328677880e-02
2.255323308640102414e-02
3.307572156826711629e-02
-4.322737797055518916e-03
1.477115079838867834e-02
6.542717309522966262e-02
7.663457660391817527e-02
6.073548481427580581e-02
-8.230154300408729084e-03
2.333792694718096750e-03
6.360952555397424157e-02
6.594112851428921007e-02
-9.812191475825515763e-03
7.570789845705019894e-02
-9.711185500338122278e-03
9.382118424243331145e-02
4.200564114583905245e-02
5.566270815506921266e-02
7.274383126528434496e-02
5.460850937113936182e-02
3.865727834278945979e-02
9.803830395380763729e-02
1.015040225458361811e-01
1.170334700646172843e-01
1.278142147080462976e-01
1.724222981925994380e-01
1.820173983548470931e-01
1.387007163285390587e-01
1.531133012100922286e-01
1.755102626031572743e-01
1.101819713164509107e-01
1.379192360153211894e-01
2.158700416124748611e-01
1.679642582263142503e-01
1.485833862292686713e-01
1.577867841224709078e-01
1.907148398055585059e-01
1.670087017275747598e-01
1.985405759228985045e-01
2.785375378978995897e-01
1.863623460895015016e-01
2.047580750273184647e-01
1.782588408154233139e-01
1.785342600444986827e-01
2.471003228476849056e-01
2.232684378253960156e-01
2.296062516042141066e-01
2.320018733888448426e-01
2.258638310013610651e-01
1.799911376161048293e-01
1.765585371224719924e-01
2.039382096955285051e-01
1.646304766921063423e-01
2.328693504450036200e-01
1.543917072969474280e-01
2.166147403957257855e-01
1.929354711597077165e-01
2.081202517451735123e-01
1.664055840440013811e-01
1.410632132538799932e-01
2.097056444252750063e-01
1.580400747901408998e-01
7.732350407871568798e-02
1.085425911084864775e-01
1.287734427861169373e-01
1.666445249545901175e-01
1.268060879396031015e-01
1.045385160659682011e-01
1.119787734236839527e-01
1.482652762309924765e-01
5.785432493511380447e-02
5.621630984500711886e-02
9.899085271021695887e-02
8.249474166445203149e-02
3.717103488448171567e-02
2.881810344412802372e-02
5.332646237702243913e-02
9.734977926435636753e-02
1.536387950028144517e-02
1.672832689916517110e-02
4.308740496278858079e-02
3.580485376311583201e-02
1.095340740472618493e-02
4.052156393373521071e-02
5.140489193101863141e-02
1.935669400527995077e-02
6.955762393054719384e-02
-4.636632472230593077e-03
-7.652922215617438684e-02
1.552796807162972609e-02
-6.369455794393141107e-03
-4.383942244789149761e-02
6.629318799878519686e-03
-1.292939941656144100e-02
2.107075880024647518e-02
-3.653600708219318510e-02
-2.427816152260269325e-02
1.094129194062865712e-02
-1.080444478198365824e-02
1.847117399038044130e-02
4.376054517462077409e-03
-1.825429376165927514e-02
-1.534420740034048505e-02
1.934887227440472771e-02
-9.089564411224021478e-03
2.288442681997962178e-02
-5.619054743401255547e-02
2.046733165782541400e-02
-4.923582347233713269e-03
-5.890458335022977221e-02
-2.361444396910797675e-02
2.199320678725527611e-02
-3.828953177188534202e-02
-3.981735629344640426e-02
-6.224650286654549725e-02
-3.128997309518792569e-02
-4.054927388669977290e-02
-2.872525117204581535e-02
-3.118753117239618164e-02
4.964324365962187458e-02
-2.833752741775646261e-02
1.507748755268965499e-02
-3.198749945462406319e-02
3.502713857844146073e-02
-2.440574650654964151e-02
3.690408655489987866e-02
2.773931842324103142e-02
1.088583486337054221e-02
4.820453532976144706e-03
-3.515971280149340905e-04
-2.211835433477571736e-02
3.252261433656779971e-02
5.410076765196178417e-02
1.594665137498781082e-02
5.936084277524488612e-02
-9.679550685416024591e-04
7.148324557605170715e-02
-3.446452911291442850e-02
1.511809139577864614e-02
7.466066024662190714e-02
5.048139719176694684e-02
3.469659063991371861e-02
6.488831471301440001e-02
9.365568850573618986e-02
6.681794293587373090e-02
9.540073430263801280e-02
7.982224406532217875e-02
6.601718415222278258e-02
1.018944034133404675e-01
8.177803201379896247e-02
1.656581348023417610e-01
8.487119116677600827e-02
1.574922726261688555e-01
1.191743110922912768e-01
1.424104545461866989e-01
1.883780414104861134e-01
1.286397993004247675e-01
1.139035770670467906e-01
1.336704834374081163e-01
1.617655741741147457e-01
1.012397053885780579e-01
8.728371663415396275e-02
1.244177945188952999e-01
1.306197528842993616e-01
7.730873240335729701e-02
1.497089398902326784e-01
8.665680149383407638e-02
1.235716770314777835e-01
1.329270749703790333e-01
1.735038903514358188e-01
1.114240587717738318e-01
1.486920877922310036e-01
8.033839935947892363e-02
1.395334004282908387e-02
1.052834927391763098e-01
5.196742879203148507e-02
1.093580382972983572e-01
6.299107787912867906e-02
7.977982054221634256e-02
1.051392204426795512e-01
1.497456524998738436e-01
1.327064696991828163e-01
1.880666460251022021e-01
2.638049018817900659e-01
3.267663281108605933e-01
3.041710034204258561e-01
4.436309229558948464e-01
4.785865319846786536e-01
6.283227601934412432e-01
7.291984987931542372e-01
7.558888884803255381e-01
9.376201361699059156e-01
1.054138692640482100e+00
1.113404557195206923e+00
1.203664580735736456e+00
1.320921199818656744e+00
1.373397939784287480e+00
1.387585291287015909e+00
1.349317497206181660e+00
1.376194893068018121e+00
1.293182623414066867e+00
1.226624105030736045e+00
1.171939727020718136e+00
1.061656365467894325e+00
9.615141446208983478e-01
8.798786689931634708e-01
7.610899532504011855e-01
6.640830393329885117e-01
5.260378142296810999e-01
4.060677083615984451e-01
4.032465493673296208e-01
2.855358495493705018e-01
2.310897933845004470e-01
1.814298962513436475e-01
2.194931463878792843e-01
9.490868104937581762e-02
1.140059791814931750e-01
1.313866433265230005e-01
8.501843011224570479e-02
9.001510996986704372e-02
8.647867321440691479e-02
8.172222058559866498e-02
9.057205475149086860e-02
1.111704680440710469e-01
9.806359539788646329e-02
4.222242874308698712e-02
1.093030984567013864e-01
1.113376498023138789e-01
1.087491376722506675e-01
1.180798394400633111e-01
1.123272148611468985e-01
9.464487669685803239e-02
8.264537821650076721e-02
1.194332105632976981e-01
1.438493661720000039e-01
1.588245823539427282e-01
2.002536040123954753e-01
1.656686897131644243e-01
1.566976326195990699e-01
1.758580526300458913e-01
2.009858985863334224e-01
1.276058708427704746e-01
1.780241028050712770e-01
2.041324640655871880e-01
1.684137077810813343e-01
1.829272799958819584e-01
2.324333915617904367e-01
2.270772128967004921e-01
2.018803413056238505e-01
2.596275032530228621e-01
2.419445343927681125e-01
2.222336864030045600e-01
2.183374076021542820e-01
2.763815285733747240e-01
2.123708722730007215e-01
2.683337272540203822e-01
2.173357921331362519e-01
2.777177343276490129e-01
2.192068184723347801e-01
2.902583338274277169e-01
2.176483777067302061e-01
2.090385334542398388e-01
2.879915915004965243e-01
2.891318014728752051e-01
2.443215122347678625e-01
2.540232360645380272e-01
2.781559094601769311e-01
2.482695963898143843e-01
2.082853339932485282e-01
2.684373025864424389e-01
2.373970694750986987e-01
2.002209547768758202e-01
2.055688588114382154e-01
2.170747667977652451e-01
2.445192085931269799e-01
2.611679585649001045e-01
2.456445827486692379e-01
2.084174480963600917e-01
2.053517728830467348e-01
1.678696293230867997e-01
1.564957202700215655e-01
1.331330469437596309e-01
1.771868604906163547e-01
2.048487607084555351e-01
1.150442502270285355e-01
1.979696617831557814e-01
1.559269462923261740e-01
1.398331006180263680e-01
1.199722600768165642e-01
1.009109551698177953e-01
1.518640332173910867e-01
1.347617130920309991e-01
1.308748194818164512e-01
9.039895430875088955e-02
1.021639695003740134e-01
1.154085945618550380e-01
6.660090099668945773e-02
4.969031823514376278e-02
1.069213515013319737e-01
5.225735475041221045e-02
8.247460528921725376e-02
5.116831678641493852e-02
7.855936144415114064e-02
4.157343476851194097e-02
6.184717022513727680e-02
9.465275647457256636e-02
8.231554885912425318e-03
7.187504598512593768e-02
1.436619739210402702e-02
2.187990556537461329e-02
1.012571234390844677e-01
4.042287386405081506e-02
4.665175305711817544e-02
5.355108783069699452e-02
6.641701393746389515e-02
4.614596299125332812e-02
8.617257436532754084e-03
5.977618457431362747e-02
3.030617821849600907e-02
4.385241642739796941e-02
9.957748056372010131e-03
6.627256134095974027e-02
6.661086119720283083e-02
2.588132876831881687e-02
2.881458620761754436e-03
7.228293317932815709e-02
3.230421377305568720e-02
3.810689989258756599e-02
1.405797121662866016e-02
5.378360548444439948e-02
5.155106769977034487e-02
-2.042614537241133413e-02
4.094184469102123136e-02
4.361958900043808041e-02
6.089745369628014188e-02
-1.883000373831388366e-02
4.815661214904876086e-02
8.002002701851430866e-02
2.968085799299737329e-02
4.192619241120647960e-02
5.990541630774448567e-02
7.146957960851355041e-02
1.330068097652316317e-02
1.580441322103821183e-03
3.600357170034310800e-02
4.449434507135743844e-02
3.265439427849849835e-02
3.675560412414026479e-02
-1.675016539079902250e-02
8.278203834973382746e-02
5.268812104886380632e-02
2.866588742275592849e-02
1.043609953860879236e-01
4.460542461177728624e-02
3.343147570935251639e-02
1.154800912078134401e-01
1.170173902811931232e-01
8.594281247438156912e-02
3.182200551227367530e-02
1.615366644533084428e-01
1.040002836044172929e-01
1.071792116895650265e-01
1.403340450968167397e-01
1.767147386075896831e-01
1.562699193610341264e-01
1.737014566900867696e-01
1.769252267449439586e-01
1.557237531730934765e-01
1.592923186976467897e-01
1.422348251069400493e-01
2.017216539890166194e-01
1.442547797572261148e-01
2.051833830645325429e-01
1.404814185353666089e-01
1.591095811797436643e-01
2.187374857263232886e-01
1.934419851527860723e-01
1.949216954208113639e-01
1.817985681642680651e-01
2.204034448982598315e-01
1.597878801663607240e-01
2.203517245229975607e-01
1.737520682434639252e-01
1.834172819519125364e-01
1.730587470698259078e-01
2.151237503118889061e-01
1.381209639652822840e-01
2.275127076803418469e-01
1.570625843699034185e-01
1.867858704876138587e-01
1.241295601136597621e-01
1.459143383531196214e-01
1.730965494278731420e-01
1.603933159214773474e-01
1.363408077773674565e-01
1.768837374211698066e-01
1.554526862610166871e-01
2.579860661265948041e-01
2.574741919762038589e-01
2.757838463498888393e-01
2.938489041109360045e-01
4.001292756138524198e-01
4.904250849769611342e-01
5.399688332223251397e-01
6.755139698081977784e-01
7.684756739502504042e-01
8.600788160233866497e-01
9.405558681613881422e-01
1.111029631061609901e+00
1.162849991831141683e+00
1.284463369181547909e+00
1.265236650711900612e+00
1.344716841242538319e+00
1.458216845132977113e+00
1.395640617825520513e+00
1.390527726237480000e+00
1.366083163115115573e+00
1.310677718563458605e+00
1.276007753448433313e+00
1.142422436841681543e+00
1.048557203493295509e+00
9.298126177259493641e-01
8.034842559661135031e-01
6.920269779157212087e-01
5.717450396877918894e-01
5.426630138200734255e-01
3.824259346637907675e-01
3.163130585758616165e-01
3.324885825245650350e-01
2.367916946434308612e-01
2.433247635203225345e-01
2.638848400259665161e-01
2.126949949180289845e-01
7.716291008315893929e-02
1.083311384278782263e-01
1.006170013076341102e-01
7.732842336569778485e-02
1.048493213945260183e-01
1.474173234024714341e-01
6.378604146647798290e-02
8.314200398445700801e-02
1.214528765446048764e-01
1.579944523890095265e-01
1.407834010321837859e-01
1.351670678799042069e-01
1.548377181685644255e-01
1.356205398054315947e-01
1.698532972835574695e-01
2.041430886693538505e-01
1.539571316222110853e-01
1.563640698402984086e-01
1.456189608059942908e-01
1.861102423345264156e-01
2.088952113434073277e-01
1.846590479951541741e-01
1.922732550654700223e-01
2.083625071252682981e-01
1.434095840817410372e-01
1.981924358312746048e-01
2.361938720496820632e-01
1.965726431676397545e-01
2.650664113736801442e-01
2.417469572418392276e-01
2.713136855343827869e-01
2.528906954905107418e-01
2.940415464093800724e-01
2.866885859152970562e-01
2.134983867947628233e-01
2.608008737393547327e-01
2.744495458898884577e-01
2.614025080535654078e-01
2.657978601949144148e-01
3.363822858954542139e-01
2.911580354845365592e-01
2.632569368745602545e-01
3.168878904922476369e-01
2.878799621450914836e-01
3.502052060345375306e-01
3.335362114047034643e-01
2.860187133894930844e-01
2.763616614442332420e-01
3.049346599189756146e-01
2.761763357051769119e-01
2.577236034986202240e-01
3.047318587444226567e-01
3.098605186882077978e-01
2.935916611627917838e-01
2.719488792637071439e-01
2.602376685645183541e-01
2.931966036119614816e-01
2.572432120743071149e-01
2.588916163808230864e-01
3.000122686262102767e-01
1.960657803792078546e-01
2.109165168571298099e-01
2.220024083051345409e-01
2.086378011598928328e-01
2.278037253710972765e-01
1.204034550409495974e-01
2.163886390430245776e-01
2.083859574258635217e-01
1.501284605619366830e-01
2.218665929748684651e-01
1.748928519074641474e-01
1.560430342039778873e-01
1.360719165025046085e-01
1.642212011328778032e-01
1.455945013076277994e-01
1.448904291889248630e-01
1.710140421156176593e-01
1.633438688434333819e-01
1.454527306120821650e-01
1.147937558289465337e-01
1.152882189441209460e-01
1.555071375764855712e-01
7.970995352463768058e-02
2.999821982226689998e-02
1.028398197825108051e-01
1.087593692657061600e-01
8.600418435671813855e-02
4.845141126913739965e-02
9.308625124922240146e-02
3.340206375591182192e-02
1.628329769830900164e-01
7.636935179677377394e-02
4.468597796189925642e-02
8.899689745800661023e-02
1.001476768894322966e-01
7.187721269971104887e-02
6.000131935750780549e-02
8.924661696363077323e-02
7.702282823060727091e-02
5.406417537241165611e-02
1.793331435115710915e-02
9.835355757363085927e-02
7.275213275377369337e-02
5.652839751580603089e-02
-2.979179057536876507e-03
6.286449149983180940e-02
5.849436079400449628e-02
3.603055219121186620e-02
2.573189726032164976e-02
3.758938655657362293e-02
5.591054762864350325e-02
5.911565375481978024e-02
-1.687496999094449668e-03
3.858924237397753920e-03
1.160119189369093751e-01
5.642479114418426367e-02
9.401565288935193054e-02
4.132384382460826955e-02
1.132236581539945580e-01
8.005194477209688630e-03
7.612443039636100639e-02
4.422079601528214332e-02
5.330892165862939625e-02
1.187066540180580637e-02
6.288072209573336568e-03
5.657249523631172755e-02
6.128260846780875237e-02
-2.300902335432424006e-02
3.840455417026711338e-02
7.735924710716127195e-02
2.665103530232709045e-02
1.047475121264023201e-01
1.105182854280497562e-01
9.049869128004711660e-02
7.735215137939552288e-02
1.129464734217927868e-01
1.534873947528354599e-01
1.168515750615883447e-01
1.188512582373951743e-01
1.394954007054025613e-01
7.280520127048897838e-02
1.387133205622433363e-01
1.391876835968690607e-01
1.576453307279864213e-01
1.570778420755271632e-01
1.486984739112561515e-01
1.618485069469565718e-01
1.779134564752883896e-01
1.501430107108628342e-01
1.407093868034741124e-01
1.746020483959486447e-01
1.640417310735171885e-01
1.847261182285675485e-01
2.097837843015696868e-01
1.773779413268977978e-01
1.970221368872876744e-01
1.340624175671778495e-01
2.062838112090172316e-01
1.649310433226383044e-01
2.041395810320593973e-01
1.733139062700098931e-01
1.922646676977470548e-01
1.769391589436753454e-01
2.238636482072788036e-01
1.627986931817209382e-01
2.068405644331968440e-01
1.720909855103585351e-01
2.067420966558469186e-01
1.757129581238347504e-01
1.512803650032584213e-01
1.911118679376618834e-01
1.808057896436217338e-01
1.380748311629743652e-01
1.914348758508125636e-01
2.205365817573571585e-01
1.362354748576494468e-01
1.585813831769344873e-01
1.997356748958210027e-01
1.501220544672877966e-01
1.769949429104500094e-01
2.121106793450091565e-01
2.356841960493313848e-01
3.029822925999293703e-01
3.244841685657062214e-01
3.930215254743923969e-01
4.367411327573642588e-01
5.526180916133851539e-01
6.157954713929123525e-01
7.433083628177415969e-01
8.090655729152647080e-01
8.508683227899487278e-01
1.021667165685112844e+00
1.137086274061342328e+00
1.273699193592885415e+00
1.370438678328878002e+00
1.325812232668297508e+00
1.410799875427182215e+00
1.371397637160093552e+00
1.401043600868762118e+00
1.435434571830824568e+00
1.267167923725708301e+00
1.214564028196546852e+00
1.106248580635405210e+00
1.010650045732517155e+00
9.830935393979790549e-01
8.667125417539467414e-01
7.063063407504377444e-01
6.227841590592427812e-01
5.657346994640145565e-01
4.355482616338578472e-01
3.783902429735767625e-01
2.649124180568792619e-01
2.463559634532265230e-01
2.455314374736570215e-01
1.880568526363447235e-01
1.454144148180675222e-01
1.228169953064506686e-01
1.851481881972336652e-01
9.859376923359546019e-02
5.909460852692335203e-02
1.088394240978175498e-01
1.432825283294920926e-01
1.224073665768100339e-01
1.331975681524196486e-01
1.315051208839953245e-01
1.284332916365968913e-01
1.416226774540787492e-01
1.535797055164881131e-01
1.253687606735014171e-01
1.344992056381226764e-01
7.660861502655592903e-02
1.857698533239796612e-01
9.154502795051810971e-02
1.488742660042919608e-01
1.316841668820203926e-01
1.937304002042667395e-01
1.903207517309902508e-01
2.048723386131258428e-01
1.487458921241103238e-01
1.782683872433502015e-01
1.976954668786521652e-01
2.757534456666396183e-01
2.878983538966894407e-01
2.494521785604653652e-01
2.379138195989876636e-01
2.786527370574808371e-01
2.389432520567711105e-01
2.224163168986143246e-01
2.695432823052562599e-01
2.374910581169332180e-01
3.145813614540486913e-01
2.435553940329672207e-01
3.360689946046465093e-01
2.881758862829002510e-01
2.401810718790568233e-01
2.502856911575145893e-01
2.953641985561848982e-01
2.855228048462468138e-01
3.106281022402628267e-01
2.832527830537031055e-01
3.051483835846908743e-01
2.969993876553460588e-01
3.269219310251219035e-01
2.620058186392216770e-01
2.540152683249289334e-01
2.992759648828989261e-01
2.523467435285287608e-01
2.684599518530355056e-01
2.330544607890709385e-01
2.134152444552726013e-01
2.369809222322991071e-01
2.431690425617459295e-01
2.999053777823623146e-01
2.075444735788922468e-01
1.709264364225027977e-01
2.294645664065390611e-01
1.950623011161524978e-01
2.214195460808986160e-01
2.184189843588699720e-01
1.899995035609824967e-01
1.765757448767544813e-01
1.644588361739982851e-01
1.615830780495083330e-01
1.986653841498578488e-01
2.178130844455067883e-01
1.567751225020154182e-01
1.507346250876142879e-01
1.523149558474726772e-01
1.427569988663971168e-01
1.250377987412448766e-01
1.277002381270102016e-01
9.173183323578419646e-02
9.002341424032528350e-02
6.181878615310976155e-02
6.169000859378009904e-02
1.599015928936018960e-01
1.373586539635935078e-01
5.986601828732859842e-02
1.356602021312187101e-01
9.935543579164823891e-02
1.102019328181180480e-01
8.764024348056549674e-02
5.700639016791757274e-02
6.373895469552644244e-02
5.850758770286722255e-02
5.774668048196616305e-02
3.831105157973543895e-02
9.223697221355468129e-03
1.346571039101698841e-02
8.462801812378045740e-02
3.926938969372420485e-03
4.753868541468753844e-02
6.125677925624975484e-02
1.996620325233004062e-02
4.956737175336986545e-02
4.709305197656033642e-02
2.100511260211205405e-02
5.778521585919449421e-02
