1.393694108918314356e+00
1.277345051326386871e+00
1.324236047695316110e+00
1.280611097795368192e+00
1.206736698437721911e+00
1.065309040867912005e+00
1.034914807022635275e+00
9.437501302952020499e-01
8.365179984565257465e-01
7.071799269086181949e-01
5.945230519342609155e-01
4.898595536688426511e-01
4.396935326119125742e-01
4.010917949026598373e-01
2.928552962828848694e-01
2.069915504830791564e-01
2.233543134323011103e-01
1.227437796781006146e-01
1.060410112642371921e-01
9.018639849930362717e-02
1.258418377848677661e-01
1.441761744571244952e-01
1.002022071345983062e-01
7.036464503302911067e-02
1.055956795502725754e-01
6.161735073238357174e-02
5.981445340611348666e-02
3.681671221500216334e-02
8.516826629823784356e-02
1.058336880881763087e-01
1.073023313926778771e-01
1.451443923420457638e-01
1.410194532056926742e-01
1.426981820051239358e-01
1.173157920233807439e-01
8.562201017999163111e-02
1.380972935114977151e-01
1.540493621967493343e-01
1.397796432113017628e-01
1.984857868356962041e-01
1.907612053225287152e-01
1.940607417229474052e-01
1.464767365644950581e-01
1.532465042824580070e-01
1.890591402405543409e-01
1.499709975040558474e-01
2.378247748055704602e-01
1.984458118374620439e-01
2.309785788539329698e-01
2.165024470627224806e-01
2.620648206973992256e-01
1.669909065163285855e-01
1.916242515746414687e-01
2.157147319748753678e-01
2.768843368344506839e-01
2.442739527035573677e-01
2.171423281247282788e-01
1.990369856273779547e-01
2.637401647026210716e-01
2.398143532823473756e-01
2.153868337156057966e-01
2.562484668945784194e-01
2.687635450769123024e-01
2.419542459323708872e-01
2.848658716169973903e-01
2.162252842679144027e-01
2.419417139525416593e-01
2.478105194166590197e-01
2.268592905508779178e-01
2.232414462156677160e-01
2.945068121876779355e-01
2.879204154995586573e-01
2.526011559927149319e-01
2.287522552777713492e-01
2.508305146217225667e-01
1.799634435919727493e-01
1.951779196535589622e-01
2.123656721519742718e-01
2.093547204547502871e-01
1.508280093471387195e-01
1.450857918347610021e-01
1.490811555480570649e-01
1.648791819104084566e-01
1.544906725663753311e-01
1.303088321961033968e-01
1.662486348008088699e-01
1.057067708273959628e-01
8.704849874738611326e-02
1.415825046568247036e-01
1.341236604656673159e-01
9.999756673237247817e-02
1.129263309405046795e-01
5.569610272506453352e-02
4.747660313041054264e-02
8.640727437951446765e-02
8.743362352576564134e-02
7.130560348297021456e-02
1.190295395607702394e-01
4.464021103670323676e-02
3.645036754451445177e-02
9.800379226421618295e-02
7.230804057397398343e-02
5.106355312751313658e-02
1.346099379457870240e-02
1.477398999898775142e-02
2.677505686277836805e-02
1.925586848893051997e-02
2.367682017428854660e-02
3.703113214569856565e-02
5.865522267662381245e-02
-4.910173818032730411e-03
1.167468590058901023e-02
1.680031039814223331e-03
1.328430385877131178e-02
2.329391350743186678e-02
2.525557907236658517e-02
2.332895287064741183e-02
6.438395129877581835e-02
-6.913366504170534096e-04
1.875047949172978928e-02
-1.958836950691676682e-02
-7.948913006234639700e-03
2.275096907062466173e-02
-4.010068529622290434e-02
-1.771200947422672811e-02
4.313637562822719707e-02
1.008377948356256951e-02
5.709438719145788765e-03
-6.024092659684635899e-03
1.531906741451026684e-02
-2.484181664319362950e-02
-2.046354767422287405e-02
1.229230413276018868e-03
9.036109487569337836e-03
-3.411959451665416004e-03
-1.897836197127891755e-02
3.270004914837176813e-02
-2.216034304304311670e-02
7.707023922721485676e-02
-6.555892306755474984e-03
-4.819258286248796069e-02
2.079032390381835294e-02
-1.184782508446397681e-02
3.141039525890174100e-02
3.578513760858055559e-03
-3.157060650603824709e-02
-3.601104255253333164e-02
-7.599866099142954523e-02
1.798002578409016103e-02
5.880689827895456412e-02
1.197007223873254936e-02
4.526112012212708813e-04
2.409957444473250637e-02
3.871945256368909682e-02
-2.217330778156646753e-03
-2.046538263106799718e-02
-2.341945124810847212e-02
3.985177943729877048e-02
-6.278276708361783809e-02
6.821221771829763525e-02
7.694173945593400787e-02
2.704670781881552202e-02
3.494466682948299541e-02
5.598931969616967319e-02
1.013739916278909303e-01
1.480851021284108893e-01
2.981049020083472931e-02
9.005150429417210778e-02
1.006099154334050561e-01
1.174745485985480564e-01
7.927481259126090141e-02
1.255387397386731052e-01
8.067213151760477263e-02
9.491424772594056480e-02
1.614386238432417575e-01
1.641307026014509063e-01
8.981101372245631209e-02
1.426815077913151097e-01
1.295532408122152257e-01
7.715224445420879040e-02
1.667597190590336398e-01
1.346240263330620857e-01
2.037464129945325275e-01
8.996273126508423645e-02
7.396316663518379131e-02
1.714067411365769733e-01
1.596358537030714841e-01
1.596342118465398918e-01
1.334836196705382616e-01
1.490408872604881974e-01
8.839827805203603894e-02
1.136620796037163122e-01
5.811644765365310550e-02
1.083012312994161702e-01
1.084273123235691971e-02
5.635351947709076048e-02
4.137501503791557456e-02
1.013209982336340381e-01
1.162128605998569292e-01
1.297898181485183933e-01
1.432727057640741375e-01
1.783717931063391327e-01
2.320857332120408179e-01
2.616604115007474252e-01
3.183463771918118024e-01
3.649515617342635743e-01
5.110978571380315749e-01
6.090788611753639170e-01
6.793077516062719923e-01
8.241665464806881003e-01
8.945586400983183140e-01
9.773667891870626567e-01
1.102267885344702769e+00
1.184037143647623358e+00
1.263687365667652829e+00
1.252892632806286821e+00
1.318957607008965027e+00
1.337513996818149087e+00
1.309483390135062209e+00
1.242228074427049522e+00
1.190188112638904450e+00
1.103860089855490223e+00
9.320832613797722654e-01
9.379223669765476279e-01
7.914495207464419257e-01
7.559391734553975173e-01
6.072793839364719615e-01
4.974718562436324376e-01
4.049825993181053740e-01
3.310815343580545966e-01
2.944812271463500553e-01
1.541539615806065411e-01
1.734249290954458789e-01
1.330880861020556083e-01
1.050629216901760588e-01
1.131286581313692974e-01
3.600145867716678105e-02
5.780663324133445552e-02
5.568731829464083211e-02
-3.450836783128094498e-02
3.542017360018103606e-02
1.774505787606765056e-02
5.676497416578824007e-02
2.623942681767295337e-02
4.685761000095358536e-02
8.695723755505629926e-02
4.908213630474341643e-02
9.483320748301959924e-02
5.073584669304839062e-02
3.942741853430823534e-02
4.072058248036403150e-02
3.647310114040400869e-02
6.621869635436337942e-02
1.528275078566160849e-01
1.258015711864497732e-01
1.359513466855010733e-01
8.558423651258767473e-02
1.251441365990278720e-01
1.409463334628973386e-01
1.869678431756813808e-01
1.181177191113989833e-01
1.992959054615132120e-01
1.098784908387105547e-01
1.832119201658486407e-01
2.108061988058515523e-01
1.621443303409909609e-01
1.872106476319130575e-01
1.250067650840498146e-01
1.763251254385682087e-01
1.879775773091011126e-01
1.132622547817077469e-01
1.563498874959631246e-01
1.957767386325734993e-01
1.919009959607817506e-01
1.952428137680218279e-01
2.071012789778202967e-01
1.719213919487499187e-01
2.275297224057975243e-01
2.447212765497239761e-01
2.444166463679956214e-01
2.503077088140024387e-01
2.481803173310200006e-01
2.102968926396560634e-01
1.831937643936389359e-01
2.187847565332820543e-01
2.022213289516237578e-01
1.415645962186393714e-01
1.877148201830721175e-01
1.832688686827456670e-01
1.923508478432983670e-01
1.490723907975468610e-01
1.539128614578382792e-01
1.268116569495928159e-01
1.663042210261403697e-01
1.814496330045539396e-01
1.955929397360829103e-01
1.426931355455880457e-01
1.927952348126773519e-01
1.355960096156756389e-01
1.123687597069846500e-01
1.162402263087194826e-01
1.026281589295168217e-01
9.108925669545400727e-02
1.029900855370634583e-01
1.070534667935518908e-01
6.255528890013536958e-02
9.620850344887660333e-02
6.186534068693863575e-02
7.662086362718709132e-02
6.097941941976482705e-02
5.648769001199736156e-02
4.723920440401729176e-02
4.708153112114490252e-02
6.027843513690919058e-02
9.129575240477957876e-03
2.902626217564142908e-02
5.251188731753423516e-02
-3.388351680254365200e-02
2.830359159392941554e-02
-1.216585743100890432e-02
-1.000955251348734087e-02
3.279016512790244170e-02
4.264296385681531215e-02
-5.137783945201236657e-02
2.396208774407333764e-03
-1.993368498905882455e-02
-5.353646089561340388e-02
5.156178790710301552e-02
-6.915397474997092564e-02
-2.123855581107744403e-02
-2.309390992326023490e-02
-1.084952536636120402e-02
-3.785522591263444647e-02
3.246072218957728184e-02
-3.316725833303571513e-02
-7.257303299805090147e-02
-7.074251018202731833e-02
-5.172700318052677465e-02
-7.185958168257038092e-02
-3.625150702648120837e-02
-7.043931484646678842e-02
-3.794625693083366474e-02
-3.046738021800397822e-02
-3.697021300524455656e-02
-7.686689538427572688e-02
-2.525155045699966835e-02
5.732656890912804504e-04
-2.679061324209137951e-02
-6.751430028117608173e-02
-2.183171672228761614e-02
-2.621976264393813261e-02
-8.135712130269437403e-03
-2.659578794682374014e-02
-2.311319635285291607e-02
-6.959583406950629880e-02
-2.874002029714094186e-02
-4.662852291866383808e-02
-1.993984573202758556e-02
-8.612255067870192016e-02
-4.267904529606943859e-02
-5.242255113002194933e-02
-2.827358834612442307e-02
-1.939047720055098178e-02
-2.361242662167988005e-02
-2.071049989179959971e-02
-3.245940268250220584e-02
-3.684270821428792253e-02
-5.563162314991855484e-03
-5.705787399350201183e-02
-1.161222043428968009e-02
-4.381035868106346320e-02
3.988340708561359527e-02
-3.401584705561906674e-03
3.931637628242397320e-03
2.429416756861306481e-02
9.001464251884097600e-04
-1.917958566602949444e-03
2.965861028225232066e-02
7.451891818726971706e-02
5.782800185456490882e-02
4.050711937032703408e-02
4.996020210525724259e-02
3.304215256524297567e-02
6.644544379874441076e-02
5.169728490909081958e-02
3.579778682957267255e-02
6.249458406103582803e-02
9.362073208070401109e-02
1.045579998278969858e-01
7.353751290192245271e-02
1.089377287780158021e-01
9.208646315006011052e-02
9.914343638776582091e-02
9.704549256614007635e-02
5.679631253905270682e-02
1.368195510978118534e-01
9.012876456105095579e-02
1.138882392319887915e-01
1.350563840924668135e-01
8.436083560333068609e-02
7.720051636187580391e-02
8.754117845741157811e-02
1.082805818190568509e-01
5.824971501741757485e-02
6.200663992364760513e-02
6.864824310089757964e-02
9.476563721988112698e-02
7.430904532615159597e-02
5.050019975280284346e-02
3.742654348219111304e-02
7.355635311379681018e-02
1.379231474065188701e-02
4.329726810428173589e-02
2.979459334061732717e-02
7.054660430138165461e-03
6.771840810404466948e-02
7.294578226133499599e-02
1.428943803081529074e-01
1.934950961260800129e-01
1.686712406856350488e-01
2.268388340149795623e-01
3.190938205203459055e-01
3.949403152794665472e-01
5.203790313173741744e-01
6.459256626024105774e-01
7.048916827178991484e-01
7.848386587423158423e-01
9.090051141772258481e-01
1.067090337842270920e+00
1.113507747180529694e+00
1.228673142022936204e+00
1.282118376823978778e+00
1.234649846463322431e+00
1.336967899726480447e+00
1.262129255233353842e+00
1.245381988385480199e+00
1.249731500341254797e+00
1.186454819057322974e+00
1.089169836490574195e+00
1.015967302416543649e+00
8.558724868798279761e-01
8.010924730526328696e-01
6.663578480151746142e-01
5.115092260114094680e-01
4.606068551772225517e-01
3.385944641821656553e-01
3.346172497872451079e-01
2.198501837093586875e-01
2.170566894808462211e-01
1.338301960249873024e-01
4.406928944764923473e-02
1.324686614513822525e-01
1.715815503198891284e-02
9.003063579037171027e-04
3.212192484646789192e-02
2.406682561350986793e-03
6.335148467645206061e-03
4.370373517158882004e-03
-4.092216647196680879e-03
-2.395783054155339181e-02
6.141285116416136947e-02
5.816597809360527643e-02
3.939168546498132001e-02
5.758558667354742727e-02
2.456907159421364145e-02
3.944664155665827954e-02
6.290764802704909564e-02
2.499804571060793706e-02
6.640736728045937287e-02
1.098727628009722179e-01
4.653709099689293249e-02
1.085192660035412537e-01
1.193183118596749248e-01
1.181464894705103186e-01
5.780524906685299141e-02
1.644291783676091745e-01
1.665994038026349378e-01
2.000034827859634712e-01
1.094677785826293215e-01
1.046183018095865058e-01
1.572420871511218954e-01
1.632081065071527837e-01
2.070681358944839734e-01
2.105429029903214400e-01
1.517461515283065054e-01
1.451192353260516432e-01
1.759840395517903167e-01
1.656737780193789644e-01
2.302211429994683034e-01
2.823251211062972610e-01
2.271397075679556510e-01
2.083980496031537510e-01
1.704852662528881513e-01
1.489301580158987615e-01
2.000218529732633310e-01
2.107846743026638436e-01
1.634355334126159631e-01
2.247307867905314893e-01
2.051789669369363800e-01
1.585717279403190128e-01
1.848366719168015870e-01
1.671526970416429836e-01
2.361386079763942991e-01
2.055109872339264121e-01
2.151596822616703708e-01
1.845463929332220587e-01
7.534600244971614846e-02
1.980117973132756171e-01
1.455536994674031248e-01
1.332919754417204172e-01
1.010150124683530520e-01
1.825560753096204247e-01
1.061329197219726683e-01
1.624220410722170826e-01
1.226509498417321653e-01
9.244167218420079601e-02
1.495458107615040277e-01
1.188519578376054375e-01
1.032716070861542518e-01
3.590424984419746113e-02
8.039879090602097822e-02
1.256925600972010337e-01
8.450701634627462433e-02
5.175203134898516411e-02
7.263451463491976678e-02
4.505799785142784730e-02
8.336873660409127584e-02
2.117104976521087811e-02
5.821268285218914734e-02
3.487899545952341529e-02
2.713043934614008806e-02
1.317503812953407794e-02
5.620155386543651543e-02
2.210573985077880776e-02
1.381962441838571060e-02
-1.936743654542881499e-02
-1.690671830686012525e-02
1.349505196609063901e-02
2.819535055235840998e-02
2.202440557664831627e-02
-3.346523628161578862e-02
2.898508991469928714e-02
8.009500021416426918e-06
-5.388940293277638682e-02
-3.809687525831699506e-02
-2.741985963273783217e-02
-2.421145586110136708e-02
-6.671192585409441156e-02
-3.439290363875400353e-02
-5.865070467263040072e-02
-9.484049858763327068e-02
-3.075335917198280394e-02
9.291216864356084681e-03
-3.891075968787084671e-02
-1.205708077378868370e-02
-4.938960852291034848e-02
-8.893939325184932465e-02
-2.414173744770432839e-02
5.778620653613598945e-03
-6.493314358337229364e-02
-3.131547847253959155e-02
-1.591790489704677028e-02
-1.418211910586445954e-02
-3.313382913626368442e-02
-2.988898012339498075e-02
-8.244548373775122119e-02
-1.296405187336973838e-02
-1.258406680324310883e-02
-2.056142043383155094e-02
-3.973918025782716829e-02
-7.799079804319977716e-02
-2.509746925356975966e-02
-4.799151092076858749e-02
-6.186735897090251540e-02
-3.344871867689944156e-02
-1.213537893245020260e-03
-6.555540474605120460e-02
-1.850034530599842589e-02
-1.863613195443774434e-02
7.465812031951023914e-03
-3.470775921969414257e-02
-5.999541492790465280e-02
3.528810674814333859e-02
1.067862141688113303e-02
-1.523371494218462609e-02
4.060484509467941761e-02
-1.762514000354733004e-02
1.825009307651954960e-02
-6.607051742355433271e-03
6.032605502116421270e-03
2.261531309434665002e-02
6.517260136527326664e-02
2.925603335420202261e-02
6.330403539421106118e-02
5.911935072411132752e-03
6.810999922957579333e-02
6.681167686914148141e-02
7.355739373260913871e-02
4.667574929625366298e-02
9.867894471124555311e-02
1.179020087990245158e-01
7.457575545983713416e-02
4.965495868829679360e-02
1.176990315412179688e-01
4.590088595835371127e-02
7.508516922049528197e-02
8.069899138770596225e-02
5.919061009420943653e-02
1.451340638362682012e-01
1.314455688309890680e-01
8.703124938591232096e-02
1.717855817095916837e-01
1.543943926068808703e-01
1.331543570036379798e-01
9.072139382325977719e-02
1.390159128875276262e-01
1.139666147455441619e-01
1.105423994256549691e-01
1.133777908778388910e-01
1.014634481552943446e-01
1.087635520236466813e-01
1.102383177816397830e-01
1.159442791375229348e-01
1.229368489844991363e-01
7.994092991454472552e-02
4.592586578267894570e-02
3.801185940739012364e-02
1.021687537488199654e-01
1.212056694412560615e-01
1.133193964715247248e-01
1.101946724803006261e-01
1.085184951470565401e-01
1.332189070262304043e-01
1.031569225615261848e-01
2.117797822095469629e-01
2.321856467021428394e-01
2.373738672816635975e-01
3.022753476332470379e-01
3.813625194463217682e-01
5.131138541911032247e-01
6.050176690115125488e-01
6.471118351434257399e-01
7.610627009460249059e-01
8.288847792448500451e-01
9.658037101234655530e-01
1.097986347407672536e+00
1.196489918528840235e+00
1.326914089182995138e+00
1.287704482570695141e+00
1.332430338305969020e+00
1.295815785394283548e+00
1.311923602571386738e+00
1.305294213510030055e+00
1.188524826288953173e+00
1.189465761464996829e+00
1.081298372890458381e+00
9.412345006492105481e-01
9.255956631079964581e-01
7.491708594951740352e-01
6.247507246893809763e-01
4.845141318050810719e-01
4.878863043275379896e-01
3.615105468593484694e-01
2.989741349526185421e-01
2.091819106033466213e-01
2.300690217939851123e-01
8.852322098514991966e-02
1.583618170155473848e-01
1.081695271919360379e-01
7.809251151305673933e-02
1.513036936933787220e-02
5.920734930608390068e-02
2.600101032661501083e-02
9.530911787533034862e-02
5.947061722941797413e-02
4.655372440789053851e-02
4.726471547587317995e-02
6.248595512478747477e-02
7.043992073604680992e-02
4.235081823216314129e-02
1.254499968243203423e-01
7.263503039068128220e-02
7.974605379235930047e-02
1.060961189244526148e-01
1.419179932516320408e-01
9.417097759379255972e-02
1.064007001424694815e-01
1.422346261343918616e-01
1.163799601800828143e-01
1.368840825375275405e-01
1.740288853183806494e-01
2.039122718500067377e-01
1.303288153687121032e-01
1.422447594732041409e-01
2.047087927163357135e-01
2.014575868275370607e-01
1.724959116564119821e-01
1.443863383408840739e-01
2.224764429505132757e-01
2.449073431527550582e-01
2.133647842324221389e-01
1.942063771849407983e-01
2.451933060366960904e-01
2.341827877561565296e-01
2.534356409132548227e-01
2.186949516952998440e-01
2.993079310623940614e-01
2.449503592940784624e-01
2.492579345135668978e-01
2.983951702992730382e-01
2.948079745117453965e-01
2.090504482128370534e-01
2.772226766008606957e-01
2.370272032948541885e-01
2.539764051014830049e-01
2.211397336651263756e-01
2.498089338750450750e-01
2.329991010852629774e-01
2.344784756254130742e-01
2.292928722952538856e-01
2.936965140072795299e-01
2.441804150519422678e-01
2.289747747139791734e-01
2.726946385816050311e-01
1.669165094712146968e-01
2.127787397771965516e-01
1.909149654051828515e-01
1.732864160569268785e-01
2.230773846178828734e-01
2.146392372660118064e-01
1.790907920844935775e-01
2.123644265414985910e-01
2.114036310441096689e-01
1.586169355862843133e-01
1.819465351613403503e-01
1.120293578948541452e-01
1.244281032590977970e-01
1.534469170290304607e-01
1.039791875702720941e-01
1.798547207492426636e-01
4.815496241461954957e-02
1.094290713081756128e-01
1.314776972618356132e-01
1.045314470093550441e-01
1.291868819927918799e-01
8.529565548764224403e-02
1.160237743810565852e-01
5.818991414581310001e-02
9.341298664757713421e-02
1.188677573032416585e-01
8.886326822447386531e-02
7.034923626903216709e-02
6.785610810854850183e-02
5.559938742969932485e-02
3.651380781363526562e-02
2.909599690701306085e-02
9.721910818417478506e-02
6.169090575484057620e-02
4.093896670957133249e-02
-7.491164165148169254e-03
8.024846380541045265e-02
4.796650787504938562e-02
6.590440512458636824e-02
3.646044880588110437e-02
5.456273209424906956e-02
7.974294914173739313e-02
3.898211901703464016e-02
7.173200888938395525e-02
3.853578499716583949e-02
3.602511757650684460e-03
-6.712936943218533736e-05
9.538671819430520268e-03
2.808041527320826597e-02
2.810757132955543636e-02
-4.682512612751682513e-03
-2.910382971341483535e-02
-1.032913260562611305e-02
-4.970201938011113707e-03
2.864767954005326828e-02
1.335488667112904801e-02
5.049481843483086263e-02
-1.194631302174820400e-02
1.461777670115096267e-03
2.037940132893081152e-02
-2.809931163022113057e-02
8.487746341015897644e-02
4.378438005223654617e-02
1.600221070996809408e-02
2.149937593554288387e-02
1.744313370807124008e-02
2.050256449396123393e-02
4.252266913601681492e-02
8.298830389122568985e-02
5.220126756391953171e-02
1.158538308462873402e-02
2.856731613338859416e-02
1.695668840023135948e-02
5.056149697012173039e-03
5.168269729259799411e-02
4.814570310842965217e-02
3.782402656295588694e-02
4.368228199175454296e-02
8.707611651057754754e-02
1.347753963294471419e-02
6.633470053621097484e-02
8.909358820496926512e-02
4.557305634524340399e-02
1.122286759028252590e-01
6.147139853479050009e-02
5.966504504959967148e-02
4.498353253388777395e-02
5.186190337858527510e-02
6.477952503947702334e-02
6.255668920937011712e-02
6.927572788091569678e-02
1.699203582421094649e-01
1.375058503834579171e-01
1.256886120977002141e-01
1.435619468742320159e-01
1.252347868764373262e-01
1.784600666042691353e-01
2.091443925703266038e-01
1.278006660347884293e-01
1.835498392444971372e-01
1.731220389779400959e-01
1.671018645397205904e-01
1.995706990720703400e-01
2.044423891784862557e-01
1.918977656858380787e-01
1.455305193154262655e-01
1.770033987324515223e-01
1.891829021314690440e-01
1.820749241642376781e-01
1.732767836258480298e-01
1.811436289021697565e-01
1.558771034138409228e-01
1.508441077153142573e-01
2.328362142733603757e-01
1.471384078159227171e-01
1.108604344586949231e-01
1.827441881494033527e-01
1.238955894035327354e-01
1.594015963360295440e-01
1.273233184564240006e-01
1.382367218100377382e-01
1.168266323206845203e-01
1.751885309939442692e-01
1.758761362093209935e-01
1.281655213548194561e-01
1.875296459226172274e-01
2.235310410958310234e-01
1.870957001276800646e-01
3.327362288108842714e-01
2.982063190930629992e-01
4.459780961039057634e-01
4.983081205550127790e-01
5.642364371168889781e-01
6.932360800686331315e-01
7.180797585971253616e-01
8.699320724307160191e-01
9.602201854834140349e-01
1.094818014236928594e+00
1.153651198362578123e+00
1.241007041770642694e+00
1.329263756308999733e+00
1.308538224515723547e+00
1.383739946356317807e+00
1.375201944559272693e+00
1.338525182303597516e+00
1.328851579361669311e+00
1.283310035351632461e+00
1.174708551428033765e+00
1.064935406512026672e+00
9.336525256575652909e-01
8.575225557675590915e-01
7.413427938129425465e-01
7.233464832804104017e-01
5.682509031448538250e-01
4.700727647291353395e-01
3.891734915881888690e-01
3.428028047698296055e-01
2.906790773661130922e-01
2.232643613634208712e-01
1.966352317538204719e-01
1.086331425310525234e-01
1.084297935996808848e-01
1.404140945209900182e-01
1.137280018456480052e-01
9.037900717858801669e-02
1.139731238366888944e-01
1.019085765209474526e-01
1.368790430888518483e-01
9.349837041853845121e-02
7.581980841830752993e-02
1.087549512741301933e-01
8.774165023523498863e-02
1.192509085483283993e-01
1.581681779255066922e-01
1.305744369351437006e-01
1.374726854207330984e-01
1.356754508529370851e-01
1.560759599675722309e-01
1.659117827982493354e-01
1.817601972600034754e-01
1.865093569526976858e-01
1.810144817529474315e-01
2.054508954580194779e-01
2.168976917393444781e-01
1.519103918322662061e-01
2.305080327253780648e-01
2.498745368424971636e-01
2.462767445382603171e-01
2.234588243669117236e-01
2.602199952579942188e-01
2.891874439014109899e-01
2.198200019588777976e-01
2.615688219232463751e-01
2.475687128954586202e-01
2.441352494274977580e-01
2.760691870012481064e-01
3.114671927758003167e-01
2.897347672647276884e-01
2.833360422732926764e-01
2.474782765146348873e-01
3.471064914813551949e-01
2.634708768332250095e-01
2.657048092595439837e-01
2.774016696581053654e-01
2.820971249761047295e-01
2.465183797147328382e-01
2.574033351892349164e-01
3.318002200727864226e-01
3.194334918005842794e-01
2.884701694484614887e-01
3.067929156530568302e-01
2.955907394941368338e-01
3.247983972795747687e-01
2.769541693608623678e-01
2.587731086895866950e-01
3.094506399877660074e-01
2.163917821208462544e-01
3.022034193384605660e-01
2.377403348321899257e-01
2.444139214824113671e-01
2.299070164720903864e-01
2.158172868456540994e-01
2.501667417043951236e-01
2.390732163832223756e-01
1.957402813398416430e-01
1.061586684810157388e-01
1.910767615504515571e-01
1.674097626120222559e-01
2.633378959317503321e-01
1.505694073582871106e-01
2.235833461620352069e-01
1.587837207543144613e-01
1.183311044428684289e-01
1.271004964492255807e-01
1.873565864543735582e-01
9.472697876555015439e-02
1.865993048909390384e-01
5.845365439627963483e-02
1.321095067413980972e-01
8.786003128025079989e-02
3.331963815886181818e-02
1.513913174314919785e-01
9.110095569795309545e-02
8.446986736345313274e-02
8.659478770631978684e-02
5.965804451173131046e-02
1.253014640725080286e-01
5.611544725449908039e-02
7.036917175224566279e-02
5.451734922337247990e-02
1.176382208075299751e-01
7.151223442720551493e-02
6.717772326722895593e-02
8.225291939568610267e-02
5.532262461527193143e-02
7.007765969752979829e-02
1.236020834535425661e-01
6.406499991991081167e-02
4.658193177986208466e-02
7.327903580244322923e-02
1.673139674899221802e-02
8.352128922008583700e-02
2.250331235065995347e-02
7.465762180596488551e-02
2.999192264236485647e-02
7.702652137503306073e-02
1.051295829964317141e-01
4.815336144942555102e-02
4.892625126345659381e-02
5.329830297628090907e-02
9.183563665632822615e-02
4.481175554590383081e-02
6.742366039543756795e-02
4.476563159318353718e-02
9.676063641602340726e-02
6.701164280761129355e-02
5.141283099331526996e-02
3.627390973686712983e-02
2.712453833515595519e-02
2.297421653118528195e-02
4.505371011905560247e-02
2.960432479109320614e-02
1.465595098526582818e-02
9.465236640470689466e-02
2.117799935521457594e-02
9.649681033542520381e-02
7.774490375932614772e-02
7.072634551680909154e-02
3.682415179904705016e-02
3.899462600380622368e-02
5.320758903540916823e-02
4.269342423100422335e-02
1.013476261437208370e-01
5.314852149192992453e-02
7.538790476329262913e-02
6.089603069771352961e-02
1.132028895958799575e-01
1.163725398720020510e-01
8.497818398673315232e-02
1.040068127497537076e-01
1.132915554397218583e-01
1.183454316871132839e-01
1.455124761814567680e-01
1.963096069947343203e-01
8.404596560600177679e-02
1.305800054853059611e-01
1.702239223327108864e-01
1.349288474856812636e-01
2.033793285769464332e-01
1.371903388261778434e-01
1.912178402251860643e-01
1.179011241355127915e-01
1.993111468997241231e-01
1.517715903027387625e-01
1.646271870997572939e-01
1.763442613542747228e-01
1.959662815876511421e-01
1.949423328421526214e-01
1.874932239904294751e-01
1.585299659508105363e-01
1.685742581580794153e-01
1.986691023436316650e-01
1.831542261954611228e-01
1.499022500984945883e-01
2.249660969129037014e-01
1.904717836648470441e-01
2.642410342514820432e-01
2.044273362509680392e-01
1.720439132748586841e-01
2.399385728201999801e-01
1.282992580063612720e-01
2.146808331041921702e-01
1.346599935017694094e-01
1.670088919786786030e-01
1.704203287272180734e-01
1.829279536579582477e-01
1.749513383677379075e-01
1.193406490964660227e-01
1.392162244604697174e-01
1.647959966466706061e-01
1.642395768279716894e-01
1.287095001440118347e-01
2.527493525629843640e-01
2.068512309415342643e-01
2.690593450414962007e-01
3.189788875195497253e-01
3.811962214179125397e-01
4.669404569543849082e-01
4.761586568553624055e-01
5.997270154214904281e-01
7.473758945591089109e-01
8.149827610676019241e-01
8.988311362966948659e-01
9.726199090884447562e-01
1.139337683965650827e+00
1.247497140348424738e+00
1.267001270025175597e+00
1.339756849433588748e+00
1.367960539545197252e+00
1.394563589121650127e+00
1.355092427413591150e+00
1.376968760100518496e+00
1.333614273004000372e+00
1.239618161377616268e+00
1.144627139801155602e+00
1.037225808230449298e+00
1.000657064283874131e+00
8.968529559356177572e-01
7.150552870531987626e-01
6.408098400013837459e-01
5.685590392743300470e-01
4.610358345018055748e-01
3.138777679076559801e-01
2.717973456318196757e-01
2.462680800322108454e-01
2.202121797274122772e-01
2.573446208606968710e-01
8.916351873985045584e-02
1.624949912174064870e-01
1.283929161124514606e-01
1.424870392949063591e-01
1.218909205769301285e-01
8.090957126223718987e-02
1.156308571483402464e-01
1.062145646907176749e-01
8.288546454135166386e-02
1.021851968766317037e-01
1.561845625542069294e-01
1.211671390215226241e-01
1.638910055555950207e-01
1.383551793706626620e-01
1.875277120089020866e-01
9.769434710054436533e-02
1.340285920474631187e-01
1.711359774649695020e-01
1.797961539928839558e-01
1.632407311168436737e-01
1.462909699686742448e-01
1.984944703489165962e-01
2.367130879167751722e-01
1.791620398179533391e-01
1.713724294251997571e-01
1.807356329413042917e-01
2.438223117030484666e-01
2.654092139953951879e-01
2.705983941600470510e-01
2.540604476422163027e-01
2.461068740228591900e-01
2.946059954815208326e-01
2.481553624346222175e-01
2.599949919926168862e-01
2.714025132816004215e-01
2.350387079604554508e-01
2.862529343926111247e-01
2.559327502970401014e-01
3.336615553453153304e-01
2.994617628733527437e-01
2.805136687722174504e-01
2.609346467415533666e-01
2.698233182719515511e-01
2.965332557444037009e-01
2.880518321203627274e-01
2.486730027144876676e-01
2.836259391603926927e-01
3.058714252871022610e-01
3.112774363922774512e-01
2.738413377862067843e-01
2.931005717932373966e-01
2.551080085902092121e-01
2.462585436299332964e-01
2.498075589362320770e-01
2.792306056399037617e-01
2.301689412099310605e-01
2.675827756635756338e-01
3.009154609031042260e-01
2.500518022539166552e-01
2.348282870079795026e-01
2.423730497092811131e-01
2.281205479611262965e-01
2.335311144022906293e-01
1.819934657526197097e-01
2.539180558888655126e-01
1.465095063801426511e-01
2.091710929453598766e-01
2.002880987963439330e-01
1.474699344369362342e-01
1.038283654017845142e-01
1.375253907221427041e-01
1.811191179679401408e-01
1.518985222010929281e-01
1.458403421085114893e-01
1.758194817740870164e-01
1.293100703966368337e-01
7.839674868417773057e-02
8.598279676061021393e-02
8.797781932826648221e-02
8.732760073951699453e-02
7.200454817137161290e-02
6.814424748866818038e-02
1.021059380940038119e-01
3.948767021376605596e-02
7.352330323641101395e-02
1.024350014633742811e-01
9.109477551610908885e-02
9.780430229777858919e-02
9.886063193192261289e-03
7.489971519306073966e-02
4.351416139266350847e-02
5.966257847945785620e-02
8.019750421389645889e-02
6.057128296373784360e-02
8.302950615028548143e-02
2.664121756659990070e-03
5.656320184409001361e-02
1.072582338481125053e-01
4.565444609562568229e-02
-1.800133117055998516e-02
2.172387335622635862e-02
3.894267538148889207e-02
3.814323397111536729e-02
9.850326524592714628e-02
1.103599656548520380e-01
2.098851349767404464e-02
4.114758768567532143e-02
2.679979659019732577e-02
3.283495639230805951e-02
1.057324193773190313e-03
2.401191200607732945e-02
3.856287126756717532e-02
5.273284896651014853e-02
8.335083648356441527e-03
2.725578604514730663e-02
1.144515181522383004e-02
2.461771345031280728e-02
8.446059257276203325e-02
4.807717196861961695e-02
1.745982121657659730e-02
2.080782795267341334e-03
-1.008558451565497172e-02
5.885812008550660862e-02
4.482013568889019195e-02
5.293881809297085184e-02
-1.807580702297754971e-02
-4.062810306179023140e-03
2.898551244147545836e-02
5.373164058729144876e-02
3.414049415758205197e-02
1.419740033000417567e-03
5.978717365573395920e-03
6.489096096966003036e-02
1.773156694152965354e-02
7.460340571639409446e-02
3.572210360971803805e-02
5.966299116629286692e-02
6.870261155370574468e-02
7.959451071224844798e-02
1.034266800431775934e-01
1.301397570550244798e-01
6.386451068611563586e-02
8.111010624866946128e-02
1.087068851555580418e-01
1.479999427864247541e-01
1.375848146163254904e-01
1.201224638166615566e-01
1.392924105321814987e-01
1.351913443795013936e-01
1.022068544523052069e-01
1.532286532899988507e-01
1.377981064534625211e-01
1.422165208975781636e-01
1.588851734933955095e-01
1.399813574929336946e-01
1.604498234537929946e-01
1.422259254101633785e-01
1.246758917114958037e-01
1.290480325174198639e-01
1.461593706131670833e-01
1.542026910701213838e-01
1.681668743710359737e-01
1.562402157022395599e-01
1.557230519379343425e-01
1.795330338966742989e-01
1.646735035827497917e-01
1.561836769368121214e-01
1.718410030625366625e-01
1.203241049681952057e-01
1.526695364677086164e-01
9.074076247926816940e-02
1.594667774456354215e-01
8.613136613394511976e-02
1.136980555596728837e-01
8.546211013956640790e-02
1.463014106262693070e-01
1.152802469086836451e-01
9.764255452469015883e-02
1.034100543896009083e-01
1.578846737106222864e-01
1.405314220942816827e-01
1.601105686875454182e-01
2.031673657921419518e-01
2.128493293441378886e-01
2.665586204651324564e-01
3.165316876564814863e-01
3.612581308974188721e-01
4.372745054984830126e-01
4.809341528674991872e-01
6.853869600099028458e-01
7.009271098205968054e-01
8.185087247924848208e-01
9.589376528211634998e-01
1.027934424175779515e+00
1.147441524945132185e+00
1.184495775842877352e+00
1.291550814081995568e+00
1.296154359564036573e+00
1.365948201159582265e+00
1.396982251348827919e+00
1.357132612053028931e+00
1.246704930748814721e+00
1.244285885259323488e+00
1.177482080954955102e+00
1.053473690495576376e+00
1.020047380106018586e+00
8.830807768809939562e-01
7.225636074915700036e-01
6.419845495485444475e-01
5.413294704008917435e-01
4.524468803917269244e-01
3.887689483098877297e-01
3.195152690087823544e-01
3.056784976068990245e-01
2.111621438325921585e-01
1.668985560963267833e-01
1.722277452524554608e-01
1.768391822021072035e-01
7.193598284851682179e-02
8.248301055747293831e-02
4.949631904024611589e-02
8.050149084769193941e-02
8.327595235037033028e-02
7.856748007777220044e-02
5.778082022738292856e-02
8.671265192857256776e-02
9.045092763157883131e-02
6.745578429103397944e-02
1.218410312748517826e-01
8.968226547788904490e-02
8.318004917717622404e-02
1.076819128021987981e-01
1.280510222133564024e-01
8.931132443022131440e-02
1.530294196979566368e-01
1.301754010303815545e-01
1.052297841606481821e-01
1.089531701110479506e-01
1.172265916060154928e-01
1.326275963696175175e-01
1.512309863887519590e-01
1.627270804146028205e-01
2.139677504679833864e-01
2.261511459760440490e-01
1.763412920981735355e-01
2.128890953991328105e-01
1.870058215823734438e-01
1.695614165235341808e-01
2.265940494433105190e-01
1.652709613387145504e-01
2.331767224021774054e-01
2.260653411012674141e-01
2.794776673485906415e-01
2.189079105530188640e-01
2.124279573842774438e-01
2.013981196076729263e-01
2.503269844792616605e-01
2.740476469560863548e-01
1.976687612042540287e-01
2.576256124507040890e-01
2.440900198244644881e-01
2.623920173386850574e-01
2.330571883878591877e-01
2.340234689749641495e-01
2.623164898995568040e-01
2.298601703119030892e-01
2.294369331309027149e-01
2.502940839593481570e-01
2.136509207439684366e-01
2.213108092584238629e-01
1.559247535757878611e-01
2.264143590257527427e-01
2.318046824954348162e-01
2.364827748535986984e-01
2.273574835661572036e-01
1.998619511829548001e-01
2.434478602855989215e-01
2.197393943213714063e-01
1.657714830193184330e-01
1.409330971651205355e-01
1.427290523795848864e-01
1.953092509778280028e-01
1.786870491573108455e-01
8.354342906031309024e-02
1.396514629656652184e-01
1.802441649117568490e-01
1.378237165537599396e-01
7.980696043465371203e-02
1.325538313125135814e-01
8.178397189765695963e-02
1.154016678028727400e-01
1.176965460167996302e-01
6.368514493867899473e-02
9.365275751826615536e-02
9.194782856191849318e-02
5.745470967414455926e-02
9.386735869853506109e-02
7.488754379280573859e-02
4.662370049960146839e-02
7.045829267585926314e-02
2.306814702487963026e-02
6.145556055120321437e-02
5.002077469999741122e-02
1.256587567268951586e-02
4.354479223439398916e-02
2.477637991652608881e-02
-2.780224459789145536e-03
-3.689871167855041101e-02
3.002646260897053748e-02
2.684762697696953249e-02
-2.422060246477014678e-02
8.993000609440283954e-03
-3.565342883316368477e-02
4.884258127017783446e-02
3.422702038638768263e-02
2.705996118544935769e-02
-2.824218688844855329e-02
1.583075280723530293e-02
-2.645157518218931719e-02
2.653008673066677148e-03
-2.284410785785608022e-02
4.754311996551480873e-03
-7.558733037721383774e-02
-6.499216869881371816e-02
-5.550005090894682969e-02
3.314776537193686590e-02
-2.755155142916836802e-03
-7.967825878842907383e-02
-4.730688046401028413e-02
-2.997028780078762542e-02
-4.739150289624005641e-02
-1.508631932410612470e-02
2.921582498940362982e-02
-8.719363170105076666e-02
-1.313376506683071147e-02
-4.909270771778849463e-02
-1.898108364493216946e-02
-1.251686172256326682e-02
-6.720255433605010903e-03
5.401440181440803762e-03
-3.867529322894913690e-03
1.346255463345283343e-03
-2.192303898732110568e-02
-2.287025122136127075e-02
9.124057621693118514e-05
-5.635013357643603449e-03
-3.850990040295845102e-02
-9.762224344736610687e-03
-2.875355595630610384e-04
3.068615083586267306e-02
3.215318111471872353e-02
3.732102530663641837e-02
-2.707179132408899999e-02
-3.890340067337177271e-02
3.732389103477605496e-02
3.372853871796141489e-02
-5.340161215644405324e-02
5.503170593828608792e-02
2.781761193144489594e-02
5.858844152017449874e-02
8.432121132356694415e-02
6.260057362169446638e-02
7.622043327038893756e-02
3.707315967124585887e-02
1.165206459787446192e-03
1.297953126287218484e-01
6.457631273395365856e-02
7.377917313976530000e-02
8.938097049718402021e-02
1.040782523890979583e-01
9.970891603244921853e-02
8.155507900134686960e-02
1.758359350389354647e-01
1.278083208041786989e-01
1.299388871895367226e-01
1.598193010475780773e-01
1.204936882596609471e-01
1.632097819339603795e-01
9.853051909856486157e-02
9.961701144916365602e-02
1.325314842611223787e-01
9.011931218500442153e-02
1.152125680830198562e-01
9.802656614570362525e-02
9.876010341637281309e-02
8.156209123079753709e-02
6.847132424528601380e-02
8.521489135269058601e-02
1.103548829758953936e-01
9.887727656730462000e-02
4.462028577090140086e-02
8.882108042621730815e-02
3.694285375173208402e-02
1.011636161906880049e-01
1.088696369766553596e-01
6.499810770972633267e-02
8.682239553908649432e-02
8.064066085044951926e-02
1.055010045413341813e-01
1.536082435430124737e-01
1.279924906389740269e-01
2.077732062893080933e-01
2.555514028720775044e-01
3.520511069503833301e-01
4.031153879484121738e-01
5.139374527341549204e-01
6.635654647154421992e-01
6.990226101950750559e-01
8.869882735376373173e-01
9.408568036224298492e-01
1.003896613679031491e+00
1.120213609565552604e+00
1.169049162267721931e+00
1.238620221739565652e+00
1.293797193229087039e+00
1.319576779920949461e+00
1.309435729916995639e+00
1.215456072483326544e+00
1.247287737131516527e+00
1.173564289834230001e+00
1.035620988935660236e+00
9.421055158917542860e-01
8.856461958854491279e-01
8.117817755794375367e-01
6.588137230574995229e-01
5.517219316467960599e-01
4.552211364534378135e-01
3.969270701095271581e-01
3.571857629279130419e-01
2.453029682947465429e-01
2.137277162216608961e-01
9.135276577190568070e-02
1.363435083122365721e-01
8.386571561317823775e-02
1.075706479871209320e-01
8.960351433762214768e-02
4.598870959677884424e-02
-1.002053065014607558e-02
1.704821225143717672e-02
7.518965371268997167e-03
4.015839299984801103e-02
2.372644014781211119e-02
1.929878555515925076e-02
6.750012591526018124e-02
2.577535524528865724e-02
2.949948107255925822e-02
2.142962878706391322e-02
4.574142092011034694e-02
6.991802027226842742e-02
8.045503635735573589e-02
3.134447511815771636e-02
5.990862928245474506e-02
7.112253091769289715e-02
4.159010564653916470e-02
8.825357751932930150e-02
9.096620320730283704e-02
9.384466661638810048e-02
9.073591628170124546e-02
1.122772127362195727e-01
1.263765942080819493e-01
1.612566486013830014e-01
1.942587533698639790e-01
1.626674065218070842e-01
1.390412992270986248e-01
1.897705925752576628e-01
1.454402409766669402e-01
2.117283665947131133e-01
2.040481304806746055e-01
1.411975238841916003e-01
2.506069169876357083e-01
2.049754613728402008e-01
2.459573488608589042e-01
2.145596887103267403e-01
2.283940625823190351e-01
2.453212332015129449e-01
2.119342648953538299e-01
2.207622495017436126e-01
2.526420079301512356e-01
2.068817824019874574e-01
2.107669806960693337e-01
2.031204196189760891e-01
1.963471326507077730e-01
1.876109748131080945e-01
2.638334122569857554e-01
1.837860255081258942e-01
2.230076639812208217e-01
2.175128582673134248e-01
1.878815316594162066e-01
1.955321032270047610e-01
1.963183063433060482e-01
1.064678831185626173e-01
1.623779199173097376e-01
1.787451543934346077e-01
1.720188995627118522e-01
1.505065503909419622e-01
9.929389024584234225e-02
1.121995056456372708e-01
7.304426188773605055e-02
1.448980406047925551e-01
1.615743333886520972e-01
9.125722303039440764e-02
1.014964635778467794e-01
1.605944375312914896e-02
9.035791547060773032e-02
6.818172433786087727e-02
8.694965546504758447e-02
1.183933279589369780e-01
8.214246466392885471e-02
2.777384908663806801e-02
4.673952146280087316e-03
-2.528269808412961228e-03
-3.147594939338815151e-02
1.243213812302063764e-02
4.843430768023786193e-02
7.629804184426605684e-02
7.810297804282453904e-02
6.127393472521179552e-02
-1.934129067129477034e-02
-1.777906910896730197e-02
-6.055240189221197666e-03
1.159725429997407464e-02
-2.643508789573956533e-02
3.590006102482223849e-03
-2.542909505666340192e-02
-4.773687962013616060e-02
2.532301309041945503e-02
-8.521600292343947669e-02
-1.409916208325163317e-02
3.540972011390669527e-03
-1.020108962448813827e-03
9.540708916195489442e-03
-6.903134840180819021e-02
-4.975548882986246396e-02
-4.556791915000535376e-02
-9.736992964143216522e-03
-6.398634223188209846e-02
-7.945344625468866995e-02
-8.542224401558057290e-02
-1.026571771538229427e-01
-1.161069010186784739e-02
-5.790403293511974664e-02
-5.296838080132041521e-02
-2.965076678499082435e-02
-6.820433074319771916e-02
-5.949197034552233115e-02
-3.000237374060948925e-02
-4.967954829606825023e-02
5.225047905950547245e-04
-5.180903593054908551e-02
-4.689742905919157268e-02
-5.801140956124799936e-02
-6.866935540648073932e-02
-3.862355839240594335e-02
8.809634858676709812e-04
-8.686350113058446953e-03
-4.230780094583899004e-02
-6.604070340346052115e-02
-3.139783020290985716e-02
-8.836395039088687509e-03
-7.913722748618515213e-02
7.886444762154817822e-04
-7.434704779450761192e-02
-3.787444360498257168e-02
-2.978258460015708112e-02
3.316290261667589195e-02
-3.731283992271917926e-02
-2.869301938831268425e-02
-3.271152106776822888e-02
-3.693558996809932771e-02
-4.452960416795626042e-02
1.157500482344722692e-02
-9.172090909184422991e-03
-1.887189117626891788e-03
-3.040827386622008133e-02
-1.878463470621094533e-02
-5.562905667343762128e-02
4.754894297704615608e-02
1.755546770465003792e-02
7.452005923001256416e-02
8.759186110222719202e-02
7.072488983749312952e-03
8.834327957248577778e-02
4.693851266346374396e-02
2.766472723316364124e-02
1.174787444653235119e-02
9.851504093368089465e-02
7.501526488029769402e-02
5.353901479803249708e-02
1.019666621204871337e-01
1.002431016487804194e-01
5.828732107562632769e-02
5.286331004200946204e-02
1.202865868486624745e-01
1.018088203907038664e-01
4.961434953676357312e-02
9.540298924095842736e-02
1.276446148991770835e-01
1.784639488349029635e-01
1.048397934673614557e-01
1.074763215803784255e-01
1.091326386649928426e-01
1.054381030428255261e-01
7.966609544862418568e-02
6.496115141235254964e-02
8.374885176129742703e-02
8.592535371467925620e-02
6.900663138332817359e-02
6.383277060541814318e-02
6.927926728502703524e-03
2.663677265854053761e-02
5.065274097329707653e-02
7.736728915150016539e-02
3.529484398915987142e-02
1.676087260412036928e-01
9.534501204227577298e-02
1.007744990116678785e-01
1.176009479542953484e-01
1.614368163542001522e-01
2.163581476221898836e-01
3.028163877469230436e-01
3.643986939962947091e-01
4.201977091832513889e-01
5.747100557275645061e-01
6.570304616054776226e-01
7.517956603922995029e-01
8.332649401696533564e-01
9.916565287106070548e-01
1.053472901732428468e+00
1.099538468163023808e+00
1.211471144536603983e+00
1.283048172147563060e+00
1.328004829398768738e+00
1.345792272994490002e+00
1.273854883024537754e+00
1.303281698886254114e+00
1.282910596231193967e+00
1.072525839107508316e+00
1.044909788344789092e+00
9.223467045593468638e-01
8.623189938490591899e-01
6.847221975280800565e-01
5.682877308026390573e-01
5.294625804579689010e-01
3.811539359944627892e-01
3.153932115035153472e-01
2.857513714931639304e-01
2.294519608947033773e-01
1.881324792012320501e-01
5.025098014111589739e-02
8.360530787981090839e-02
1.224403161414291119e-01
7.923343457136210188e-03
2.903435693928722861e-02
-1.020018521880106804e-02
7.673233735891814289e-03
3.546910858179089243e-02
-1.628947998915468431e-02
-4.754456252892023949e-03
4.852588875323921025e-02
5.337810751645239576e-02
7.623806310129668806e-02
7.616229814206740278e-02
1.464187872791975625e-02
8.888816015467641829e-03
4.368132018296739388e-02
3.234549976855380371e-02
9.665924427862361556e-02
4.365825311675183146e-02
7.457329202776030730e-02
1.263995517560476123e-01
3.363841673217900230e-02
8.695350447814872985e-02
1.292776553130546291e-01
1.229203879227637741e-01
1.259920494666987301e-01
1.648352587178646689e-01
1.509398465753934160e-01
1.656316089425820537e-01
1.523349238675266726e-01
1.673082266580758204e-01
1.684310980970582794e-01
1.120305047222383832e-01
2.217146834108816578e-01
1.391346206051342627e-01
1.779944239896066593e-01
1.896498245366144142e-01
1.776231809635491210e-01
2.142695104022468988e-01
2.144768095659566332e-01
1.976993740942167288e-01
2.032106979826615589e-01
1.526235996866513178e-01
2.391010385108622849e-01
1.624192278164706682e-01
2.303188160932937989e-01
2.295773761839815241e-01
2.291552052563151920e-01
2.248434324118315786e-01
1.445929693996299004e-01
2.199028329397435533e-01
1.491566924091979329e-01
2.089230582758134502e-01
1.994973848257609872e-01
1.836400364038830724e-01
1.921921704931079389e-01
1.996692297068292932e-01
1.407550533773827273e-01
1.824906485499204756e-01
2.271844877258538675e-01
1.798467783921338381e-01
1.921596784564429394e-01
1.481617981036309484e-01
1.303795314190646371e-01
1.500749133265242563e-01
1.294546479204213563e-01
1.518251059935434299e-01
1.541663996343931031e-01
8.065026097648948789e-02
7.361657104920828198e-02
7.463113037630617064e-02
1.097663008538687091e-01
5.190058312490134634e-02
9.409354191892566055e-04
6.777466823897099202e-02
8.973333074379580276e-02
6.894839419598822183e-02
6.761687940243082950e-02
7.328180002074026478e-02
1.537256574659362149e-02
9.429846782585443732e-02
4.026146811075892451e-02
3.641864001894073999e-02
7.472050494026717671e-02
4.925832011460550691e-02
6.571093963966762042e-02
1.008552560380031674e-02
3.563144970209385087e-02
8.129103774637817803e-03
-1.453330772657722425e-02
-2.098873312333357499e-02
2.554148032010642583e-02
-1.444552025915325430e-02
1.743898850262196043e-02
-2.164036585722731859e-03
-2.221100402699778889e-02
-7.050087759954881683e-02
-4.771803544468811165e-02
-5.141932426018739483e-02
3.498091386554315341e-02
-5.242240833738332634e-02
-4.870344856317057602e-04
-4.730496930693356417e-02
-3.195874877579130136e-02
2.464462845129145388e-02
-6.333130875950919447e-02
-5.701178968292401616e-02
-4.943403336047091923e-02
-2.462322197791521824e-02
1.752246474164284237e-02
-3.108608943549047432e-02
-2.855377022374849458e-02
-2.122870004150999301e-02
2.088142014446893457e-02
-4.752965236034949886e-02
-5.153041320741637982e-02
-2.772057058452026199e-02
-5.535856993747401839e-02
1.197430143073669948e-02
-1.457009939900026294e-02
-5.099632687760764782e-02
1.717577429849928214e-02
5.491711387568414676e-03
-3.289238376377339595e-02
2.484817360516785104e-02
2.422958821696681586e-02
4.121517513909514485e-02
-1.410867385814404580e-02
-5.488899399417303260e-02
-9.772909833632596743e-03
2.124775920438883720e-02
-1.294059603060436318e-02
1.893399796682634223e-02
3.755138485755014216e-02
-2.192742852694325520e-02
3.941664837902397744e-02
2.734282321398033566e-02
-2.903144921920790961e-02
3.942291548488154052e-02
2.618286456584404190e-02
8.019521289739930947e-02
-5.454220239482016758e-03
3.486522287966335037e-02
6.297056240957180084e-02
2.473828842215526624e-02
5.543267791498121544e-02
6.546693764255927250e-02
7.260729427912340772e-02
8.982329653444202922e-02
8.477031627556637361e-02
8.258176781510233322e-02
1.237747704449434494e-01
1.231340628365662632e-01
7.555812457587075814e-02
1.139415689295272538e-01
7.261590733067889436e-02
1.193453038579236625e-01
1.561667910452305130e-01
1.005237980788035862e-01
1.463789570540757756e-01
1.598286257829587831e-01
1.349699360965881945e-01
1.883126171850034170e-01
1.449769890461395372e-01
1.418696410514605488e-01
1.611104654217905829e-01
1.481130000545159975e-01
1.602526625752332123e-01
1.477564889536792936e-01
1.271155692285781680e-01
1.214872300667736160e-01
5.542792299780802817e-02
1.467675827540650402e-01
1.173318801667451727e-01
1.291450506915605423e-01
1.121464051909866616e-01
7.877861554317135140e-02
1.868382656964689692e-01
3.857353874910692676e-02
4.687128393949833993e-02
1.045383544022968625e-01
1.597396652197527189e-01
1.458582040780241340e-01
9.795511720395759514e-02
2.503603157055750428e-01
2.919378111820120636e-01
3.371633881065265181e-01
3.448737628935391042e-01
4.847347544912620210e-01
5.640164114923756911e-01
5.876700670642842628e-01
7.221260745211536269e-01
8.545266165854610296e-01
9.480467824362519558e-01
1.032460654314874215e+00
1.037232271067689116e+00
1.217676861856758830e+00
1.325813409895777006e+00
1.307812128094433923e+00
1.314109351953619109e+00
1.345416092816439813e+00
1.366136301647313811e+00
1.265930070045628186e+00
1.249040462830349973e+00
1.212046856671650019e+00
1.039931053367822988e+00
9.039889651380558222e-01
8.706232935885676039e-01
7.185748536357496885e-01
6.403655498440192773e-01
5.616292709279633311e-01
4.379905841346749540e-01
3.273571715186650022e-01
2.535727071262275367e-01
1.680118788964521659e-01
1.525207403230514069e-01
1.272459916962335180e-01
1.015038468981362407e-01
1.541661888156373450e-01
1.120984532078691670e-01
6.159563352564086103e-02
4.890281361105101171e-02
7.179456884393305149e-02
6.027232048934545727e-02
7.538174117147432296e-02
6.598548864771440481e-02
6.508856231397727732e-02
1.209554132829342155e-01
7.080813467844299103e-02
1.134042633230485236e-01
9.416409768694841698e-02
9.923598692649653052e-02
8.448279812793212107e-02
1.205237244334413094e-01
1.598261486405931353e-01
1.265158510808261638e-01
9.891597486425791896e-02
8.084391318564745910e-02
1.830869224724052391e-01
1.464024741494919235e-01
1.512776764424965392e-01
1.805173036067168890e-01
1.335286986510196838e-01
1.952617317919403683e-01
2.075542995875644670e-01
1.774128156280877777e-01
2.099376941538106112e-01
2.971091239196794742e-01
2.463636384066781870e-01
1.863742758348991835e-01
2.493911949504381553e-01
2.507550407481877186e-01
2.410339524937609446e-01
2.557999997550270965e-01
2.467339229652824040e-01
2.806446548811387109e-01
2.271060784023400392e-01
2.738482402707889674e-01
2.831902084382901252e-01
2.742611633587583864e-01
2.755936252752261839e-01
2.509283823023937821e-01
2.985302030547884455e-01
2.735748313156513567e-01
3.018319123272993343e-01
2.546654552482494061e-01
2.684358126671829159e-01
3.222143981310157113e-01
2.815748322981985741e-01
2.775816953889128080e-01
2.388282650414582098e-01
2.619494134096784776e-01
2.574194322492627252e-01
2.884593580224228959e-01
2.405799163234040861e-01
2.642314395703116991e-01
1.971157235309752009e-01
1.825623165344146537e-01
1.692337954988296644e-01
2.114659117571488223e-01
1.569127805241493923e-01
1.895269737770244600e-01
1.609375556342040881e-01
1.731163404032641240e-01
1.865310647101902641e-01
1.551868182692273113e-01
1.907095144378306850e-01
1.189064528658429765e-01
1.653451384776322142e-01
1.231682081479549551e-01
1.110383004480829383e-01
1.085022089777056553e-01
1.535614539850464477e-01
1.558110023066968663e-01
1.759022413824747055e-01
9.225490436047473208e-02
1.136096090209453291e-01
8.075848468277695147e-02
7.138965982216025075e-02
9.438648201974847440e-02
1.045045966910388563e-01
7.082303536965628421e-02
4.459669340396342496e-02
3.679584583092425365e-02
1.203978109822410048e-01
5.354794005764042242e-02
5.693207097378993192e-02
7.741240341117151813e-02
7.009712907244763924e-02
2.931143069919352195e-03
3.302223476457672585e-02
2.692193726613626228e-02
8.121933064610342701e-02
4.447856135267493072e-02
6.971556003614612362e-02
-2.067590747707314172e-02
1.905326913408968148e-02
-1.124075855064930740e-02
7.152441598878028772e-02
2.146419282001612791e-02
1.822946857056279707e-02
1.985776474472294301e-02
8.311263962132841437e-03
2.665523566689904228e-02
4.882711863272039265e-02
-6.209759326930779783e-03
1.329457258633148786e-02
-2.107363288321081538e-02
4.832423940129378093e-02
5.114933411366449911e-02
4.610845372294748723e-02
6.242388282691475887e-02
-3.681720642446026370e-03
1.300035671374659418e-02
3.865562364075357527e-02
7.246515004649253799e-02
1.174081720547424240e-02
-9.665723235857390239e-03
-3.412727209888489349e-03
4.740793019273779885e-02
3.651980093734039784e-02
4.112045476206614703e-02
-3.939102455367014810e-03
3.168450010945395023e-02
7.332506396608910737e-02
-1.213799253715590332e-02
2.324928257711715227e-02
8.085905508504714900e-02
5.861305929261755032e-02
6.594459954090654830e-02
6.052273969457769298e-02
4.144788919691033691e-02
5.654182006731620774e-02
2.547188128419065889e-02
1.880532610820884881e-02
3.861387399949513244e-02
6.739130254294886657e-02
7.014463866642631218e-02
7.201922172784970544e-02
1.204564436026421825e-01
9.114825233259482573e-02
1.535976055526473427e-01
1.087611341952017668e-01
1.142868808719289531e-01
8.107610793213151923e-02
1.038032782397655951e-01
1.259679488353612209e-01
9.333734508245079831e-02
1.544295601156800424e-01
1.338824538403139142e-01
1.585092767775988787e-01
1.287806510252994530e-01
1.977442409166218495e-01
1.962439731890074368e-01
1.560334437731327739e-01
2.273915823554758520e-01
2.241292541020173390e-01
2.389743493740082991e-01
1.928952864205233098e-01
1.728203516944702978e-01
2.150357814765093412e-01
2.214294533554232447e-01
1.999942614240985128e-01
1.446801351396957980e-01
1.899714831685690997e-01
2.154925513697216743e-01
1.532248099416694542e-01
2.121043136625282155e-01
1.840413768923111482e-01
1.594884865347802605e-01
1.494784581045213168e-01
1.452046533760473490e-01
9.156142859497803932e-02
1.087438653470896854e-01
1.308838803587792921e-01
1.198192110620901751e-01
1.463161444413011436e-01
1.376712274882148090e-01
2.050916397860729212e-01
1.953843882204942817e-01
2.184564193945114918e-01
2.547748994850723703e-01
3.028288695454112722e-01
3.198098356528234487e-01
4.724576045803225988e-01
4.538171751689846212e-01
6.200931814105955509e-01
7.155593253915539798e-01
8.046854729098918968e-01
9.084630640218300801e-01
9.890314837361398048e-01
1.108490226757508967e+00
1.208691180690554701e+00
1.349949477238817641e+00
1.360656181930471220e+00
1.400922796389412861e+00
1.418141021312655958e+00
1.434929279748693665e+00
1.332972669534662202e+00
1.252592783426832890e+00
1.281169073788908985e+00
1.140053850889038767e+00
1.013486974652865857e+00
9.661686831771716388e-01
8.632683135532348562e-01
7.133963779260870108e-01
6.180947253689808019e-01
5.269155962843213858e-01
5.026897238833762938e-01
3.480756138743325567e-01
3.214817361141418806e-01
2.434905012522393386e-01
1.943946382228989300e-01
1.723293421331362762e-01
1.849020312437970048e-01
7.299677086757547229e-02
8.530139327483250711e-02
1.072808429652367113e-01
6.013792809884463408e-02
1.246837588902023619e-01
1.123693439745623301e-01
1.118197131866392885e-01
1.677433832271259528e-01
1.196798978676347214e-01
1.303925343981387208e-01
1.315875315176349425e-01
1.435567044062056041e-01
1.531843763931793334e-01
1.092379191354177354e-01
1.644123411696020720e-01
1.581316593023216477e-01
1.595052391650534918e-01
1.292746774979444402e-01
1.887156813818501311e-01
1.622273339622411770e-01
1.766788364114828536e-01
2.084953258461625936e-01
2.263141860607529310e-01
2.215209971337211425e-01
2.012083609972702136e-01
2.140509293171109495e-01
2.503893822230597310e-01
2.383374982588446211e-01
2.341963555249468032e-01
2.624826399969061863e-01
2.416293991646206174e-01
3.189706740961401610e-01
2.981388096315412684e-01
2.873790592917244702e-01
2.974600391261222332e-01
2.917075766338390053e-01
2.765362024461862078e-01
3.207239880011979460e-01
3.484808157991250988e-01
3.288757343016434076e-01
2.766663175491381743e-01
3.040011606371337827e-01
3.092926323535059585e-01
3.405771590839649088e-01
2.581358955349246087e-01
3.317935685395850265e-01
3.189385609307343605e-01
3.349508911008820533e-01
3.383765199726511130e-01
3.116278854510662333e-01
2.578715054052094224e-01
2.749853562287525310e-01
2.877002664341866134e-01
2.883990058020696190e-01
2.766012992153035199e-01
2.611390358314268356e-01
3.025045759496752251e-01
2.685447035918772096e-01
2.271980325752363805e-01
2.738954139419224054e-01
2.452185860809732165e-01
2.192533157396907295e-01
2.172992193657519722e-01
2.225158535226739731e-01
1.777605912108027875e-01
2.255288250490539159e-01
1.961119454020466557e-01
1.669099901182856671e-01
1.912611872474007380e-01
2.008492360179413294e-01
2.361218732639203399e-01
1.700479672416532750e-01
1.709090234772814298e-01
1.376242563554880005e-01
1.599042541411909157e-01
1.043751955628781924e-01
1.136806977627427134e-01
1.474110918528100667e-01
1.372191593228795636e-01
1.243438681147238795e-01
8.944882773127657560e-02
9.943014702997551857e-02
7.413207377261608888e-02
1.308434941867017698e-01
6.871180267451952595e-02
1.080795799543883967e-01
1.144795427640896424e-01
7.351864606686725478e-02
1.248332412001709468e-01
1.488598005660827506e-01
8.472417339979887441e-02
8.080848321101401222e-02
7.473061515472036176e-02
8.945387161814738475e-02
1.335916613139392917e-01
4.488594678662625320e-02
6.088528783923564947e-02
5.407578323947181964e-02
6.146666531452849719e-02
3.943107808416261573e-02
1.381723529578526150e-02
-4.703134611999192083e-03
3.372513745040510436e-02
4.205146718688863861e-02
8.134638203556936176e-02
5.485697967813719239e-02
8.048365052547741538e-02
3.275399839175797967e-02
-2.378724003946314919e-02
4.176860607224492511e-02
3.461714260103716800e-02
3.835193927675262238e-02
6.800646635049961697e-02
-1.472670184226314988e-02
9.454926324200460530e-02
1.071407976682111629e-01
7.587406406930989611e-02
8.825471865094608459e-02
5.540518007613057933e-02
1.014481739422054829e-01
9.547566428416630335e-02
8.018102108722494070e-02
9.267139961612755328e-03
3.981098823261118580e-02
1.074438224203677350e-01
6.980857984882585243e-02
4.290766731198984718e-03
5.519560068233791278e-02
6.115152097535403453e-02
3.888569561657640589e-02
2.055072651116869945e-02
8.066391235995920561e-02
9.686784001337409022e-02
8.111339322567422128e-02
-1.369423807474533239e-03
1.279950492659611694e-01
8.124253095761818644e-02
1.641893618071692540e-01
1.338333415459505016e-01
1.179946534634681299e-01
1.457858367129615529e-01
1.136682412056751190e-01
1.435728914409930557e-01
1.812677584413006637e-01
1.173111299630595905e-01
1.648929558973512566e-01
2.115921621272568443e-01
1.909169269833819460e-01
1.736008386214678845e-01
1.224458624355188735e-01
1.739266888278248602e-01
1.875514937878287880e-01
1.265373964941740592e-01
2.262517361360904811e-01
2.239427683475523345e-01
1.902618743877678154e-01
2.115613059358059100e-01
1.848605041462337839e-01
1.943776773281162829e-01
1.910782619386113823e-01
2.111829615851819053e-01
1.748100943250947004e-01
1.895177244968266062e-01
1.928440835974323531e-01
1.696435389699968987e-01
1.833574332648263694e-01
1.789705059113042007e-01
1.926638310989443881e-01
2.068622861613601260e-01
1.667434395678086267e-01
1.603273386770828202e-01
1.984402289230849936e-01
1.660088095805315744e-01
1.511084881899147359e-01
1.965239770027527866e-01
1.190590740866573904e-01
1.752809894570536986e-01
1.913918290678139622e-01
1.333003103646564491e-01
1.461544636608100856e-01
1.992832414010957676e-01
1.874409645242114675e-01
2.084413509017016830e-01
2.734843395738799643e-01
3.604831044709217447e-01
4.523574252706930587e-01
4.414745622329152575e-01
5.683758282114819149e-01
6.606067396727425267e-01
7.350667947176525718e-01
8.554269781924092042e-01
9.637212302174488210e-01
1.070255984602743293e+00
1.097254815607564327e+00
1.262365293606290351e+00
1.304700759364586959e+00
1.333105588597061963e+00
1.341526933763498741e+00
1.438412535005889836e+00
1.395020758973375186e+00
1.342901272642913035e+00
1.322597349376402942e+00
1.201467486104499161e+00
1.093259582632186477e+00
1.006455282267849638e+00
8.367761794772684558e-01
7.725122339869886501e-01
6.946533486387181933e-01
6.263571091061483909e-01
5.088187926340468348e-01
4.586723046067141540e-01
3.405742821122875741e-01
2.885694301041002441e-01
2.959011315786472807e-01
2.119576921600962449e-01
1.784178747747273142e-01
1.177501312485890739e-01
1.089652253220680239e-01
1.186324393128237037e-01
1.410894838134314488e-01
9.562901203016363483e-02
1.067193838790874982e-01
1.106999861610212521e-01
1.457079970962272542e-01
1.426931414013616339e-01
1.233291252686578576e-01
8.687576707450925251e-02
7.139950444401760299e-02
1.536626152009362700e-01
1.166934738195213594e-01
1.133706358445280837e-01
1.539370643321616994e-01
1.684946243911902009e-01
1.413824000939530590e-01
1.833885138397498560e-01
1.734036249576780264e-01
1.691014195341439541e-01
1.856680878439386784e-01
2.702298016558398186e-01
2.130412713069360364e-01
2.397748845658609351e-01
2.260267605720351902e-01
1.970383833747784696e-01
2.561310040452493553e-01
2.682401763756123159e-01
2.007518333781278808e-01
2.040265936368787503e-01
2.840022777567123291e-01
2.657636159180685742e-01
2.753078337234027839e-01
2.570278539388682892e-01
2.402914395233414213e-01
3.308811497490106168e-01
2.658321543970765810e-01
2.591838032555251470e-01
3.063282761370881846e-01
2.421544947057366615e-01
3.740250332997551164e-01
2.765497443072304495e-01
2.994199771090096385e-01
2.933586536653353671e-01
2.721774015510127209e-01
2.753355848968537245e-01
2.775420246487509957e-01
2.586513246337867611e-01
3.119669148034824868e-01
2.762125175696681367e-01
2.504649946334913668e-01
2.844196498658196348e-01
3.124354785493195785e-01
2.636257304656971501e-01
1.937207291200061521e-01
2.254205757220037465e-01
2.087446622528010831e-01
2.524518849162096235e-01
2.602876122424696570e-01
2.137074581850233190e-01
2.743687847392725643e-01
1.525019692026577389e-01
2.155161788973641024e-01
1.995576322954873971e-01
1.842127134977792347e-01
1.780614100776893582e-01
2.221142880846506684e-01
1.601467893739509929e-01
1.286708005692025203e-01
1.577969884789384714e-01
1.556469200568359190e-01
1.443276492594587901e-01
1.232349614479505140e-01
1.168468402000083228e-01
1.609799752128904804e-01
1.078229000812462868e-01
9.039311401917567157e-02
9.757096531068046308e-02
5.176035480673808753e-02
8.802746045508874628e-02
1.120348126760614405e-01
1.014511831674635572e-01
9.473477002701691241e-02
6.696932319895798624e-02
4.149091219366776023e-02
9.502633988155007039e-02
8.235355402107832901e-02
1.567767842753663154e-02
8.852578595468944822e-02
8.613153458458033818e-02
5.207571469822715182e-02
2.356589654727067606e-02
3.485481839958447930e-02
4.456637077788473678e-02
4.455271562153323428e-02
3.973738897257235447e-02
2.269156325252437434e-03
-6.209075772965061413e-04
