1.479364251312962120e+00
1.443716248067828056e+00
1.459487202428924268e+00
1.380699083050498155e+00
1.387429884914500144e+00
1.279224363548764787e+00
1.064602581674578552e+00
1.011735112450273810e+00
9.141753558872662833e-01
7.581004090719699606e-01
6.152887192655066562e-01
5.453976245175824467e-01
3.986652563290061235e-01
3.612554935313130877e-01
2.959843832052934665e-01
2.798429139492009110e-01
2.446796561894409583e-01
2.125757106404793373e-01
1.108881754807339998e-01
1.307772565396240760e-01
1.045818794710873106e-01
1.033282123669760078e-01
9.726535433856417501e-02
6.968508404810458412e-02
9.163545596510329350e-02
6.697867373975797955e-02
9.842059167323370661e-02
9.480523681370463251e-02
1.068821137981478542e-01
9.546017380778337724e-02
1.109474623383547714e-01
1.469681362519772716e-01
5.903044949961006038e-02
8.644837353620532516e-02
1.423753787352049771e-01
1.765197395778247969e-01
1.397331509237208225e-01
1.022012473032619523e-01
1.840863547300524150e-01
2.050836311376449117e-01
1.467725238928261622e-01
1.688528486766419368e-01
2.231046123264434633e-01
1.826215048008836828e-01
2.566177754521264398e-01
1.816774062949439716e-01
2.057345901021196410e-01
1.921209837455628566e-01
1.949894972960625472e-01
2.511197904267611913e-01
2.329866294557981499e-01
1.822795031443511793e-01
2.497913101096824739e-01
2.798067778113391690e-01
2.792173211478553019e-01
2.322738719815551078e-01
2.642714560331366203e-01
2.490345462292836987e-01
2.142142935445902341e-01
2.720874179808667193e-01
2.620672370041856047e-01
2.655802733126262360e-01
2.371384276455391071e-01
2.741715960191840606e-01
2.393102944188057468e-01
2.311758429255030556e-01
2.674930320643071346e-01
2.353521433189626200e-01
2.448470697368256288e-01
2.761475590469213426e-01
2.047356860185026162e-01
2.474724761375168558e-01
2.869863131448672777e-01
2.742849116216654615e-01
1.328032239803267900e-01
2.005031644327718299e-01
2.319779321918156167e-01
2.309119347435558134e-01
1.788871348321120214e-01
2.159761510858818068e-01
2.233636429584868743e-01
1.845959948033740194e-01
1.228200775439120818e-01
1.495887172754889194e-01
1.416728727089465734e-01
1.470963308437645278e-01
1.555020193639802539e-01
1.730271557956972739e-01
1.023707401108438358e-01
1.814526240818310487e-01
1.543337678098968824e-01
1.051973200141328030e-01
1.432462573933598882e-01
8.348500155208758711e-02
9.414359491539221747e-02
9.659518100769926008e-02
4.865240542677474328e-02
1.168419591142007691e-01
4.164308061483326662e-02
6.702458132341672370e-02
9.796398682927599452e-03
6.482264870066449525e-02
2.019700720713171749e-02
7.900784815516048026e-03
-6.844917734484881611e-05
3.691932293539176152e-02
-1.136523387105780811e-02
2.974363555156519373e-02
1.318458244133251939e-02
4.789935807686948946e-03
1.240810469941464565e-02
2.236213132973803933e-02
4.736346135196792262e-02
5.161611553305996136e-02
-3.188495750632568820e-02
-9.502906849932057226e-04
5.632216631030721732e-02
-3.809322996092850272e-02
2.528009561797396262e-03
-3.636391891792484926e-02
-6.838282876089740725e-02
2.571269368313309697e-02
-5.869939012789426001e-03
-2.394124814630839773e-02
2.887418357652561662e-02
-9.886514288450871588e-03
3.536273739226502427e-03
7.680029474483457408e-04
-3.619054973710281869e-02
4.795738823978323850e-04
3.665777192986141575e-02
-4.144259849891415715e-02
-1.775528496709197560e-02
-2.410809926000745743e-02
-1.237070115001943568e-03
1.551325324896503030e-02
8.717328334975184626e-03
1.187858124633369566e-02
-1.984223172129986890e-02
9.204657056627837605e-03
4.661643691738430462e-02
6.658942645159595178e-03
4.941956478553670429e-02
-1.130392903292579479e-02
-8.861649182032858840e-02
-6.097999483411746524e-02
3.927164376928964085e-02
3.008114217164739590e-02
2.390533255871260185e-02
1.596331433436451105e-02
4.436921805482053893e-02
-7.625178127338851086e-02
1.107415394760976127e-02
3.531265928242977720e-03
6.441128782827418298e-02
7.484934932188298806e-02
5.125029995118615678e-02
5.120407410998199793e-02
9.809581383877004346e-02
1.577956933754607327e-01
9.693378936118299261e-02
1.162093383351885945e-01
6.613156876933649897e-02
7.412939281314492868e-02
8.922683570414302601e-02
1.163529108800616524e-01
1.072388269432960201e-01
1.285024564778050882e-01
1.591118525489925439e-01
1.040195862061576437e-01
1.653954056327345823e-01
8.222674389756733093e-02
7.349297901249035592e-02
1.504248630350216720e-01
1.427215787441800388e-01
1.013570872264717843e-01
1.100003068432240660e-01
1.891486707462485817e-01
1.302908392237515089e-01
1.777722613734923907e-01
1.600989446861807719e-01
1.142873725585364791e-01
3.552214412395691967e-02
1.271130295393254339e-01
6.098103941058941047e-02
1.349114717078581105e-01
1.376479941403224161e-01
5.358781126602008005e-02
9.770136666402332026e-02
4.541919258854978936e-02
9.006253800345194460e-02
9.302619243321852416e-02
7.122746423673996519e-02
7.912446007807513726e-02
1.364319665863210074e-01
1.219418099580784481e-01
2.061046863561636355e-01
2.364109076830627210e-01
2.452863272796790839e-01
3.173368031745052442e-01
3.478886728340191969e-01
4.482013860152291862e-01
5.404312561146892291e-01
6.535629895120952382e-01
8.072319713077465986e-01
9.286213107697230962e-01
9.852444316960229376e-01
1.103517547956001099e+00
1.255609836571888183e+00
1.266385255420747757e+00
1.402754578351138814e+00
1.427520605727008673e+00
1.493112052497699294e+00
1.415763242143166512e+00
1.416259139085720875e+00
1.379352297377036018e+00
1.251087470405723989e+00
1.192210433857672003e+00
1.107965433446189918e+00
1.024933197520638162e+00
8.199975228083488110e-01
7.564543997796583374e-01
6.009210976141328153e-01
5.254772346314640075e-01
4.093967588544867309e-01
3.500657876420761316e-01
3.222867333111569810e-01
2.702500362907913622e-01
1.926222930236732300e-01
8.554742515585858631e-02
8.399339426294735733e-02
7.478704537015000431e-02
5.602107537329488463e-03
8.432691052206101046e-02
6.589150627982401365e-02
7.391292279401086296e-03
3.141433924605042949e-02
5.381915572702847955e-02
4.021998930513421416e-02
3.475008711839651376e-02
5.002151114659197234e-02
8.957316228201558928e-02
4.885763024960863843e-02
1.779545159717261377e-02
7.805237614300772342e-02
5.012388743678977687e-02
6.517319942802188293e-02
6.455865229691776230e-02
3.915218984622028525e-02
1.369888692391235119e-01
5.010062651263640088e-02
6.629009942312361070e-02
1.853605964948017992e-01
1.428377361803551682e-01
9.692230595033299312e-02
1.252058219854613741e-01
1.578621192803329187e-01
1.640229823457470537e-01
1.449068712312281404e-01
1.558052008284998013e-01
1.417544018983364629e-01
1.852343303306730193e-01
1.079891225297346519e-01
1.898064470216523913e-01
2.255570844819778653e-01
1.760353160955202556e-01
1.808276046647057378e-01
2.083031723162002691e-01
1.530510966372353732e-01
1.342251429616434788e-01
1.823618464291352215e-01
1.890279088805842389e-01
1.983572752940330197e-01
1.956257123109726159e-01
2.524240031621466374e-01
2.593188424038260775e-01
2.393456086074625677e-01
1.841333154201589828e-01
1.932992191688530093e-01
2.182664493369951553e-01
1.843448546902763663e-01
2.026654662005650809e-01
2.451978214679335633e-01
1.631567047596961806e-01
1.863592897940998805e-01
1.628334916733522320e-01
1.986545425290295319e-01
1.469924475947206877e-01
1.324250098883567317e-01
1.809758143575483924e-01
1.938653570615626875e-01
1.690964177559596548e-01
1.272346973020096472e-01
1.488984418250367814e-01
1.097867166571676878e-01
1.323490507084627843e-01
9.960747105662275114e-02
8.373461814067885423e-02
1.211132673412400190e-01
1.265873394585536327e-01
6.321753886303306535e-02
1.302754557208363473e-01
1.092798357451703894e-01
3.481539389635045917e-02
5.783443024438736368e-02
4.946045596161037505e-02
1.707252279159409553e-02
4.892513080928737046e-02
5.153609772011731593e-02
2.836068940450024722e-02
5.053387391591371985e-02
-1.060458055281246481e-02
2.870987825071290994e-02
-5.931573989443682249e-03
-1.972190347017944989e-02
6.316274939697345825e-02
4.745797739479384186e-02
-3.086879891477335366e-02
1.850327899219011279e-02
-4.873965713682364143e-02
2.732427140978437030e-02
-2.196366528039322280e-02
-3.397917179787499076e-02
-4.441453563963630724e-03
1.209375385829026400e-02
-1.956690507921347161e-02
-4.574725531525400402e-02
-4.435567025336851349e-02
-4.706310515384156540e-02
-3.950933306995721428e-02
-1.845201436067978040e-03
-8.636217074636902413e-03
3.258250438006753125e-02
-5.944293462065085298e-02
1.323370957519597740e-02
2.067636419936277892e-03
-7.432547971345426774e-02
-7.922861865268182591e-02
-8.777431065923699260e-03
-6.196639395213848767e-02
-1.801570425259532357e-02
-3.991219943172250734e-02
-8.010201954295687043e-02
-3.518673140441495872e-02
-1.991675232821857322e-03
-5.411803530833762116e-02
-9.244784221911522826e-02
-6.433531881686503640e-02
-6.733449810687520964e-02
-5.688747674443030838e-02
-5.584163947075200529e-02
-6.780764471635176982e-02
7.395373532547634687e-03
-5.514798936464397616e-02
-5.740940622556705425e-02
-5.989510801027982112e-02
-4.149081416794808685e-02
-4.709452229635126275e-02
-3.108295165774251079e-02
-2.943539903291484891e-02
-5.525564002641882022e-02
-8.542600810077703721e-02
-1.751150543742800714e-02
-2.447905277546465197e-02
2.609335587016316238e-02
4.757416734710866180e-02
-4.058734704694578338e-02
4.358378126688167847e-02
-4.112893932762949623e-03
-7.673308296055711408e-03
1.707724133553030488e-02
2.206790497613395075e-02
1.294302205842381981e-04
7.006500589618916419e-02
7.332315570723689502e-02
8.135552697183244530e-02
1.033594098456058763e-02
6.258524871555035118e-02
9.629958174241226576e-02
7.794563740445475952e-02
9.055090739561108548e-02
8.074976139250195084e-02
1.037425898810870883e-01
8.038861339028541275e-02
1.148840872258433399e-01
1.234980940905973240e-01
8.653407922998956892e-02
6.993050216230697891e-02
1.048782779161366308e-01
1.220552437102206400e-01
1.077119126238547109e-01
1.021021955181759255e-01
3.087959272028632102e-02
9.238270092322524440e-02
1.111440653398623468e-01
9.464775448276856185e-02
9.692366170093791311e-02
4.813178580427263098e-02
4.748992308263980111e-02
1.559751315945939742e-02
7.699294513474608248e-02
1.714900133307902669e-02
7.880558112530151871e-02
5.594938220412584706e-02
7.079842676591616146e-02
1.038655169650999077e-01
9.758527288937640654e-02
5.817433711783229211e-02
1.526365256636054712e-01
1.499521905357633911e-01
2.208818759996042658e-01
2.696383734740478433e-01
3.287214643862832464e-01
3.487746937578710127e-01
4.840371349673886492e-01
5.402637228507569667e-01
6.957319245908957228e-01
8.435385830650495853e-01
8.788806292832980205e-01
1.004030811092368802e+00
1.115991420474349960e+00
1.253047205269708808e+00
1.315147204855849461e+00
1.344207752748893592e+00
1.445305763278104338e+00
1.415277919635470782e+00
1.461282729204579356e+00
1.414807929774621220e+00
1.307583422329746892e+00
1.217782403735077068e+00
1.175939252059058360e+00
1.027814304847124882e+00
8.980717277093527295e-01
8.470054825169897050e-01
6.941265004541320449e-01
5.608840224398100593e-01
4.628339820942407590e-01
3.408154680044384044e-01
3.261091132520206881e-01
2.678358331674723924e-01
2.129431471497018613e-01
1.210852545394658919e-01
1.273626637719157961e-01
1.371712410057409487e-02
8.846539889322019290e-02
9.435833327515114055e-02
1.420837031512652004e-02
2.867484065350413280e-02
-2.371707422756440947e-02
7.512106285765145219e-02
3.544992415008253739e-02
4.362139641300923076e-02
1.836153320316396415e-02
5.254987388584614338e-02
5.322437364943354010e-02
2.675334754483511823e-02
5.836682318604634323e-02
6.151906016187015658e-03
1.018035576566547057e-01
6.255734699515447250e-02
7.536597478807950667e-02
1.107839233065257278e-01
1.065559755697774724e-01
-2.907778445499727138e-03
1.066112472296853464e-01
1.313601046919360416e-01
1.025348524514810011e-01
1.634561510698162856e-01
1.177615986893630340e-01
1.385588195653521815e-01
1.755868751797688421e-01
1.726585967225811036e-01
1.252058488347858045e-01
1.857584695697516997e-01
1.574889337170277681e-01
1.458332582942395705e-01
1.945221948229155506e-01
1.996209867910966607e-01
1.573580459164957701e-01
1.529752712196272846e-01
1.812747723276507406e-01
1.952207097805392921e-01
1.557127136849430493e-01
1.678240550687686294e-01
1.994622081061803998e-01
2.217660358629799655e-01
1.885583977185123494e-01
1.512805447105853851e-01
2.076547123234066816e-01
2.275205480186869300e-01
2.142618954167663792e-01
1.048209032221938675e-01
2.136803246143309243e-01
2.552898697192507727e-01
1.858048033695538226e-01
2.253713085664616478e-01
2.005102829618143345e-01
1.738159727908773766e-01
1.986744789126516086e-01
1.770080206921980648e-01
1.742770605114684068e-01
2.330406736794383427e-01
2.110869105542316215e-01
1.476364665730611758e-01
1.481993803440326829e-01
1.821508379273475975e-01
1.235204403924592964e-01
6.826681788020626251e-02
1.283974908968111839e-01
1.640754558246653450e-01
5.300610310467972208e-02
1.171439266119849998e-01
4.808870589155789244e-02
1.010608207700101346e-01
1.255250152938689467e-01
2.182367756876837928e-02
5.886734696127780830e-02
2.309451451034755937e-02
8.163472376734690061e-02
5.625404543196660390e-02
4.037511904691384879e-02
8.858384642226860284e-02
-3.129289149247579949e-04
1.605100372186271662e-02
8.440457723551544889e-02
-1.577015306236134728e-03
1.281988782199743049e-02
5.942966118571632594e-04
-1.204009785611040093e-02
3.371026730462078902e-04
3.836394185745162916e-02
4.122625803527346644e-03
4.391232439233713758e-03
6.804952785137804994e-03
4.954042236086571294e-02
-1.087535553826391929e-02
-4.234007087609030495e-02
1.462447388788879615e-02
8.795071275163199309e-03
-3.658442589580278292e-03
1.499059097846439093e-02
-6.252752302262871986e-02
1.449612345206031244e-02
-6.067092049058008668e-02
-2.687105035956350446e-02
-6.165501764742292029e-02
-5.453829128303090690e-02
5.039341580548100524e-02
-6.515789892062320843e-02
-3.581028839288345061e-02
-4.173648356909386015e-02
7.892537037865923755e-03
-4.707277304652479621e-03
-8.739986735458804556e-02
-5.766842570958952141e-02
-3.253887499232853420e-02
-5.226869165437854348e-02
4.008393306314596977e-02
-1.377491723051151029e-02
-3.454714711745558720e-02
-3.343094397787028937e-02
-3.059694086032750671e-02
-5.277533219541069576e-02
-2.551864323640042065e-02
-3.839731281090295878e-02
-1.765184624379009803e-02
1.912595988167786754e-03
-1.991370768506698502e-02
1.511461941078593579e-02
-2.085300662528609059e-02
-1.817900499252324276e-03
-5.090385781680483585e-03
2.469349205571005207e-02
3.625942917580338848e-02
2.710274254335644922e-02
1.379593817681706164e-02
-2.572867346573595726e-03
1.843804811408070524e-02
6.947338052208654885e-03
-7.058858528740750288e-03
-1.588951056613908605e-02
2.772314286139788281e-02
5.089549920399782934e-02
9.700726352143218545e-02
3.094275243291798663e-02
3.833050698038313608e-02
2.461716231747628283e-02
9.237199459393966028e-02
6.680446461184294527e-02
1.256007377144948145e-01
5.441001851457417937e-02
7.318773435145235762e-02
8.482622955148132193e-02
1.078313813286932155e-01
1.814123375593902354e-01
1.095926078885428034e-01
1.200310041074742484e-01
1.029706049296932879e-01
9.735767105606259186e-02
1.516623987202136425e-01
1.425125618966901764e-01
1.067939565097375809e-01
1.417850977142113278e-01
1.114701104993549297e-01
1.100875245103719868e-01
1.272634675228711543e-01
1.309483132293390306e-01
1.067208647280790818e-01
7.907741105285774619e-02
9.541534019457034721e-02
1.218269735741723120e-01
8.547537328820449531e-02
6.903267515588112913e-02
7.288522788618183312e-02
4.385139992447317087e-02
1.155119004136493793e-01
1.071912955797682393e-01
1.548814088287233381e-01
9.468592814263550317e-02
1.101969748502555357e-01
1.561792715847781232e-01
1.439155659852938141e-01
2.333054583828300665e-01
2.732215863409052092e-01
3.486040020640980841e-01
3.993881551818450615e-01
4.631704172327972824e-01
5.856012634779395043e-01
6.281525999980964725e-01
7.583483586877254323e-01
8.659921135637749234e-01
1.001448310506971140e+00
1.070067392232518788e+00
1.272696205800229352e+00
1.285407974425780697e+00
1.405047291629672346e+00
1.410151156521830984e+00
1.511618206310643586e+00
1.467421707070522663e+00
1.424919565147951372e+00
1.397002487726110465e+00
1.310718403439936619e+00
1.250916060024495957e+00
1.075598243277854582e+00
9.381158372105670162e-01
8.919250993534633132e-01
7.959050118260276863e-01
6.131930529847120503e-01
5.424258573216382828e-01
4.145179938362358318e-01
3.950185977481455724e-01
3.202174982716676221e-01
1.842235444423037660e-01
1.960046375599816537e-01
1.599299715334362715e-01
1.385945784346431509e-01
9.903150417481546008e-02
9.536807384732709503e-02
9.763465804679331839e-02
7.780669247696378465e-02
3.194446868695929864e-02
1.158524991128304926e-01
4.392154756643279478e-02
3.649263140048458059e-02
4.308043458806839338e-02
3.822809935314123303e-02
6.389225009145904632e-02
1.045609909043760388e-01
1.152960171200931722e-01
8.011522122661694778e-02
1.114339223905954773e-01
9.820715012936200028e-02
9.855621985929875761e-02
8.445747085542872068e-02
9.308194950415672742e-02
1.762619561207212637e-01
1.280947295726340696e-01
9.516409836171027536e-02
1.916843698185370926e-01
1.718548379936095660e-01
2.058525259497709925e-01
1.563173704869586789e-01
1.428387536928702739e-01
2.000631190252342706e-01
2.405682725700013513e-01
1.722549928698894339e-01
1.778903959528486955e-01
2.197258998656715367e-01
2.327976009498985976e-01
2.295366153528998199e-01
2.039241002593616403e-01
2.042085168399836170e-01
2.665463720163915862e-01
2.241328358627049655e-01
2.542396222684502050e-01
2.870937739933857591e-01
2.305371103123833032e-01
2.522894572333794216e-01
2.525057772766575170e-01
2.078060363345288486e-01
3.006372486435605618e-01
2.650492789624410150e-01
2.580589402692017864e-01
3.649298231728083097e-01
2.461829522809345361e-01
2.036803106587645185e-01
1.995413260532142019e-01
2.641342506753854291e-01
2.175033148911881820e-01
2.104691100029368878e-01
2.119322996794394953e-01
1.852397662368943376e-01
2.313634055106092990e-01
2.011803831112245755e-01
1.980270585380248249e-01
1.160067975040816740e-01
2.302483730897013359e-01
1.870284808764832440e-01
2.179137519798527711e-01
1.431980899820716191e-01
1.976925629879129898e-01
1.862866905046951516e-01
1.372799726506608309e-01
2.135611121890299835e-01
1.438605788143066389e-01
1.482184425650644455e-01
1.953248435972389785e-01
6.894670921470005820e-02
1.145444993993309235e-01
9.447007475217271411e-02
6.359812986146178015e-02
1.164007097729702206e-01
4.222148743656340547e-02
3.076363161218770639e-02
1.127198397479278469e-01
3.644067811538410917e-02
9.802319476936965925e-02
4.729229909824315264e-02
1.135089051347020622e-01
8.276966287195774985e-02
4.104837217515716619e-02
7.809837679161631130e-02
5.911659513662076426e-02
8.825324633578554567e-02
4.932916781776044979e-02
2.151289459011371946e-02
7.229129666799481713e-02
2.344212374049481351e-02
2.339894898259894593e-02
3.306320670409328144e-02
5.308089874293708821e-02
3.732533290551595662e-02
3.990071101741703152e-02
-4.177763567786846322e-02
5.250604020297591767e-02
5.258234282337342219e-02
8.394641870632446601e-02
-2.010546900705177664e-02
-7.438033200178779947e-05
5.225944920117795919e-03
7.149560341428151666e-02
2.026344331670155291e-02
-1.105878672357579057e-02
2.112800122795273350e-02
2.822350080299996025e-02
2.068165850700797587e-02
-7.361096005121459812e-03
2.091383194665293044e-02
4.412286263169271083e-02
7.775913662983258146e-02
6.400008687699933196e-02
9.159156423231287758e-02
4.212981103658695881e-02
3.317436832811956893e-02
-1.285381728688665681e-02
2.294779910345295243e-02
3.437601164990783387e-02
4.869487643499020857e-02
3.707111367125950213e-03
2.285511417158297628e-02
-1.141913668658630504e-02
2.131987231958712425e-02
2.824255289072027941e-02
5.737637004484680975e-02
4.860227816303154535e-02
2.061186610612639886e-02
5.048443754979324571e-02
5.432656601411930269e-02
8.180157646053541620e-02
1.048933142468819329e-01
5.188991462823600020e-02
1.260581664800846519e-03
4.865748373044703756e-02
1.013904131329920050e-01
6.696795250138784517e-02
1.199118544672697628e-01
1.180154102866411009e-01
1.175143094015120016e-01
1.169554936814707069e-01
1.898544138128820946e-01
1.033535284543675020e-01
1.241806284747268979e-01
1.715650553788130306e-01
1.766765983821435848e-01
1.276201017825225326e-01
1.342873377129156220e-01
1.817186032800588713e-01
1.303269919622062623e-01
2.038576664970388752e-01
1.733539340027354103e-01
1.646782941784898091e-01
1.344794064085352014e-01
1.549768333367868012e-01
2.049105514203966028e-01
1.701735805130629720e-01
2.013410175684375025e-01
1.459057699834093724e-01
1.638084950946159246e-01
1.323512212427566115e-01
1.913737201243523867e-01
2.077405931223034186e-01
1.599438936987014892e-01
1.395239790480722331e-01
1.520352961280599935e-01
1.544204636275490761e-01
1.349547943666339067e-01
8.864600651820224442e-02
1.647861602624022537e-01
8.708268247813187590e-02
1.365909386613576026e-01
1.285427748719671359e-01
1.489060916148338132e-01
1.952314807212732206e-01
1.863697432833943401e-01
2.366730388314477185e-01
2.707207388102611523e-01
3.102109454753631534e-01
4.106262969631255810e-01
4.743460075987727120e-01
5.365187329561882379e-01
7.071223259939072303e-01
8.212747538786951962e-01
8.763201073348605430e-01
9.811495250803441426e-01
1.091209373749859823e+00
1.257270218314289423e+00
1.315833723759200824e+00
1.391617766549651414e+00
1.454306393607686987e+00
1.493892990719656533e+00
1.487445648240784069e+00
1.501939915923276248e+00
1.448465013491978537e+00
1.403036954019116989e+00
1.271145667418229097e+00
1.197120350520097798e+00
1.135350512575796333e+00
1.050560527482697015e+00
9.239406785214221429e-01
7.751628969216169951e-01
6.049617542555063565e-01
5.497035395388427670e-01
4.809185678825783072e-01
4.394976581193543730e-01
3.052728361703808124e-01
2.126426990745176604e-01
2.292466528124067759e-01
1.668999945829077181e-01
1.594585906138176468e-01
1.446369101917940048e-01
1.498098751386794936e-01
1.078243412696439085e-01
4.505696751286548257e-02
1.136831858862840661e-01
9.672125702493684918e-02
3.266502524912778122e-02
5.815952919614252037e-02
1.398104220728980940e-01
9.475160086953278438e-02
1.613737805401000702e-01
1.207828075011466301e-01
1.025929555259844222e-01
1.302746166321154253e-01
2.530265309814676566e-01
1.097845704932596533e-01
1.821436343332674679e-01
1.254236510219253475e-01
1.172863800414011698e-01
1.757628683531592684e-01
1.835393530059159783e-01
1.810660314414983540e-01
2.063264018649450249e-01
1.963140292113750296e-01
2.541688207784603137e-01
2.278984651832158259e-01
2.421344489657961674e-01
2.163974333591291432e-01
2.147669303662636531e-01
3.103645676728103986e-01
2.741043659364476026e-01
2.608482480589269237e-01
2.473919290529234538e-01
2.412182418993782662e-01
2.682297613250056445e-01
2.645793369426367447e-01
2.501413401154927163e-01
2.497153009824178982e-01
3.453198717731040812e-01
3.509270419273654018e-01
2.967743209396417337e-01
2.880219542007913525e-01
2.626016245142027694e-01
2.795467902977540886e-01
3.037188269722432277e-01
2.825924174149904711e-01
3.094748541488029914e-01
2.640460906592499990e-01
2.432486600808042854e-01
2.259238374578964037e-01
2.611452358552130981e-01
2.725674199437316814e-01
2.826734744970735846e-01
2.644808857310871342e-01
2.456760064077040395e-01
2.468267946901267496e-01
2.378585051240904580e-01
2.857258005609588647e-01
2.540009688910478403e-01
2.340133483872021136e-01
2.324468393478403838e-01
2.107261845866414407e-01
2.010110639790889109e-01
1.689640674977362367e-01
2.009581039699687433e-01
2.137907361394861261e-01
2.364232183870360882e-01
1.867523739137329497e-01
2.057332008993070505e-01
2.057736154868246015e-01
1.464322097662004718e-01
1.934205308604051710e-01
1.744297436049394023e-01
1.126691610232278123e-01
1.228871807764290308e-01
1.096708548396712474e-01
1.108415193591749948e-01
1.539308006149476271e-01
1.455273049184780954e-01
9.542826105170082451e-02
9.014586382780215290e-02
7.277476671695229382e-02
5.367091342270145088e-02
1.530681693605871474e-01
1.762569756689566225e-01
9.140134694942847471e-02
8.479090146343001844e-02
9.791448236167996089e-02
5.295079264482123460e-02
9.232090110504782843e-02
1.046563862053839083e-01
7.053218476281576665e-02
9.966923607581074096e-02
7.666854503883686889e-02
7.768851944863426617e-02
6.971834041559782369e-02
5.448885371352744922e-02
7.580124587277298209e-02
7.302080919748393795e-02
3.356118498043214604e-02
5.784595371102624339e-02
1.009583389965837130e-01
3.510821784598143480e-02
4.073865203834457771e-02
6.265680254021448181e-02
9.637710445767558309e-02
1.387059014981206762e-02
1.439158403429787597e-02
3.286482138948772225e-02
3.002038148410311053e-02
7.858437376142780872e-02
5.406146876314688043e-02
4.087255314777542281e-03
9.939040136362872757e-02
1.306275998839846741e-03
4.810823592348618255e-02
5.471057301827086938e-02
5.042257304473155011e-02
4.551557215123855360e-02
9.522106571067306957e-02
1.123631454424444398e-01
1.784143286331553446e-02
5.060742494092129729e-02
5.552016254010219698e-02
3.284741526027605552e-02
7.477114661549422170e-02
1.293556219303581001e-01
6.694026959168938862e-02
8.498856534331387935e-02
1.175716167875692497e-01
1.027952856241784452e-01
1.033265933688330973e-01
6.625787401407529087e-02
9.048614600115977014e-02
7.246294390349744541e-02
1.279193377841083556e-01
1.369242190342983834e-01
9.957625413708875994e-02
1.340679332905319598e-01
1.039404532413425314e-01
1.901766047238287738e-01
1.240943356781640666e-01
1.025796760189808254e-01
1.132188553424832156e-01
1.989417063535581509e-01
2.000619104596266240e-01
1.719153818959306690e-01
2.336363288135051564e-01
1.929338833870287984e-01
1.463988881025035660e-01
1.881657979099923828e-01
1.406168110157010043e-01
1.719716540998564580e-01
1.995110323805181218e-01
1.773932705739119098e-01
1.973112207741530011e-01
1.707396724969539870e-01
1.353331458115165364e-01
2.059018271591523952e-01
1.963047856908344824e-01
1.313239925976865119e-01
1.644914982663941982e-01
1.828784591676125282e-01
1.667589222048189435e-01
1.414500650373076707e-01
1.292076618064396110e-01
1.281237023025422195e-01
1.768218425585512121e-01
1.992230974788254949e-01
2.235921053612769105e-01
1.762959143953934382e-01
1.742117753199389774e-01
1.232924642448800373e-01
1.661748930049140038e-01
1.735763682282437104e-01
1.854970845383176192e-01
2.082823198674824128e-01
2.585907588325266904e-01
2.639380179605131382e-01
3.087781128524603735e-01
3.497371572449384791e-01
4.600780499287943082e-01
5.426379981001083763e-01
6.361858558758182181e-01
7.810242040939502361e-01
8.508935395067074303e-01
9.428977501304124376e-01
1.087862097876056700e+00
1.193448285938418119e+00
1.313190476035911880e+00
1.398479150098194346e+00
1.527247599872958439e+00
1.560963736305881255e+00
1.514789734994685722e+00
1.470023715699846800e+00
1.512907241660905955e+00
1.440268206904390613e+00
1.362300371270243282e+00
1.286404553745620127e+00
1.138652922040564786e+00
1.075478650901416255e+00
9.550101145733914665e-01
8.579448039889793209e-01
7.207757640487966189e-01
5.580940546918506939e-01
5.056840207543172871e-01
4.497493555900469731e-01
3.154227066989083728e-01
2.779785875595757738e-01
2.708321367846938665e-01
2.214190175183951559e-01
1.640817847447659794e-01
1.446370689076718619e-01
1.206323659847724356e-01
1.043735020566336213e-01
1.315323564908057463e-01
1.238276030413130308e-01
1.213693408411933294e-01
1.486582763401823326e-01
1.185160017591789655e-01
9.261036022745486318e-02
1.498441494308639932e-01
1.041649503974384772e-01
1.497270299522494297e-01
1.436607041901667436e-01
1.057386314834779795e-01
1.290376271000900910e-01
1.357106200028808662e-01
1.499116134107372211e-01
1.588439954979238566e-01
1.555250148123251130e-01
1.742885398263417929e-01
1.909049466101029047e-01
2.027307222697445899e-01
2.057348734713888294e-01
2.221295904877184646e-01
2.193526120328120610e-01
2.150903358357877937e-01
2.224812925174253220e-01
2.303047265205028782e-01
2.405513353402287668e-01
2.276111326645891553e-01
2.490119357288502477e-01
1.840353115566669140e-01
2.648944334357906660e-01
2.637581540116781809e-01
2.281313708249704530e-01
2.551133129927697918e-01
3.095969224108432449e-01
2.853870296098882653e-01
2.845689352742512002e-01
2.740296265485642757e-01
2.913491763304737470e-01
2.868332995338792046e-01
3.060859598045785335e-01
3.306158631239373702e-01
2.966094458622073327e-01
2.983416451874970621e-01
2.870665257675182325e-01
3.048419402116975818e-01
3.450217165199760405e-01
2.746910164711772184e-01
2.587874428180476638e-01
3.125523758658289575e-01
2.556135702171695723e-01
2.595897072796563010e-01
3.190915748216805459e-01
2.282585540773091892e-01
2.715477029244301455e-01
2.017171630355680256e-01
2.644287399566829233e-01
2.819496843850565204e-01
2.486790769820593217e-01
2.198506892368634058e-01
2.078910889921312954e-01
2.282790781331745789e-01
2.283073030593762431e-01
1.442029910848821039e-01
1.400153683321597731e-01
1.672463280056300516e-01
2.112797786361882424e-01
1.299109083597221326e-01
2.117289454616514410e-01
1.493858388360486122e-01
1.547988804017811915e-01
1.839388693292163812e-01
1.821707411413743261e-01
1.428742726994603474e-01
1.017804394424356995e-01
1.107153534630132552e-01
1.034792956857688573e-01
9.619007736181797719e-02
1.318621467513800827e-01
1.601441396065157452e-01
8.630144668225583904e-02
1.281640548388744416e-01
9.708608147384850673e-02
8.136461891067309216e-02
3.385194198397394050e-02
1.016849562733966317e-01
8.948040642714172321e-02
1.211735868035516556e-01
1.958589477485024946e-02
2.917674687264579236e-02
7.154929568171528032e-02
6.977105271615569038e-02
6.723674719740532768e-02
2.121220432262544905e-02
8.498953143141155242e-02
1.035663581702213204e-01
4.415758612617701195e-02
7.713197674217291133e-03
6.148272258717314698e-02
-2.926389049003247367e-03
1.259846875734257909e-02
8.923451850887703651e-02
3.948747802042774924e-02
4.021846957752429896e-02
4.371500823725245344e-02
2.150729738578009351e-02
5.772472503745680605e-02
6.293745476504747360e-02
6.340017252091295630e-03
6.092925156999504793e-02
4.157397609812920475e-02
6.538547098379264566e-02
4.204617174961441939e-02
9.125454915936442868e-02
7.176681820375546694e-02
-2.302799352740275696e-02
9.820490152236482917e-02
4.009735091837773879e-02
2.671874357349293683e-02
1.543238297588922676e-02
3.710323200453373438e-02
1.710030603347322681e-02
6.837044575565676130e-02
3.944430307056898122e-02
4.210340527008578360e-02
1.286961568170357645e-03
-5.395399987800017505e-04
4.465434855714989215e-02
6.209945737582442393e-02
4.788219834618834270e-02
4.796359932194033809e-02
5.794653690787267275e-02
7.703398850057270597e-02
4.450078381641367486e-02
7.329900763038078859e-02
7.451887561382490588e-02
1.965108473867343553e-01
9.351623453052099189e-02
1.098674596196874964e-01
9.539246105413533294e-02
1.326987109016513067e-01
1.159623488876744268e-01
1.110339744730033662e-01
1.348798690965849201e-01
1.447206482059660571e-01
1.379811037863565015e-01
1.322393320117670468e-01
1.779557755215638859e-01
1.858247428669247137e-01
1.854597627549020578e-01
1.785959980016391668e-01
2.112756287641179842e-01
1.836830032699381943e-01
2.073245187066457551e-01
1.271914280557823462e-01
2.319593025631331018e-01
1.980093792732044999e-01
1.676752622402107040e-01
1.728379783401893244e-01
1.200649675045175613e-01
1.262666517216292639e-01
1.448940363411017340e-01
1.510797852291277388e-01
8.970607401462241115e-02
1.108373614143511598e-01
1.746291922888388859e-01
1.315975418439814526e-01
1.309665872330426917e-01
1.548367032193062875e-01
1.226161435795668636e-01
1.463999853320592792e-01
1.523581585065742205e-01
1.675263066133340639e-01
1.598514211437085664e-01
1.848139116711743080e-01
2.385054578855871354e-01
2.129272417719903776e-01
3.336676052443872664e-01
3.004399537785812369e-01
4.040212886918488344e-01
5.222360243411194869e-01
4.990611925646805114e-01
6.740256465972568334e-01
7.969754141836851158e-01
9.523835557960320664e-01
9.787754161608522852e-01
1.160318445912840613e+00
1.195492855997665860e+00
1.303747162911351065e+00
1.415839522903038272e+00
1.463795289484822515e+00
1.460631210013049852e+00
1.477876999887864917e+00
1.433601986542639706e+00
1.464390118783723604e+00
1.362400223441390779e+00
1.324162828420348825e+00
1.173283970651255448e+00
1.096446950900942241e+00
9.434090478585787087e-01
8.226327429016085935e-01
6.956996744957021361e-01
6.180079045315353126e-01
5.192703112492861317e-01
4.182853452739087596e-01
3.164803225356228600e-01
2.824499792671268938e-01
2.427413445670149050e-01
1.606253806887002478e-01
1.539553172080812549e-01
1.299394038855269384e-01
6.200271572573479162e-02
9.188778985778492392e-02
8.294770148720523317e-02
9.434444873641234519e-02
1.049187440493667411e-01
-2.421227517219883690e-02
6.757907230270165932e-02
7.725501042580662503e-02
1.060166349588068935e-01
3.072134789051352011e-02
8.033300266025092395e-02
1.324675298460637751e-01
8.945378504968692912e-02
1.597905259719517024e-01
1.338617330984360754e-01
8.595415995336082304e-02
1.322406104594217313e-01
1.960475628999703568e-01
1.389976963721641090e-01
1.235588003590506051e-01
1.296808666787277187e-01
1.721668743143791314e-01
2.224086305885915882e-01
1.491402300543719917e-01
1.503092254858000854e-01
1.495083963533537230e-01
1.976543190717610921e-01
1.720317550875987700e-01
2.130405545390628153e-01
2.350847207160124408e-01
2.242744462928360216e-01
1.845060714392607326e-01
2.244756419239977707e-01
2.472581136064993523e-01
2.756140191966336972e-01
2.444206580550237484e-01
2.280824590777280059e-01
2.316140604452939511e-01
2.590146805944253949e-01
2.233377539201893691e-01
2.450801470944044547e-01
2.758836585292485655e-01
2.885678990679130806e-01
3.257724831739179927e-01
2.726390044615587538e-01
2.683880941229179196e-01
3.051034825821757890e-01
2.485968449768047039e-01
2.640249376856954600e-01
2.288390472573852141e-01
2.225057307221602887e-01
2.205273556793209133e-01
2.193700414626768291e-01
1.949344663599243688e-01
1.953730477900584850e-01
2.117038870905942061e-01
1.944971979388087080e-01
2.099244586624179620e-01
1.677468419291033019e-01
2.137394987348232300e-01
2.082761846787718196e-01
1.430088186506335846e-01
1.451362200632313748e-01
1.670591345935555916e-01
1.648995835461269932e-01
1.808956524879562489e-01
1.308428647516791110e-01
1.283594800704581651e-01
1.882918642102252293e-01
8.743072939844755143e-02
1.477358269901085930e-01
9.718653231953452987e-02
1.078918193365822342e-01
1.269590037012002792e-01
3.395005981217473490e-02
1.127638051707069017e-01
5.087535700140267958e-02
9.040912177909432579e-02
1.306874106283640036e-01
1.011718115711159049e-01
9.022287394308720065e-02
1.678462653338372301e-02
-1.088440857458303213e-02
1.181017312773600253e-02
3.567687982767287630e-02
-1.681360140377463619e-02
1.979680653298326529e-02
5.318907422025649645e-02
-1.690160675007432167e-02
6.042992239311534286e-02
1.518755938540189768e-02
1.887250711720648427e-02
-2.504269781020872568e-02
-1.619403917106983573e-02
3.292782627440092244e-03
1.445617881756518924e-02
-6.309520652610192334e-03
-6.642027716014418763e-03
1.572434716466929866e-02
6.869634950510380977e-02
-2.324497235393287523e-02
1.815311177053737651e-02
-1.403426015581536561e-02
-3.174107263976820581e-02
-3.351258168500038936e-02
-4.554367642417213313e-02
-1.418777868013359512e-02
1.401201538121740406e-02
2.467368109209283275e-02
-6.616784167048150173e-03
-8.565721076379900767e-03
-4.739748182350362465e-03
-1.654150390351960195e-02
-1.070823358786186785e-03
-3.242266265595384472e-02
1.403660378501995348e-02
-2.535834771156432466e-02
-5.097014896431971420e-02
2.631990636144443049e-02
-2.358556591553390494e-02
-8.491310677115317118e-03
-6.503999925128768622e-03
-5.158715350853761150e-02
-3.369527092475722851e-02
1.138548906212950157e-02
1.947903473643181407e-02
4.554746962751418660e-03
-4.292808373126451998e-03
-5.486368952402140287e-02
9.390967590910112572e-03
3.270250545134607834e-02
-1.707652923266477982e-02
-1.028680373625070685e-02
2.312227368323685125e-02
8.216246180553204298e-03
1.025030799772730719e-02
4.388089510709257401e-04
8.100356783094214697e-02
3.451528771573404708e-02
6.170949125341325392e-02
8.116824121050286722e-02
6.407679084229250810e-02
4.373156665811901711e-02
1.141047507844241554e-01
7.227236452141311274e-02
7.640514516726873429e-02
1.311182615523072414e-01
6.163619673557803325e-02
7.785404128903841703e-02
1.494348450471279788e-01
1.019483155724208584e-01
1.102310870205931714e-01
1.044987655143263111e-01
1.161215440818750555e-01
1.013366672520819856e-01
1.571948801795230999e-01
9.028335691867545032e-02
1.126445032688239700e-01
7.984343480503280910e-02
1.418819516313410689e-01
1.144739259372312828e-01
1.078708828468614711e-01
1.488291282479922428e-01
8.410185853811964762e-02
1.039309560479944189e-01
1.217740676629461838e-01
8.400390413492395125e-02
6.139305947187474743e-02
6.867383621348510658e-02
9.609807447222443177e-02
1.105106010828829644e-01
6.312312849561502182e-02
7.487136371974276172e-02
1.380366296172149121e-01
6.513026108410706339e-02
1.419199796459656437e-01
1.407440758107849632e-01
1.701669115990412096e-01
2.534279693490578134e-01
2.939680737721278581e-01
3.202304145718798956e-01
4.482364711975675986e-01
4.442611238518687222e-01
5.448699181035268069e-01
6.914269104107312325e-01
8.453393872191814484e-01
8.779715184860120702e-01
1.120464310001047625e+00
1.123224507150859530e+00
1.230193280217488860e+00
1.294929941738037993e+00
1.364360333986911700e+00
1.439004601087347623e+00
1.437265749549756277e+00
1.433973665346384596e+00
1.398661728047035924e+00
1.398617148850384906e+00
1.287607368299320765e+00
1.186680184703987173e+00
1.181835111274817773e+00
9.730178675876104410e-01
8.717340019873793810e-01
7.100465070646468924e-01
6.222647525412313696e-01
5.131212287970621233e-01
4.639135849734309369e-01
3.598914031830747207e-01
2.579870204946563828e-01
2.352325644483992118e-01
1.500499583906692858e-01
7.627467471172505453e-02
8.730697239786522346e-02
6.807996973833882470e-02
4.008255049429524514e-02
7.112874284299450234e-02
1.566014177525299617e-02
3.992461681332495210e-02
-3.220226952473367876e-02
5.502537986582799884e-02
5.641617015621347431e-02
2.547258811716152094e-02
6.611538348058934589e-02
4.104689448432909810e-02
5.182541439568625480e-02
7.641039022846923823e-02
2.172663226791611557e-02
1.038845258763579082e-01
1.091105084559828714e-01
4.584964612767199882e-02
4.386196205471469545e-02
5.991382278588430060e-02
1.057148292333556228e-01
3.930958684578652468e-02
9.698979068482860288e-02
1.597829519757646977e-01
1.150385180117320383e-01
1.031982444270069244e-01
1.546681472657890632e-01
1.631486659506956594e-01
8.496871146090925753e-02
1.570794012061284273e-01
2.167197082573056599e-01
1.205510637975538701e-01
1.457678924378313645e-01
1.749699724380452681e-01
2.039520480288312121e-01
1.838582330618746541e-01
1.534183231121453717e-01
1.307426355216378955e-01
2.741157183199787184e-01
2.474066071514228748e-01
1.797061128391217733e-01
2.089057197346207151e-01
2.118395661757166981e-01
1.546240184187095412e-01
2.003402230225946046e-01
1.983102378569973623e-01
2.003612692313669619e-01
2.135800364977128163e-01
1.519873465334123375e-01
1.966078913498560954e-01
2.274980066766067455e-01
2.125801067938821176e-01
2.828275199441407928e-01
1.930438549857985964e-01
2.060953329236239473e-01
1.923260117891903986e-01
1.266356680934813683e-01
1.877076044070412064e-01
1.598382215786247063e-01
1.153464601715774307e-01
9.237511513956811471e-02
1.454184037278702379e-01
1.546244949583925887e-01
1.228678837672230045e-01
1.519161354719817669e-01
9.469847142180612409e-02
1.076242689837942079e-01
6.739022910149580770e-02
9.360156750782039348e-02
9.946219666206147780e-02
1.075448376647129833e-01
8.692463771604343192e-02
4.906651997070374249e-02
3.094812064434607213e-02
5.331813561496852316e-02
3.355997061759236066e-02
8.775069525739796761e-02
2.438959336991961685e-02
7.776094174179559726e-02
1.264813172333217883e-02
2.822559088039078290e-03
5.221996298759869898e-02
-2.500352835153574899e-02
4.846580744197370033e-02
-3.142703824664049017e-03
1.989584893052360332e-02
8.203925844283470326e-03
-3.450876479935145735e-03
-1.777938032045526043e-02
-4.046747851857786932e-02
-1.871328641416189487e-03
-6.160420460463020970e-02
-3.175269445413936992e-02
-5.100726335782949927e-03
-3.946615750324487804e-02
-1.751595668387490035e-02
-3.447169169085593371e-02
-3.318730023180413435e-02
-2.590346122769375536e-02
-1.128285565993951550e-01
-6.762756545503539884e-02
-4.952382170079405038e-02
-5.598259820544987386e-02
-4.974073527741440515e-02
5.957807562374461963e-03
-7.075093869488967291e-02
-3.084962619420353325e-02
-8.301386710703090310e-02
-2.321665392182522408e-02
-4.984256520100251858e-02
-3.777277880619939188e-02
-4.832681745001708717e-02
-3.391565402750901237e-03
8.719634221713845612e-04
-6.530043580310998519e-02
-8.185084787695799668e-03
-4.341124917116558068e-03
-6.404585236924945080e-02
-6.624867546134843854e-02
-4.308223358219209764e-02
-3.497974690689822919e-02
-5.705810490282862968e-02
-5.585229945281530717e-02
-3.099293492211305234e-02
-6.549216577849188703e-03
-2.117911929602376078e-02
-2.967082960029170796e-02
-7.271225548660750770e-02
2.014512537087054245e-02
1.430793593845438444e-02
-6.451260470957458082e-02
-3.063117506974948404e-02
-4.764448481455852563e-02
9.089364352135725911e-04
-2.157304045807715426e-02
9.483318860876277512e-03
-3.144834750866486173e-03
8.962174542801218391e-02
-1.492218174608427039e-02
6.386801457277088701e-02
5.894452312341497136e-02
3.045190372698251130e-02
7.623757048975393635e-02
1.349583720441235868e-02
8.576413538785293555e-02
1.083915461366894706e-01
3.669375377963957768e-02
1.079146766914630823e-01
7.497812332124366430e-02
1.304839097134972148e-01
8.979087955435754997e-02
8.138338528125646509e-02
9.853367565118295590e-02
8.023530542310526592e-02
1.216490819405034174e-01
9.273345085985690295e-02
1.969595532747491634e-02
7.554014978009646053e-02
1.026343780231061820e-01
1.187428831526426698e-01
1.186937974182486477e-01
1.185688162423050307e-01
1.254066898638970529e-01
9.563915664791211579e-02
7.713692731290200388e-02
7.499650258672736769e-02
7.335802068545341226e-02
9.407926597877966368e-02
4.371648727830853426e-02
1.276347451198073246e-02
7.290608220378745619e-02
1.033161215154915630e-01
3.702480753793598728e-02
-8.950297582398542007e-03
5.062959260747038753e-02
8.093035736755613274e-02
1.291442705328767204e-01
9.075157743323541970e-02
1.192558006122038106e-01
1.561458171246820625e-01
2.026704250393968065e-01
2.838193657839070405e-01
3.711898073664008368e-01
4.669707904826070899e-01
5.146034923555017349e-01
6.294177717834115171e-01
7.825615198643588455e-01
7.901097802346941368e-01
9.047896762097364931e-01
1.089516742262957916e+00
1.183171676002224393e+00
1.262140343531581221e+00
1.293409156971540908e+00
1.397233646155045195e+00
1.376710451573056826e+00
1.486654239596759242e+00
1.419023232264395418e+00
1.393704253391728098e+00
1.250364198918026748e+00
1.228523002030850630e+00
1.084902232161409463e+00
1.065289901087182134e+00
8.847085621536647793e-01
7.985062852121266319e-01
6.428529632641492020e-01
5.212160934767374743e-01
4.404102107997188154e-01
3.619039946161801691e-01
2.758558046155895060e-01
2.485508462740932956e-01
1.135882755142218203e-01
7.125766363046676100e-02
1.045237254852083020e-01
7.137110436838660366e-02
5.248555174588657307e-02
6.478934388935320143e-02
6.878543957334105896e-02
-1.369647376636452807e-03
4.848521070087263851e-02
7.467577049063726935e-02
5.415590074095388839e-02
7.632371124450945676e-02
9.763811041018824466e-02
5.448870502186947684e-02
3.833364899901012951e-02
-4.841092704224940479e-03
-2.470184022283342107e-03
3.863741994661645113e-02
5.805678943247756518e-02
5.783303744711314198e-02
1.103392580062327044e-01
5.212776820412465262e-02
6.347929946194880158e-02
1.230760676046834534e-01
5.551923945802088312e-02
1.133263666304304279e-01
1.050161478362257872e-01
1.503882954755328405e-01
1.013636959573686047e-01
1.733098844007276151e-01
1.124704891570225129e-01
1.352780457654374213e-01
1.143193085418708344e-01
9.050491441167807238e-02
1.701721261754517711e-01
1.437456197446753681e-01
2.119023870637683216e-01
2.141946316337350054e-01
1.727544758793796154e-01
1.677063026628107800e-01
2.243342533528563387e-01
1.530357136814284591e-01
1.996091101567155079e-01
2.566339733526661893e-01
1.636263550087925234e-01
2.206075683608593463e-01
2.283421704922742879e-01
1.952983330026588082e-01
1.915025198037168530e-01
2.478124546253518967e-01
1.948106806903976973e-01
1.744552178883189697e-01
2.241059561735346817e-01
1.787141415223408858e-01
1.998094507380696327e-01
2.127982760457627909e-01
1.998869307172547460e-01
1.845436578621985624e-01
2.070937433405761474e-01
1.573629110127591491e-01
1.380585532003489879e-01
1.470803091856900946e-01
1.978531039201898989e-01
1.292883642770467356e-01
1.554231626872376870e-01
1.468785958845921780e-01
1.396783088638923753e-01
1.656947291665206157e-01
1.783850061368315310e-01
8.071563131886222431e-02
1.041547302734502634e-01
1.331005685589642384e-01
7.797756101175365440e-02
8.454691586653272084e-02
1.250413939496697602e-01
1.066253635871519251e-01
2.509354334194684871e-02
5.804428609002681289e-02
6.620148592941785259e-02
8.694165558397361215e-02
7.099883097870171578e-02
1.903232867350471841e-02
4.068018772535581667e-02
5.058943427892837602e-02
4.147124010510089276e-02
6.857971789209268976e-02
1.115472283995706804e-02
4.231363756368990148e-03
5.241932314137301430e-02
9.815626906078142588e-02
6.917233964844075877e-02
-4.036968039782486140e-02
9.889457096123396851e-02
9.336702109958849860e-04
-3.805563929964213971e-02
6.164143998155096477e-02
-1.974985426056926480e-02
-3.119610040907411230e-03
-2.795213515458662423e-02
-5.044740107107965887e-02
2.974124743007845045e-02
8.029030979581325278e-03
1.828336767885392622e-02
-2.725369562333178342e-03
9.329303052112214445e-03
-5.196694515403030290e-02
-5.622313077380236557e-02
-3.300167862786611978e-02
-3.090802043055540169e-02
-1.209194425616889543e-02
-7.288217383534835447e-03
-6.533814058915846795e-03
-3.438249002069650173e-02
-5.505657477005786171e-02
-2.366518931172433005e-02
-1.563596241346694796e-02
7.148534507122706466e-03
-2.583589879168930389e-02
-3.842982786323043132e-02
-8.788315225819826049e-03
-3.192227462491326745e-02
1.383357928941324894e-03
-3.419268426826004015e-02
2.626949064377020332e-02
-1.874034437187071730e-02
-2.654453795571407038e-02
1.114753547383537380e-03
-2.084927898738225815e-02
-3.044287493125457864e-02
-3.965869984326864800e-02
-4.601722442518267620e-03
3.428725959687281555e-03
3.663540652320825680e-03
2.960002959810377823e-02
1.253390156527645072e-02
2.320596556829215146e-02
-6.817147809684915433e-03
3.763432771771182267e-03
1.364419622440362495e-02
5.479639854143888988e-02
7.296839550908917893e-02
3.677537925316248790e-02
5.224355200233039842e-02
2.729490715802819836e-02
5.021181967023589932e-02
4.895707352633039966e-02
1.228292218322379059e-01
7.919003923177803106e-02
1.229986390167370630e-01
1.142725760439796262e-01
1.434034693592258491e-01
1.628734456818819454e-01
9.671965615274351336e-02
8.877009510895954303e-02
6.444397922309275106e-02
1.006266101317644795e-01
9.589413718609253456e-02
1.377806644425462190e-01
1.014599082714035538e-01
1.393548106837817213e-01
1.057915360843871277e-01
1.371469693378531141e-01
1.089493129069856181e-01
1.653882184274541589e-01
1.367089437295450627e-01
1.265428284639578127e-01
1.092900440529417927e-01
5.802327353930249176e-02
7.926475535547444773e-02
1.538310260821885711e-01
2.705403208303424137e-02
8.950401590239651095e-02
9.721622606924741616e-02
1.133185475159934341e-01
1.468787783096931476e-01
1.162531264579231144e-01
1.375202254195158069e-01
9.132071325057580791e-02
1.031496511114574077e-01
1.349389109549002375e-01
1.742179879035112011e-01
1.615048950299989294e-01
2.222890153656781054e-01
3.463794892949329518e-01
3.182248810715004872e-01
4.067458949445272309e-01
4.915864234096202212e-01
5.567349158935017694e-01
7.439543865493828401e-01
8.122696250763239423e-01
9.137428623377156223e-01
1.070675658360515703e+00
1.161730131527197507e+00
1.288868218529108045e+00
1.305511350349283006e+00
1.389598139181517311e+00
1.392946755386863744e+00
1.489074823773561596e+00
1.459790414993856089e+00
1.437255786158766924e+00
1.394415136579565839e+00
1.308251064934353725e+00
1.251612081858632042e+00
1.095699947484925607e+00
9.554253868638424851e-01
8.537904819815461677e-01
7.493878681135504038e-01
6.176047693114610215e-01
5.845372102998577235e-01
4.469164640952278389e-01
3.424803999101988516e-01
2.402381886098061692e-01
2.385549659556767399e-01
1.753315024932968758e-01
1.642868872461884788e-01
1.223853243252077949e-01
1.212484268877134230e-01
1.137161826626378047e-01
4.160338381694776710e-02
1.065149680475028504e-01
5.892339621675293793e-02
8.708871132677746540e-02
2.129401052069597455e-02
4.067969744913432772e-02
5.903353582625937152e-02
6.196376723404501546e-02
7.192059886640926603e-02
8.968053497164578391e-02
4.252948664482553848e-02
6.944756035774574121e-02
1.227661164284902795e-01
1.175198679319769401e-01
1.274038067301116461e-01
1.002819788176265298e-01
1.533960415224980278e-01
1.366890849764267057e-01
1.532514792056489106e-01
1.406302802539165231e-01
1.717819720766301794e-01
1.803110866563978898e-01
1.387405742792887087e-01
1.886967706595888417e-01
1.601246071342153077e-01
1.650528062656130002e-01
2.266448619735418335e-01
2.710928837295673022e-01
1.604337881148330813e-01
1.902070043518215847e-01
2.341404075274256535e-01
1.887443340691778437e-01
2.328521502163289902e-01
2.509073251341493171e-01
2.376641963224075393e-01
2.834807098948925463e-01
2.947233193362842063e-01
2.424844945146033548e-01
2.051146943665598799e-01
2.640966193395050676e-01
2.194461030041996996e-01
2.374911219326301115e-01
2.505486156579859736e-01
2.133511895902140409e-01
2.253777777323574261e-01
2.536982191127221675e-01
2.422836563732350679e-01
2.936533298568771433e-01
2.588195769271750546e-01
2.232043934384232431e-01
2.164498165411106179e-01
2.340773879643108235e-01
2.231070468911635629e-01
2.404256479237426025e-01
2.182408094491686268e-01
2.276598900277614912e-01
2.275188831891675756e-01
2.318547767805110571e-01
2.297781321667358989e-01
2.480398572107934962e-01
1.650742960219713784e-01
1.630903902704096964e-01
1.631004605403668095e-01
1.676595770081443226e-01
1.328839967489199303e-01
1.337637010496121603e-01
1.588605544571566330e-01
1.515349709305286729e-01
4.985565098328371275e-02
1.896014874860737776e-01
1.074441248368002144e-01
1.483107972033932132e-01
1.280082757983463937e-01
1.106654974000822605e-01
8.969114788326820742e-02
1.268850571828865903e-01
1.063660993949425010e-01
1.014200447217207118e-01
1.021178103499940093e-01
4.974476405472875312e-02
6.761806460696712096e-03
7.252512344939078537e-02
4.802086115768441216e-02
5.514683999205149262e-02
6.571539469857137772e-02
4.785917352011326981e-02
8.961309477044897276e-02
7.445661800072170267e-02
8.128399499580879484e-02
2.452988565247839203e-02
3.111077645728410265e-02
2.892396135796684517e-02
5.107801996404729566e-02
7.129775778353168725e-02
4.386507186997681829e-02
3.173629657591442096e-03
6.988667414166881142e-02
7.574873668439023600e-02
1.057509462910189053e-02
1.100015311013847509e-02
1.900082338344655924e-02
4.819190712580177088e-02
2.088715894560801145e-02
3.369222726545646751e-02
3.461914068465775374e-02
2.838726345152640940e-02
7.203358618539043579e-02
2.120802877890566596e-02
-2.545450299269162719e-03
3.763617159946477941e-02
3.836423576037345518e-02
2.955766655893371855e-02
1.973408363701320209e-02
1.772006393455500400e-02
-2.829721647678778984e-03
7.190166697687661035e-02
-3.738803640655152805e-03
-2.932058346275369029e-02
7.649700921339975396e-03
-1.581081068947315371e-02
3.617282294868912063e-02
3.892695847532688658e-02
7.076654703815743463e-02
5.083699078852832454e-02
3.696511118808744334e-02
4.063261108977998803e-02
4.812445703959735560e-02
5.233596036213609970e-02
4.324018067292670353e-02
4.468364134494519357e-02
6.211554778969993751e-02
6.361735714241888162e-02
4.588220902331641149e-02
6.211120937380738144e-02
1.847560621187268465e-02
1.001655348072574558e-01
1.088326838650701955e-01
1.045620938949749640e-01
1.128421555929514097e-01
1.007980148873536125e-01
8.836086329570980169e-02
1.225202567289383759e-01
1.242504158155171567e-01
1.652697090318636652e-01
1.068286183019370866e-01
1.601261991615025582e-01
9.753765979903643302e-02
1.614259482509673993e-01
1.916710781912008832e-01
1.705179181850495218e-01
1.269182449556757464e-01
1.873923923083159471e-01
1.586834792515644521e-01
1.894598499970817085e-01
1.282229040336024528e-01
1.767260647930984641e-01
2.049767256155979323e-01
2.072342383073952632e-01
1.724723975671775822e-01
1.715160799598054453e-01
2.326892723639569782e-01
1.664496973031360516e-01
1.699482812124346875e-01
1.269800532179543862e-01
1.577904806764381385e-01
1.609992504913802525e-01
1.199139961345085381e-01
1.485824020811833956e-01
1.612805950322739323e-01
1.613403821128019666e-01
1.959867644972211054e-01
1.029627492962552904e-01
1.165869292689892256e-01
1.702764972133920807e-01
1.439022533128530013e-01
2.377320204348630783e-01
2.534449403548879598e-01
3.030129146817010510e-01
3.032630303179847386e-01
4.675354745609467400e-01
5.157692464510843511e-01
5.683933024011333934e-01
7.088630306853165308e-01
8.374003265807361540e-01
9.387560633773953667e-01
1.065205811711673167e+00
1.120572646538208872e+00
1.282455670043410656e+00
1.335355662221630046e+00
1.367582899541239572e+00
1.476483632009055968e+00
1.576633357647302169e+00
1.523100425288661963e+00
1.524217441388482142e+00
1.430443843044383767e+00
1.394047857804815216e+00
1.293622521955430926e+00
1.201360585695460781e+00
1.106203838264623540e+00
9.419291467068663382e-01
8.910403408164968564e-01
7.883342188805424477e-01
6.190797291340005559e-01
5.734649389098575023e-01
4.678223484313466796e-01
4.107830515798497339e-01
3.336261413635150941e-01
2.422383116068572151e-01
1.746702444058223225e-01
1.853550516720746666e-01
1.054667490392461049e-01
1.661272608935974726e-01
1.314343842083388059e-01
1.169130999995204589e-01
1.005995797783370560e-01
1.061756153435596678e-01
1.278357744061728030e-01
1.034692151755302603e-01
1.768163932237606373e-01
1.122046022486464234e-01
1.060904384968499037e-01
1.103477069595703297e-01
1.040983312593633803e-01
1.386170694095732181e-01
1.645589959124792445e-01
1.608410702814015436e-01
1.629879273368453618e-01
1.514452181947654186e-01
1.993577104212040096e-01
1.597229337485694955e-01
1.982216515780327315e-01
2.023271711180439913e-01
2.370268084042040646e-01
1.654873257933338615e-01
2.140884335600234389e-01
2.123290286806356064e-01
2.383610619683242948e-01
2.081861974743403620e-01
1.597097761382712533e-01
3.010146694586794403e-01
2.553352227454224188e-01
2.375838092593606510e-01
2.676689988073880921e-01
2.757307278487913793e-01
2.430427831150896445e-01
2.691355509365885856e-01
2.079690914627665976e-01
2.711851860392435198e-01
3.011274826051089093e-01
2.689992677759780459e-01
2.963106281385781138e-01
3.068328413274737931e-01
3.003526055676074558e-01
3.316583363888285230e-01
2.948773299724397057e-01
3.209329701073722063e-01
3.804665879553147390e-01
2.585297536462617951e-01
2.709267491848058595e-01
2.961130312818983090e-01
2.757903174843491234e-01
2.991793446364977571e-01
2.973387568266404046e-01
2.531027881688314163e-01
2.921965006188643188e-01
2.552743796627559569e-01
2.610388961274133779e-01
2.902291077407234687e-01
2.566660791567304534e-01
2.912652762251909389e-01
2.457834108573182519e-01
2.397692141546067524e-01
2.705745844743437933e-01
2.240011538474754871e-01
2.336701798384007711e-01
1.962979948075596892e-01
1.845322092810577908e-01
2.024717599925403566e-01
1.887579782420572561e-01
2.094682830694256370e-01
1.988523902200952098e-01
1.720284361123731176e-01
1.256266905593709793e-01
1.545485279043829763e-01
2.034040883103526709e-01
1.377570903964078219e-01
5.152333226953509371e-02
2.232276095558839990e-01
1.785538889297217102e-01
1.332302009596946779e-01
1.070667310168002678e-01
1.118362045469607213e-01
1.157150697327159056e-01
1.389285498880618031e-01
1.021129577714090519e-01
9.836789245619904920e-02
1.444600575084265814e-01
7.111172621342619349e-02
7.591878249905145704e-02
6.838213023702935378e-02
6.184411341697454434e-02
9.067300649258999701e-02
5.824644625730826530e-02
6.411485629297759836e-02
6.308462242207359127e-02
6.522188831252029306e-02
4.672606803803126818e-02
1.101223968495349259e-01
4.419302998812901784e-02
4.856424577744305332e-02
9.955342793052066042e-02
3.458557425618008496e-02
1.447271739466714224e-02
4.016530050432941257e-02
1.096004533459982166e-01
3.642370831601428327e-02
5.417005168067305643e-02
1.253902897873351296e-01
8.689542728381823011e-02
8.288691873537570864e-02
5.556606222961583963e-02
3.411483371484794191e-02
1.088099413257716669e-01
7.650019257468844425e-02
5.589791143321580502e-02
4.002427267899968943e-03
1.539011522349125610e-02
5.580792282396664777e-02
7.200625106806687881e-02
2.341413151596963282e-02
5.754798981481903941e-02
8.004627364677535661e-02
8.184698535510100126e-02
3.498937011137338848e-02
1.225361486949670953e-01
8.471713981516330871e-02
7.406053395499080649e-02
3.555109247373840209e-02
9.419009577792987475e-02
4.186894708391811215e-02
7.300451380382722011e-02
1.264706165048408715e-01
1.082134375752613759e-01
1.002348075295964869e-01
5.966064528429035341e-02
1.103425488002877097e-01
1.348552425244685105e-01
1.069990822827735499e-01
9.762657186033309176e-02
1.326718633884332310e-01
9.153962723868408480e-02
1.318889197239347111e-01
1.561966622222946133e-01
1.553092345072078495e-01
1.865431761903172114e-01
1.421610743582274461e-01
1.709409099893516859e-01
1.529065395501809643e-01
1.741629112245617894e-01
1.919530430073781713e-01
1.958739474781846512e-01
1.423862799062564910e-01
2.468675541339535040e-01
2.865788136390621799e-01
2.086362973621491146e-01
1.536147658549290584e-01
1.700046280646423935e-01
1.387808892159536345e-01
1.875191483100210332e-01
1.758518330255273154e-01
1.775023591020779556e-01
1.584571013207448364e-01
1.279202912798500236e-01
2.037775514689766920e-01
2.235117976168851384e-01
1.633064339340251081e-01
1.810008628113368712e-01
1.727266232456532435e-01
1.870368592046475764e-01
1.056216569672436961e-01
1.703244283997569497e-01
2.020600913771656293e-01
1.530875362287696939e-01
1.915360674969464605e-01
1.934472064968153493e-01
1.862455089009142639e-01
1.968850263875744633e-01
2.195127909887313045e-01
1.893307985498485779e-01
2.652559408203416513e-01
3.421130738449441600e-01
3.803831802196081524e-01
4.154996433733124106e-01
5.521405529371246068e-01
6.170612415044852694e-01
7.614669343160268555e-01
8.699539044040214275e-01
1.031833518092936552e+00
1.168400191226723450e+00
1.170944221829694820e+00
1.312181729699006150e+00
1.398866896019677952e+00
1.486805547178423170e+00
1.521343153098193790e+00
1.486411419505817566e+00
1.545042739228499773e+00
1.515444551482115987e+00
1.385910673234275192e+00
1.325442239847408388e+00
1.261531769906943490e+00
1.189266157139622804e+00
1.033968956462008260e+00
9.494114226102966514e-01
8.457864505543719602e-01
6.721172511207873512e-01
5.334469774016556975e-01
4.883774704642306341e-01
4.091956867030326350e-01
3.418080431896349247e-01
2.898051718958297163e-01
2.475605690485598864e-01
2.285663443691450525e-01
1.892183103731431559e-01
1.785890220899333802e-01
1.401630809374180553e-01
7.773592701500062208e-02
5.562060782664014769e-02
9.351409652083955693e-02
1.261088449336872919e-01
1.334568809382531973e-01
8.991479402186283720e-02
1.388147973827273396e-01
1.459073801163664474e-01
9.644954432709698655e-02
5.387501781145119517e-02
1.224031276262705359e-01
1.529324294456352040e-01
1.218988693260897871e-01
1.945447319959790478e-01
1.697897195538802528e-01
2.158513126577132901e-01
1.474793497842752377e-01
1.880563560592380390e-01
1.295735448401521550e-01
1.946753953647203106e-01
2.001334334758130828e-01
2.099064426566594477e-01
1.878827492391385856e-01
1.682030859274978030e-01
2.297433503968413782e-01
2.042641545951753013e-01
2.188305110229990524e-01
2.064283927666199503e-01
2.682360357649332672e-01
2.651656989111839113e-01
3.443232621384042513e-01
2.530425712593182275e-01
2.766189597638009090e-01
2.328635984618679933e-01
2.080763283178709011e-01
2.549750742872357034e-01
2.685291111832402433e-01
2.923416810165908597e-01
3.401427841937576524e-01
2.864838288457822735e-01
2.625653004746986152e-01
3.098764443889725495e-01
3.288917655794600381e-01
2.589368530611383390e-01
3.303351296798534564e-01
2.367553771955026309e-01
2.238581240435482955e-01
3.020645842594957831e-01
3.033729522776398291e-01
2.168266515759322000e-01
2.575955089421466671e-01
2.105555904805323786e-01
2.654576710012838681e-01
2.962598004559695575e-01
2.469840422531706936e-01
2.518967544194570807e-01
2.877459517337123684e-01
2.204591044990826809e-01
2.697723450145173563e-01
2.113570382994558183e-01
2.387909731262036206e-01
1.934616972158318682e-01
1.662879320208398570e-01
1.840348879027062234e-01
2.091227529985468514e-01
1.769418135221417221e-01
1.837314431086656541e-01
1.484704596419356148e-01
1.048665123497416196e-01
2.071734154362956382e-01
1.550156618730789693e-01
1.707446800124685360e-01
1.865359112568057143e-01
1.241297947207623265e-01
1.542588552855912731e-01
1.294506867004457662e-01
1.716852377196160240e-01
1.243757899016992435e-01
1.106496135688511406e-01
1.210611803552120447e-01
6.305753947224050637e-02
1.099600060180903616e-01
1.001327273061459189e-01
5.071050268036275677e-02
7.180973075065334721e-02
8.690769850037355360e-02
8.101826737979558879e-02
1.002412649820515617e-01
1.121771374200029175e-02
9.547616191086288895e-02
1.534597805540460769e-02
7.413320299134218416e-02
4.931056928168906645e-02
5.824433377586671345e-02
3.137014279259911498e-02
7.538662291880286748e-02
4.092878277768863260e-02
4.689228127541835572e-02
7.068855664912362946e-02
2.246687649900158679e-02
3.239595730791685474e-03
-2.309715746928675539e-03
1.954199200952302928e-02
8.007248605311291512e-02
2.259445016255073879e-02
2.746740019615680206e-02
-6.030458655040205063e-03
1.342152102887550838e-02
7.619370099954327069e-02
-1.146574291273146085e-02
6.722819622530482042e-02
2.239588957877960279e-02
1.897843569855055951e-02
2.415009402493672325e-02
3.097525136636970766e-02
2.204607316061757763e-02
-2.165977468051599741e-02
3.997461257727145945e-02
3.425536891807993284e-02
3.188100092225146232e-02
2.852214417867256213e-02
2.953119745220229159e-02
1.257654896304331686e-02
2.740419787268564417e-02
-2.616517137414865746e-02
3.784509937893686116e-02
6.504054313096852002e-02
-3.451436995874757746e-02
1.025292015381162186e-03
-1.408952013426199162e-02
4.587761182590247705e-03
2.077995204365880658e-02
5.017125135074828463e-02
3.260269571854013809e-02
2.976445656125409692e-02
2.249724772360896935e-02
-3.782346513919203346e-02
6.920424341533493173e-02
5.039396305382590202e-02
4.253186464247799004e-02
3.318086909838773024e-02
3.081137037622847658e-02
