1.416044315519524588e+00
1.376713980666894432e+00
1.362653027608409007e+00
1.277680857725480124e+00
1.231294251834211151e+00
1.205542008892728667e+00
1.029374542879219812e+00
9.559481400436554699e-01
8.102667105352121535e-01
7.734317795851656241e-01
6.020614307924095909e-01
5.836002516954149621e-01
4.037364619583086456e-01
3.297566926526139253e-01
2.722662856542198972e-01
2.124693488820693643e-01
1.946704359434425491e-01
1.370238185100757233e-01
1.359040622581492164e-01
1.150490776396033005e-01
5.528516695866209085e-02
1.061574104334133406e-01
5.069845655607721491e-02
1.036820410263747105e-01
1.064978791303562017e-01
8.125859536518249826e-02
8.960583155019311019e-02
1.151882735826801618e-01
8.097570510347275319e-02
7.843722051614931967e-02
1.033251663750608951e-01
1.172372295816222765e-01
4.346346617814175750e-02
1.216590459621033349e-01
1.064765986952084242e-01
1.256693932536678826e-01
8.781455698738713234e-02
8.599108810255055857e-02
1.687554594819281606e-01
1.569063515407292386e-01
1.904945910548105914e-01
1.491284378389109433e-01
1.104400064996681197e-01
1.579906266073902998e-01
1.215217420111164570e-01
2.311919008109747098e-01
1.779681953579846931e-01
1.995319589368254876e-01
2.299191891944791510e-01
2.100012868572469493e-01
2.238971583887838235e-01
2.333886562544025267e-01
2.383470436255608615e-01
2.153027255846305388e-01
2.340111676519954498e-01
2.528788042237059552e-01
2.255887461452555087e-01
2.432450615723146248e-01
2.186412918460902965e-01
2.925116519881056920e-01
2.701381424775124995e-01
2.908154614354666045e-01
2.013940678258360484e-01
2.590545861150302387e-01
2.948581155085469585e-01
2.347914234070818396e-01
2.052966167874375192e-01
2.832942991586906989e-01
2.635505746307498787e-01
2.937208350025815040e-01
2.847492606545352078e-01
3.005841630259955544e-01
2.155422291847085836e-01
2.313153612610232279e-01
1.999054302368218072e-01
1.866417600975553981e-01
1.678441225838376016e-01
2.435535443555439938e-01
1.688765096844616620e-01
2.309473664051522324e-01
2.266724606839937428e-01
1.773288809499068142e-01
1.336422695599316923e-01
1.599476172147283326e-01
1.264275679039917333e-01
9.793439095617376133e-02
9.764972774390377752e-02
1.416044435132520485e-01
1.439968509534032826e-01
9.708758427807025193e-02
1.510651953776870893e-01
1.194357532747507417e-01
9.740503123295587984e-02
1.252748902867005243e-01
1.450299597702266741e-01
5.014890512937413003e-02
8.357956350763884323e-02
4.115286090360643911e-02
4.507150588411393266e-02
6.013633385771564865e-02
1.260222252431056622e-01
8.088962086429879461e-02
-7.713810451184708282e-03
3.047092526149727462e-02
4.703765295177353423e-02
6.310232005006631562e-02
3.735130118822167083e-03
5.675696467348108343e-02
1.802365962263286631e-02
9.545278955065914298e-03
5.056732210568533337e-02
7.445909915927420401e-03
4.952001306206636755e-02
8.652237505691346559e-03
-4.461772794527047586e-04
1.960505891200658990e-02
-7.379652896803028106e-03
-2.003445546505137204e-02
2.493184934622853094e-02
2.322958998919984891e-02
3.906203242643276063e-02
-3.348039910191057122e-02
2.396607353787875289e-02
2.342852518794210498e-02
-2.998364613751322572e-02
1.589098507752290806e-02
-6.602217497308542071e-03
1.193216954846545302e-02
-2.424186369419967582e-02
-3.111506565636667707e-03
-1.469811183283003218e-02
-1.555114774432964954e-02
7.543422211212515160e-02
3.616722459932734252e-02
1.838143252897794094e-02
-1.978525431901646120e-02
-1.816658082449952583e-02
1.816952410626938505e-02
-5.057647946874533826e-03
-4.113500933926653863e-03
-2.682646870461823443e-02
-4.451953614198988357e-02
4.500580716540753673e-02
-1.178092213374526236e-02
1.282798647911167003e-02
3.190945504054810283e-02
-4.267999427271601531e-02
-3.649881110866957934e-02
2.911339700448561593e-02
-3.580096368077715502e-03
-1.019762770579385643e-02
-4.221074139518962362e-03
3.411392606409005546e-02
-2.524039955034938776e-02
-2.206843069995025053e-02
5.388533354760065286e-02
2.058454671571621764e-02
3.716521793532163997e-02
-1.477834565420202070e-02
4.167580912508565827e-02
-2.435874623741587225e-03
8.467067232751136763e-02
3.286098972493323167e-02
7.456994870651839635e-02
4.653525583414609007e-02
8.008452027554183172e-02
6.138785821781576890e-02
7.705185578844836458e-02
9.389456970997010765e-02
6.561560285645771928e-02
5.549800191818572703e-02
1.398755868516584344e-01
7.317326758073708359e-02
7.424253570237221433e-02
8.463442395004890095e-02
1.401921023871082195e-01
1.842795459867356545e-01
1.812564490253028571e-01
1.392806253986298703e-01
7.120310765404608278e-02
1.390428275828855531e-01
1.314644436399957650e-01
1.258134682434417229e-01
1.184809102842420275e-01
8.440960155526024133e-02
1.148043750112743983e-01
1.379067682873033607e-01
1.317572993732414877e-01
1.794586228059017741e-01
8.692606761283024064e-02
9.809679214066328867e-02
1.581809285616436189e-01
9.462451338566789383e-02
1.309769398553268516e-01
1.007597329705101075e-01
1.201141902745635898e-01
7.243300952707606988e-02
1.189906723207256739e-01
8.304432176671595889e-02
5.494814369088484030e-02
1.109864466113268389e-01
8.754837720486892405e-02
1.236490385176947371e-01
1.471970889864269993e-01
1.711112360226053619e-01
2.309270289184256475e-01
2.458023839445174774e-01
2.673873250930287049e-01
3.503462092115930404e-01
4.760155110116293664e-01
5.878684850809084983e-01
6.599497026159650837e-01
7.790981389462017237e-01
8.820794181257015643e-01
9.991444323393905425e-01
1.075659591516130886e+00
1.194750269957829403e+00
1.256141685661277263e+00
1.337928504308218747e+00
1.350328679640026230e+00
1.413173199721269979e+00
1.359221194192867133e+00
1.326290963658146582e+00
1.329403776829602757e+00
1.226565300489259824e+00
1.065911928877759207e+00
1.018575606901009012e+00
8.894460103688850428e-01
7.718948294614995653e-01
7.212853001430190591e-01
5.682353710663853308e-01
4.733989979646527901e-01
3.576251320088132402e-01
2.809390786303718190e-01
2.366309337948349911e-01
1.692962329138524014e-01
1.112449748402042915e-01
8.051856051502886968e-02
7.066176579265215363e-02
5.451446879205583407e-02
-2.226895906507923850e-03
-2.322602622017407720e-02
1.755609981281933130e-02
6.292766111517852923e-02
3.661557556115421080e-02
7.867910514091944196e-02
1.757494292328689450e-02
4.192932746249599524e-02
1.569633011469588613e-02
5.072699788401490578e-02
4.042554699987020717e-02
5.830035276247613057e-02
9.882634039140726634e-02
6.185127297764363152e-02
1.034061711814771023e-01
7.924085215368451007e-02
3.232177526883919794e-02
1.119529498221275843e-01
8.882487474806929906e-02
1.035941679935723364e-01
1.411587357980152169e-01
1.691528813700779454e-01
9.675422707760207575e-02
1.238531744999189221e-01
1.579833991538144300e-01
1.296012742386480621e-01
1.323953190809504243e-01
1.865245916342045951e-01
2.098899369947377913e-01
1.333489291901292229e-01
1.988090334139436255e-01
1.609120053158962504e-01
2.058663755491895730e-01
1.981894988529862567e-01
1.788441645507823918e-01
2.317270838652177034e-01
2.334968146766065455e-01
1.712319463711430290e-01
2.309620387073813563e-01
1.478966674564895500e-01
2.533824542509236499e-01
2.115523544588610860e-01
2.178280037207325215e-01
2.089069032011738880e-01
1.992884937319884253e-01
2.326762240424050943e-01
2.282503919817759352e-01
1.933057161453555217e-01
2.418824179686832054e-01
1.451594791470766088e-01
1.592148120225773678e-01
1.901025284431105689e-01
2.089140255428394988e-01
1.509886712739580972e-01
1.383696424631290223e-01
1.946396577114471449e-01
1.662794945915402889e-01
1.154468141387672980e-01
1.382164087468406577e-01
1.659401857423505322e-01
1.183457599247789288e-01
1.431391175141887018e-01
1.393385358392620621e-01
1.116436666836478353e-01
1.101513878262981999e-01
1.119021933587716622e-01
9.262318511716538527e-02
9.294148722327096046e-02
6.263593125490220237e-02
6.057903150593899055e-02
1.184637277204222405e-01
5.317999761037837253e-02
2.782999484486816527e-02
6.233206616943078732e-02
-2.035699011040156825e-02
5.639311496541121738e-02
8.400988351927762832e-02
7.509369132160725879e-02
4.974599973999772190e-02
1.335156340026295158e-02
6.219516533860137975e-02
2.104011371506808031e-02
-1.236515336516295221e-02
-2.033486075880138605e-02
2.774330473499218158e-02
-1.539441304452448395e-02
-5.377723613506969758e-02
1.249444620048004162e-02
-9.429416538134387238e-03
4.245050591900535741e-03
-2.760080074235128286e-02
-5.074177069413141061e-03
-2.391900179611348987e-03
-3.939930283847217773e-02
-1.888805381164586003e-02
-2.530562291895705959e-02
-6.369368767479902105e-02
-1.372562415279783565e-02
-4.001887730318406944e-02
-1.772308589063944367e-02
-2.041100029030034138e-02
-7.713943589990727989e-02
-5.742654155503473107e-02
-6.579730639522350655e-02
-3.910799592580252448e-02
-3.749949867202603121e-02
-3.280771296473158904e-02
-6.658374449086956748e-02
-8.063366332228136257e-02
-7.362270062701138651e-02
-2.330339716077706527e-02
-7.525587585971175997e-02
-4.105636494619499532e-02
-4.093225426214588958e-02
-2.175417550720810944e-02
-5.489400302971531725e-02
-3.214395302713259073e-03
-6.280873059440951478e-02
-8.072339895899630080e-02
-7.492824260712099838e-03
-2.181694422230889829e-02
-1.850811823701937683e-02
-4.949838789804805739e-02
-4.633958789805248807e-02
-4.439474748641433072e-02
-5.993691885018599674e-02
-1.419893787812153557e-02
-2.589055507058440897e-02
-1.929284055193841718e-02
-2.501706631517443269e-02
-2.713517426614079145e-02
-2.235407391765099547e-02
-2.642970145885038119e-02
-5.051315422032368052e-02
-5.176503491966535919e-03
-6.707352159839773120e-03
1.077164010292208651e-02
-3.056091499970835235e-02
4.538074413245275079e-02
1.027743314946998748e-02
-4.085737649855391423e-02
6.661249306010717797e-03
-4.521752918680926880e-02
-4.399159992537023806e-02
2.827567920992170997e-02
3.429031172899893454e-02
6.490796024218431493e-02
3.758534924517033943e-02
8.765595958078020722e-02
5.812538336931542815e-02
6.084132704311429052e-02
3.449034956432015658e-02
2.445075957414884898e-02
8.097408114962513503e-02
8.261989435942690418e-02
1.286583845363355461e-01
1.162249859461364498e-01
1.565344491778781211e-01
1.026923999097067997e-01
9.057737522723546819e-02
3.584990881492672310e-02
1.091078382107249223e-01
5.574714931057862810e-02
1.002832516874743035e-01
6.018284437321554103e-02
1.411601786468538455e-01
1.211565609220850714e-01
8.647032795300069186e-02
9.453164683556398995e-02
8.339778684968163214e-02
7.198228008611674833e-02
2.464864304146185958e-02
5.291205954819264146e-02
7.550765794082600624e-02
4.557524185198434663e-02
2.318609605170871002e-02
4.909758616590076397e-02
8.522522413842312239e-02
4.854806586667471946e-02
5.120830329292949679e-02
7.556912595336610916e-02
9.005226876991395679e-02
1.110021177063313519e-01
9.760105013228229098e-02
1.485324447137691961e-01
1.718607767619705073e-01
2.412638246077791482e-01
2.889383945676479160e-01
3.643759721529368778e-01
4.060059301301550683e-01
5.242611258811448183e-01
6.345431557509960685e-01
7.589280117101688816e-01
8.704854264366895800e-01
9.718693597578246246e-01
1.052660934803862913e+00
1.163727866880820416e+00
1.248508470811950266e+00
1.245545602331784574e+00
1.334249238924202885e+00
1.358537560300167923e+00
1.371018610128144077e+00
1.349427570540438603e+00
1.259105796532827615e+00
1.136580861094971251e+00
1.094194770857112697e+00
9.796060450116601537e-01
9.613759214982107171e-01
7.835753733660077991e-01
6.228612782994473740e-01
6.243764883650588793e-01
4.273037275938851853e-01
3.854365373515573068e-01
3.255772768697779984e-01
1.937153060968462848e-01
1.273374735125274992e-01
1.244810727522053934e-01
1.077341923125703649e-01
8.748681015503008418e-02
1.612066944453253298e-02
6.500226386074857421e-02
5.854487195063360488e-02
6.564447230078371276e-02
2.620033311280377947e-02
-4.428809144017083893e-02
3.142607521189341724e-02
5.533941263268767063e-02
6.026063043483402548e-03
-3.323818201344898304e-03
3.316285310345278015e-02
2.950351750684084007e-02
3.060664757632317740e-02
3.351843340537779409e-02
9.866650883812733142e-02
3.241812192100280293e-02
6.322302251146279251e-02
4.166728869323511192e-02
7.234137648086644279e-02
1.308504376205152919e-01
1.093160309320435619e-01
1.253645155176861259e-01
5.764770134613529662e-02
9.385404304895661465e-02
1.334811333344445572e-01
9.965574396202703245e-02
1.354164767316148321e-01
1.856374879786704679e-01
1.213268241560475913e-01
1.728391884296831826e-01
2.164459918393250026e-01
1.257540752412324159e-01
1.711980287710027637e-01
1.657294998424344301e-01
1.700049441825326468e-01
1.815355241960487642e-01
1.720444509543667677e-01
2.116449990638679668e-01
1.916472592375711437e-01
1.595788600443730498e-01
2.005296853516020106e-01
2.162714019617368311e-01
2.151773514642973117e-01
2.259750993262096275e-01
2.236272364072980356e-01
1.528736818207520609e-01
1.762827337128205774e-01
1.749113188772522254e-01
2.313609670076796077e-01
2.167515984981749910e-01
2.038514998511597176e-01
2.036269401361037179e-01
2.215864629574160749e-01
1.914858114255822974e-01
1.812364370662242485e-01
2.273780782331031591e-01
1.460211698189771146e-01
1.321709574408700960e-01
1.909485802751575978e-01
1.388779231088417832e-01
1.576538284565663084e-01
1.574997570325352148e-01
1.102184973834525183e-01
1.172624493605748525e-01
1.262997184801535888e-01
1.634027030763188504e-01
7.954415918121546247e-02
6.474170375161943103e-02
6.254205777989590986e-02
1.044380202604038299e-01
1.194157280688340345e-01
8.642764635044791754e-02
7.756310666002262655e-02
1.207021273218094187e-01
1.596214798776746657e-01
8.343158265910093074e-02
7.585636702178012725e-02
9.270429687378836658e-02
3.356792852412471967e-02
-2.295087623777614105e-04
9.161842559211524906e-02
2.365211646868582013e-02
9.106983065298383806e-03
2.660540626190279617e-02
-3.594898524355016889e-03
-5.606003851867437382e-02
-1.038834045159174602e-02
1.088243949694341073e-02
-5.681035924895293243e-03
-1.191393613065803991e-02
3.404106457585955731e-02
-8.221039089403650579e-04
-5.325747205278495711e-02
-2.504641697398796163e-02
-1.968720696421385682e-02
-9.196174426713506211e-03
-2.257662034703961443e-02
-7.936996353253206182e-03
6.423068731509315454e-03
-5.335292225318505333e-02
-8.299146946260324564e-02
-1.342925535009989457e-02
-7.383360237687769390e-02
-4.098921836313981076e-02
-5.986389347186938520e-02
-5.362441921238349229e-02
-3.621176136849771354e-02
-7.396818895679371786e-02
-5.061161189330025401e-02
-2.005887271812104716e-02
-5.340413404226335842e-02
-6.083409974209373627e-02
2.648200724148357804e-02
2.774019568853925560e-02
-2.158717701325916366e-02
1.047725188629337889e-02
-2.005417886638934805e-02
1.250508015477716506e-02
-6.320232741069624349e-02
6.352792213027830953e-03
-7.218049717503173535e-02
-3.520366251114962625e-02
-2.717944387209063339e-02
-4.850006148954681684e-02
-5.315997822493660763e-02
5.366536592143495571e-03
-3.289399684320994804e-02
-4.165999803023150844e-02
-2.218485658860482740e-02
4.405338778443348285e-02
-2.118536003468479700e-03
1.181337481519471530e-02
2.495474236852771380e-02
-1.120199647529136061e-02
-1.820883754415246816e-02
-3.046223828629923344e-02
6.820252728331394065e-03
7.956786479047735922e-03
9.187530277544903035e-03
2.913901616282357776e-02
4.620913051216793410e-02
-3.238241286779963007e-02
-1.745526112891358089e-02
3.974933883121302414e-02
-2.866623639057123973e-02
3.067362345755673958e-02
1.438165228154418551e-02
8.460260944331748911e-02
7.346964921404412763e-02
8.706053162119238575e-02
8.995887700355104100e-02
1.499764464266463704e-01
1.546424463920542669e-01
9.532433881308147172e-02
1.035174781332840882e-01
1.070072887048311716e-01
1.422197453049621196e-01
1.251902249846955084e-01
7.249222372251340474e-02
9.864847736174441051e-02
1.540382151624567209e-01
1.074474406378649605e-01
1.685537180296673432e-01
1.203318438987040079e-01
1.414526714068692070e-01
1.367529734014669152e-01
1.074968674577614219e-01
1.399845012821918089e-01
9.647972406459502659e-02
1.150094403705916729e-01
1.295871831685020403e-01
1.454752815765784912e-01
1.708495458888297791e-01
8.929529913851536049e-02
1.177104254573835967e-01
9.934251151892922738e-02
6.877385225593285467e-02
1.320263409620624495e-01
1.013406282948779991e-01
1.108075130073314235e-01
5.791915703236279883e-02
1.044910583537617815e-01
1.155686426474123313e-01
7.656012054780425569e-02
1.618791573483929491e-01
1.911011257720384993e-01
1.711667673630007658e-01
2.678883376588376830e-01
3.668925173982394705e-01
3.611118129769732565e-01
5.405077295726223863e-01
5.170190141339252587e-01
6.580629919702951636e-01
7.940920929436192655e-01
8.818794454009583061e-01
1.030304430872223342e+00
1.081495649944996584e+00
1.159460105968948884e+00
1.267830385108833058e+00
1.346199724695010147e+00
1.410683347600558912e+00
1.396111414685821117e+00
1.399676262406925664e+00
1.285918055883983113e+00
1.334667713203455008e+00
1.224904391588581554e+00
1.150787135994898680e+00
1.014515181666238552e+00
9.362725021738800280e-01
8.134263118795199698e-01
6.342498495398010139e-01
5.626615826654546293e-01
4.679207025044022084e-01
4.625939539734617578e-01
3.241109804608377498e-01
2.863436856848642909e-01
1.821832081938082604e-01
2.015383000405532032e-01
1.506849775960013571e-01
1.327762398024149859e-01
1.110024522125673957e-01
7.236785733062142678e-02
8.282545242252926931e-02
5.395133033877737294e-02
6.613956832804533670e-02
2.905301495113438506e-02
8.821031148519045684e-02
1.105637894469662375e-01
5.470243596640921024e-02
7.937801835534316619e-02
3.359365453235432265e-03
4.342369168781781003e-02
3.507924757287144563e-02
8.822277788245373731e-02
9.769995374348384998e-02
1.392410696337528786e-01
1.051804159603220712e-01
9.944580296959550092e-02
1.262171206065403894e-01
1.005590241062312845e-01
2.133097597229519360e-01
1.198113056039169094e-01
2.309201501545815050e-01
9.002776946725718488e-02
1.536506007973157950e-01
1.599638875996738097e-01
1.712467037073685527e-01
1.588717348641477123e-01
2.351770848987727591e-01
2.304250481197495926e-01
1.659853580997189826e-01
2.342722994280339588e-01
2.388730323936009425e-01
1.654502828074536636e-01
2.488535328787380430e-01
2.548557159323691645e-01
2.493489453314836901e-01
2.935667540986169333e-01
2.823590221021408109e-01
2.747011807177542897e-01
2.918174329049728066e-01
2.368237052861737746e-01
2.352418772370541700e-01
2.597447086494122925e-01
2.740551403145088383e-01
2.706094920259529135e-01
2.499186836140018797e-01
2.768660714741120743e-01
2.499489937107964299e-01
2.477781059606022351e-01
2.936230722031104579e-01
2.284766117724123247e-01
2.268483283640009562e-01
2.253343885837353067e-01
2.399507769934389467e-01
2.318549482425711350e-01
2.191922632162629780e-01
2.236141187620364068e-01
2.194712646352836027e-01
1.670092701830310500e-01
2.105217458060051061e-01
2.268770317958823113e-01
1.774985343467167520e-01
1.762647153461119609e-01
1.530333812408429528e-01
1.670712731975877441e-01
1.630210330213091585e-01
1.995207078735121708e-01
1.649598572438509547e-01
1.707675372776111811e-01
9.134967140160621391e-02
1.087071428196913214e-01
8.954991494346559167e-02
1.130101968289066589e-01
1.416097604310943558e-01
1.300663539905086430e-01
9.611163088804008936e-02
8.392311840182675731e-02
7.998260433559248317e-02
1.315568782435905804e-01
8.487633279718367896e-02
1.178995230259999999e-01
3.689653510458661828e-02
7.951712879285618985e-02
3.374284164548696507e-02
6.267987144251928322e-02
1.193396554078474114e-02
1.417397880244414266e-02
2.292554116647138596e-02
2.874865352261080087e-02
4.068746830657551938e-02
7.191737182774171622e-02
-1.290591773854511508e-02
6.485319015843239721e-02
2.213032639267268481e-02
2.257422938973050602e-02
1.240945284373901406e-02
6.522795528640609741e-02
4.960529917154378465e-02
3.294808991426678713e-02
4.245913726353398726e-02
6.096455002390708394e-02
5.288282923712918360e-02
4.347698460190362046e-02
7.177541082372680681e-02
3.007613773349337993e-02
3.415931735946643732e-02
-1.653570859221041578e-04
3.338521842897648056e-02
3.211249636064977819e-02
3.917706093442419046e-02
-8.837448676220216459e-05
2.861282041770836851e-02
-1.132709873177226850e-02
-1.532995968850331056e-02
2.476418481520573436e-02
2.707106256152988152e-02
5.057659659405795011e-02
5.878193068314432890e-02
6.597326598217005678e-02
7.351107921275296109e-02
-7.764935982882286564e-03
9.309857486514491742e-02
-1.142099102486493836e-02
6.227010117013556667e-02
3.222891257281556426e-02
1.452355728264451834e-02
7.167891594399679323e-02
5.309086174226797239e-02
4.230185033827563168e-02
1.348364731271316057e-02
4.064442130824634514e-02
5.025260376971162762e-02
5.021005265565788717e-02
-1.916175812800320968e-02
4.207192037138461627e-02
9.791352262729161038e-02
6.817675798891170702e-02
5.258390811282905725e-02
5.424652826798536526e-02
4.368871210835637703e-02
9.129779063280035745e-02
6.184230390518755116e-02
7.406586535274452265e-02
1.497383236760508052e-01
1.502461456833708575e-01
1.209257145117070831e-01
1.289694846117661886e-01
1.599523541472832322e-01
1.289526776361465676e-01
1.053623556811348061e-01
1.813545560669724555e-01
1.738177394735498094e-01
1.392392151801630784e-01
1.451589576739183429e-01
1.663159296416226174e-01
1.875483249561993582e-01
1.129012062908304470e-01
2.095471838515011176e-01
1.700568714325490227e-01
1.488102851321627118e-01
2.039971017959165411e-01
1.721793475861776723e-01
1.342047070585609403e-01
1.801369767737009409e-01
1.892069295626165049e-01
1.530753579577451839e-01
1.637175694276670757e-01
1.458527815011395889e-01
1.432156841758605859e-01
1.699894637500929395e-01
1.323057165541957070e-01
1.290706294791373887e-01
1.711566128529792008e-01
1.551282692124175966e-01
1.386414353925990162e-01
1.350095899437878111e-01
1.407613866854945384e-01
1.373797594828150836e-01
1.387931800083265499e-01
1.616764885363472237e-01
1.569000543089634492e-01
2.122304700136584954e-01
2.052476664552984609e-01
1.784261451725029646e-01
2.644418707964452664e-01
2.454421729559395082e-01
2.989814719500908935e-01
4.585858822436015836e-01
3.971823915544731576e-01
4.830780069084638639e-01
6.532278559111533989e-01
7.344158960865243557e-01
7.985535262919606359e-01
9.578916334658592602e-01
9.891375750347708440e-01
1.136728069108958294e+00
1.207763899993460122e+00
1.353452755300960764e+00
1.429777920863695373e+00
1.465494496057971663e+00
1.428146292183831267e+00
1.436984643148790486e+00
1.374964304777563262e+00
1.319951383025836256e+00
1.301122192058676186e+00
1.218901260479051896e+00
1.062917748065775214e+00
9.879593335152062616e-01
9.025414550737621555e-01
7.472577674958622573e-01
6.031896233225318982e-01
6.336132870510839954e-01
4.040582622522594369e-01
3.919853231986216713e-01
3.159635350848497559e-01
2.640717001892549654e-01
2.126809248459283486e-01
1.833475834016314865e-01
8.159470616259539844e-02
1.448238667089379039e-01
1.705028707255986098e-01
1.281085608194747483e-01
1.256851811002281383e-01
1.111855131486358672e-01
1.038084813074631740e-01
5.727778692953240658e-02
2.739207258146751645e-02
1.743791307329491391e-01
1.272405582638485022e-01
1.279947090237106289e-01
1.423718858358687112e-01
1.149085870572513768e-01
1.463032623198324556e-01
1.762479776345749483e-01
9.965370225099377810e-02
1.401819188481872591e-01
2.097236920921436432e-01
1.820322604973855507e-01
1.660515572010021201e-01
2.246705523472188881e-01
1.751194020487374658e-01
2.016140022165409107e-01
2.057816794093673685e-01
1.993054279429767872e-01
2.427858548805506833e-01
2.414147952403594422e-01
1.956391431366232558e-01
1.911665805177156785e-01
2.582953164161594928e-01
2.836512525021643860e-01
2.111104016215479828e-01
2.492240462481573327e-01
3.272410584497101316e-01
2.843406475599932204e-01
3.115057219486873641e-01
3.101948447153526356e-01
2.960214023593907839e-01
3.346443588521271773e-01
3.043098037158670222e-01
3.149944203074599436e-01
3.012217050384614070e-01
3.360251216321982204e-01
3.146183599108643980e-01
2.732010474988639248e-01
3.285717233608434484e-01
3.182011955690898786e-01
3.029054182409350870e-01
3.340463079402130608e-01
3.540344316256010537e-01
2.863691581581280232e-01
3.037806729293796026e-01
2.967009873657132091e-01
3.007700804891482727e-01
2.786738866299490747e-01
2.829975932607399214e-01
2.470945294119715474e-01
2.716301202523024316e-01
2.271235284785155795e-01
1.625946194213129248e-01
2.096959279759336714e-01
2.737826989161209479e-01
2.239816237175687175e-01
2.116837118199305645e-01
2.314483546585888729e-01
1.948473483342649804e-01
2.279500249716222282e-01
2.494499723702228722e-01
1.916780058889263894e-01
1.268923991310537680e-01
1.729455433483748084e-01
1.912570549457299485e-01
1.844242525683943146e-01
1.741148980604264873e-01
1.485454492009007921e-01
9.348623508043470143e-02
1.368698520148783349e-01
1.321550762084153785e-01
1.721186399540275136e-01
9.877803353118991270e-02
9.342564473360306931e-02
1.458254150608332966e-01
1.085673242351578027e-01
6.475671617006323322e-02
5.579203525617092152e-02
8.526644373825162382e-02
1.265430543559621923e-01
4.204384188075038081e-02
9.877292796603080738e-02
5.900530029924284242e-02
9.483049265840404196e-02
4.739818440909418507e-02
1.132431294794187804e-01
6.019036663779286922e-02
3.263516239048339096e-02
5.106871455763417611e-02
7.377498102879646857e-02
5.803940796404442881e-02
1.236942723217172302e-01
9.023199336054207875e-02
8.135913965422091054e-02
7.140002425337439729e-02
5.445028062968492594e-02
9.686265975328835209e-02
1.055662017039493694e-01
4.630763523712686652e-02
4.885928627790603329e-02
6.206953325347840111e-02
2.833311505570549477e-02
3.235102515277254315e-02
7.279315305350542165e-02
7.155787777928668270e-02
4.571035405236486410e-02
4.426470524193936579e-02
3.844672109051573000e-02
7.031808965439220738e-02
8.401344258063719872e-02
7.487449776136749502e-02
9.660470698286165170e-02
9.210184662180734283e-02
6.018219634603587387e-02
3.536014247095722179e-02
3.805679787676688464e-02
2.559276119914748529e-02
2.863089943367940621e-02
1.659032604122850224e-02
4.994575505136746030e-03
6.090766693913535201e-02
4.385800643301169394e-02
6.016331381928474720e-02
9.001976219829482817e-02
7.332575241023225887e-02
1.204744635333977743e-02
4.216539462348153910e-02
8.855471545421150781e-02
4.037488657465555797e-02
7.734586903210205477e-02
1.294422928720903032e-01
1.084571688092403896e-01
1.316340962489024324e-01
1.058641299360599530e-01
1.248024927257345845e-01
1.147873489321060009e-01
1.060146802618996409e-01
1.373195226547078707e-01
1.312657069562744583e-01
1.424844131012866777e-01
1.164820337003500406e-01
1.644883159024194963e-01
1.604182071015840816e-01
2.203775054104342157e-01
1.857196283054617370e-01
1.653858968457090073e-01
1.153928140252794832e-01
1.714650811941081932e-01
1.989376786016499032e-01
1.950288773388826058e-01
1.854198979589954943e-01
1.762653392309017075e-01
1.657394169103974524e-01
1.554090520664925534e-01
1.845928814174748744e-01
1.981814241990150216e-01
1.653752039450707700e-01
1.864319647620708564e-01
2.384035626223602045e-01
2.654826083432145212e-01
1.694934759038377869e-01
1.606073206577983137e-01
2.118361868705090911e-01
2.390865337137681734e-01
1.531581148585198227e-01
1.979360986177833293e-01
1.874817371430286816e-01
1.965139061597744874e-01
2.041845094930202498e-01
1.545086541315803252e-01
1.666586151897359036e-01
1.478636153420066213e-01
2.005957763789444626e-01
1.662926378896784629e-01
1.028470878738750316e-01
1.591628574013713160e-01
1.838595217112230784e-01
1.442766282304871195e-01
2.622717922793979528e-01
2.793081664817028131e-01
3.390037885196955370e-01
3.453659535500653299e-01
4.468803033536141167e-01
5.647100580846750040e-01
6.039999707586081179e-01
6.883814519603089765e-01
7.922691212699549679e-01
9.331914667186339551e-01
1.074612984140328242e+00
1.176416821734020735e+00
1.238046485215499315e+00
1.297072674390516323e+00
1.373738878994821500e+00
1.444236965054179977e+00
1.410120673821863013e+00
1.447152718926836279e+00
1.434973280749958890e+00
1.319013465953666975e+00
1.268116678073918147e+00
1.298512412885216571e+00
1.070832897073087597e+00
1.044614948448814307e+00
8.935869925919178725e-01
7.357301740761287290e-01
6.459230626028189537e-01
5.418760249370164761e-01
4.750008455765922233e-01
3.872415110960232276e-01
2.862185119707846837e-01
2.442803044553178426e-01
2.349356765932518742e-01
1.672959073209899228e-01
1.355912204447361769e-01
1.341862983385067598e-01
1.144778981585560795e-01
1.427550811926342200e-01
1.160556666121976555e-01
8.558089934154367029e-02
7.423937804985028532e-02
1.260683982698307948e-01
9.148262260944219071e-02
1.477731268873202775e-01
1.365873900911611094e-01
1.363432934927535922e-01
1.165624794603056236e-01
1.406849695538840428e-01
1.543090682601677976e-01
9.091689923400703144e-02
1.561148389737354314e-01
1.452598168474125151e-01
1.897406658000121149e-01
8.586638734458074129e-02
1.796489871206589373e-01
1.936040296374932357e-01
1.970213725320314191e-01
1.918142110799099520e-01
1.904530767694869176e-01
2.077356762946583058e-01
2.249959639119912536e-01
1.971729049881115470e-01
2.424936340640695132e-01
2.245420867029714052e-01
2.376607893118466153e-01
2.102121587541253556e-01
2.643212794293246515e-01
2.668478926664143436e-01
2.490782921068716571e-01
2.884731414011564299e-01
2.205088400054603381e-01
3.214387176417118908e-01
3.014075577866417999e-01
2.684164559227337210e-01
2.542351843430902814e-01
2.219238177003965695e-01
3.333249383259052068e-01
2.195167448956759637e-01
2.725445403589225046e-01
2.831479291855933944e-01
3.061776727693673039e-01
2.543177609385442461e-01
3.033523459577933679e-01
2.977214631644977683e-01
2.401308415933504359e-01
2.967255046312625155e-01
2.444254204178821221e-01
2.981462735572994460e-01
2.783806076113934380e-01
2.818751443730888040e-01
2.790874720063345471e-01
2.737656752155293582e-01
2.134680368180902899e-01
2.165070026557146809e-01
1.830149626655738215e-01
2.374778047366059019e-01
1.910817233328442333e-01
2.123112157279130330e-01
1.807282581728715254e-01
2.129385027594252466e-01
1.731349497284127015e-01
1.950805867743545530e-01
1.402271436045499642e-01
1.639596434624339405e-01
1.802002290561557640e-01
1.685710256209895508e-01
1.396446445893555488e-01
1.776663947126160825e-01
1.309513302711672322e-01
1.249755293238880294e-01
9.536946389828622472e-02
1.376243178374165488e-01
1.872158423227421042e-01
1.365931263258522432e-01
1.201340963361845204e-01
6.727079547344266830e-02
9.503379264826108952e-02
8.465906527205202536e-02
4.155362581613273459e-02
7.165490643216648747e-02
9.574558003593086619e-02
8.625703284244132241e-02
1.084730631378110904e-01
9.729638817456259803e-02
2.813951835570924903e-02
7.263118040511590268e-02
6.484473164368191600e-02
1.139707870171345616e-02
-3.558109056090294486e-02
3.458521599214347403e-02
8.725085871585278041e-02
7.083057575952020346e-02
8.928934300653779133e-02
5.429126604721048327e-02
6.061190376222241882e-02
6.394200189787106747e-02
6.644482802923465381e-02
7.544550231022479486e-03
2.413495162646786540e-02
5.117897601412860903e-02
-2.003345389701909757e-03
5.941442307684400431e-02
6.398571041055525765e-02
3.477776730564806351e-02
2.548079820234791515e-03
4.453663845015636696e-02
8.352353355230067444e-02
4.170605024838612562e-02
3.723731407022742856e-02
9.191013394046114796e-03
1.597314904594628743e-02
-2.538912623217755293e-02
3.688499935492607629e-02
1.611929538422545924e-02
9.353553064683722829e-02
3.502852382512060270e-02
1.463286018307046431e-02
-2.780557687006093501e-02
3.263457143304600294e-02
3.264908083728350341e-02
4.394831309674067377e-02
3.911095108465654363e-02
-1.360506733481195440e-02
-2.859299567401715064e-03
2.687722196583999801e-02
1.910195565338847212e-02
5.695887957489332784e-03
-1.367144666169700651e-02
2.526932575059504665e-02
1.261450871948191846e-02
1.403897770654954913e-02
1.177822178620260146e-01
7.066565183682928242e-02
4.906971842793410310e-02
8.148263804640147601e-02
7.845089765864669828e-02
8.757218048944426236e-02
1.028532285988699169e-01
4.779048501473388832e-02
4.945631698819172306e-02
6.859435051365297964e-02
1.001951510446414395e-01
1.385304713098337026e-01
1.041212565057150624e-01
9.507970009879075646e-02
6.626241914579748815e-02
1.023637774411118306e-01
1.508732768813163816e-01
1.304287460534763743e-01
1.138463046273868462e-01
2.364392797868423157e-01
1.629693493203846766e-01
1.463173066577949932e-01
1.348905026548049557e-01
1.913857928190869917e-01
1.613980575051435773e-01
1.685808330540828071e-01
1.535652116195827532e-01
1.643616702379619432e-01
1.922229860895048603e-01
1.743379852020645326e-01
1.030726413192504659e-01
1.928950308123283663e-01
2.267691862261549118e-01
1.213869418801866440e-01
1.801155384829040973e-01
1.261553308190532241e-01
1.565737818478550869e-01
1.475961556647318318e-01
1.626776353119913088e-01
1.316491143361060157e-01
1.648754995110833788e-01
1.198607699274365779e-01
1.022787926575935424e-01
1.055447743608168287e-01
7.292706035221011018e-02
1.228661672425753887e-01
1.828355057915533599e-01
1.639496483442184904e-01
1.806692066124886142e-01
1.449090242934571171e-01
2.590884621781401886e-01
3.258978573021133474e-01
3.841578853627567458e-01
3.615407723575061461e-01
5.237562340843338049e-01
5.185611247458795647e-01
7.044911758798959589e-01
7.149236453245427780e-01
8.791574016561446436e-01
9.953947174305091128e-01
1.109173328903490852e+00
1.107397494385584880e+00
1.318397006794971293e+00
1.383266920332238081e+00
1.345449775668622561e+00
1.388140836306170689e+00
1.401724604074773950e+00
1.334649211214414155e+00
1.296395929810409298e+00
1.242358630974976785e+00
1.169933307003516942e+00
1.061964982085925824e+00
9.327741341281975407e-01
8.707815797848306172e-01
7.570642365357753700e-01
6.257814572561215538e-01
5.616958800226915516e-01
4.584924960548271144e-01
4.171028897922618439e-01
2.856980556463413201e-01
1.861667356909583737e-01
2.003217828999332151e-01
1.489255962316031467e-01
1.070833077730718730e-01
6.838825350249455592e-02
1.095200152456479725e-01
9.290237903996363678e-02
5.240389917134812003e-02
5.765486458302547176e-03
6.895528370318319833e-02
5.044393376846492694e-02
8.329891007023175475e-02
7.774802342008176048e-02
9.862800095809065581e-02
1.080048211327113983e-01
9.306951958527924507e-02
7.093552417831575085e-02
1.251278943330225712e-01
1.150174432311654310e-01
1.073375684298985000e-01
9.378766359074305892e-02
7.133507492528540217e-02
1.475721524362182957e-01
1.005796782106502668e-01
1.375444526529201461e-01
8.031708652937968873e-02
2.038092082261999671e-01
1.281502265571878296e-01
1.671471637992598402e-01
1.604913849942029014e-01
1.504679574529056707e-01
1.990477794315345939e-01
1.762306423430524682e-01
2.103926822152071552e-01
1.997859013255585126e-01
2.266028447081233632e-01
2.361530879135549932e-01
1.949432253481660215e-01
2.817354620682909205e-01
2.197502259301687133e-01
2.494299162707272755e-01
2.396829541733960234e-01
2.249240729743080536e-01
1.864127572387547227e-01
2.153369473441464343e-01
1.578297365158021492e-01
2.678078558455685987e-01
2.632104246563894412e-01
2.348926459687562251e-01
2.399294914493960984e-01
2.379189011068356119e-01
2.469872808297937372e-01
2.595012735506355694e-01
2.871296990299804230e-01
2.059041715000636541e-01
1.968651087042743997e-01
1.786045525706287107e-01
2.603682041755686627e-01
2.272797937788021416e-01
1.668917183369104662e-01
2.013798931549342919e-01
1.778318897925617870e-01
1.588866327342759732e-01
2.111573966856723772e-01
1.716964477370457876e-01
1.717704048927711780e-01
1.323929080909210243e-01
9.504185024662023529e-02
2.049915435472882408e-01
1.440308907171136965e-01
1.004272787557028979e-01
9.690085815475416031e-02
1.327207218130699307e-01
1.242267116264943461e-01
9.639173306845963407e-02
1.102553450781745686e-01
5.728373627284343017e-02
1.112521955089204179e-01
6.989146067459689471e-02
1.237377873513760412e-01
9.755059999270324078e-02
7.445697519306157530e-02
7.788779181553701081e-02
7.288728934313246088e-02
4.167151268444110879e-02
3.721943763330011479e-02
2.722332462872058267e-02
1.131190017587609120e-02
7.612894771036085584e-02
5.265731956676209663e-03
-3.968139571663420462e-02
1.861150376365273279e-02
6.484440961825349570e-03
6.268835377827884636e-02
1.289517970934689686e-02
3.447451603185054669e-04
-3.445054838097098143e-03
-6.907596228682783002e-03
2.281361981200809991e-02
1.882731086520071997e-02
-2.202837311826820466e-02
-4.388424959806892789e-02
-1.581928636785702794e-02
-3.274518342848940777e-04
5.157920223447229335e-02
-6.706851314674748543e-02
-2.169868983132704904e-02
-7.036378090416428588e-02
-7.129192665517834759e-03
6.667711250472380113e-02
-5.178820560037813991e-02
-5.623813380089780212e-02
-4.998587680042616832e-02
-2.493763973901688691e-02
-5.622777364987857629e-02
-2.656444586085090348e-02
-2.956128770966108890e-02
-3.930606894834957898e-02
-2.182087408489491107e-02
-5.158272879822672213e-02
-4.115348147493103070e-02
-4.081604849852402128e-02
-4.397468381358882183e-02
-1.134068913537906315e-02
-3.725355092206096563e-02
-6.693124253985258121e-02
-1.288426653981118719e-02
-1.826264419641759895e-03
-2.651227383249839947e-02
-6.989220715607172285e-02
6.743334725746681635e-03
-4.358812176076058698e-02
-1.997611390315648383e-02
1.940518730960457197e-02
3.778894806017327190e-03
-2.206434213879498660e-02
2.809141672748089597e-02
6.606045725972550797e-03
-5.301030242638877371e-02
-3.543276376955718093e-02
4.647225222820108165e-02
5.524654286238491613e-02
8.116685667356161871e-03
-2.744907869887126123e-02
3.534599492642726687e-02
-1.725407688643246576e-02
-8.466159660651933344e-03
-1.179550886519938058e-02
1.060598863346858822e-01
4.612716813650986902e-02
7.244602986153111934e-02
6.475034499616734440e-02
2.986567518751220146e-02
5.482892664241437869e-02
5.556250710189569730e-02
6.487709551056430879e-02
8.394804898814320349e-02
8.283181873172118515e-02
1.230757440111273637e-01
1.134345277967346022e-01
1.230333887108371049e-01
8.733478364450181219e-02
1.496765657336190103e-01
1.436283886985836866e-01
1.210586024971399000e-01
1.241140572903306760e-01
1.380652401725236678e-01
1.189766869705327912e-01
1.294542009800426774e-01
1.029131792203900608e-01
1.241096994850909574e-01
1.190386687886958728e-01
9.679381578799145514e-02
1.495025776018123753e-01
1.491507064969810614e-01
6.919620146182681175e-02
5.172458391171856629e-02
9.328612959176824093e-02
1.447844600573986451e-01
3.794093176903032272e-02
1.157630613798721064e-01
8.265305458275257200e-02
1.529903743754361389e-02
8.246996542455151125e-02
3.888979955292540258e-03
3.513435181580392558e-02
6.761880332719176490e-02
1.106844519690388662e-01
5.626590493789726533e-02
1.623169775569274775e-01
1.852515591477095491e-01
2.476549352448210728e-01
1.917024532786373026e-01
3.671320486530285643e-01
4.416707990777105630e-01
5.194321485700481578e-01
6.972222639254438414e-01
7.516299016178167314e-01
8.063882509973913093e-01
9.972139756678892741e-01
1.068696687730684491e+00
1.157093757121271604e+00
1.202322215780249559e+00
1.256452435067878515e+00
1.334037288272805766e+00
1.338035493733207959e+00
1.323667042589157239e+00
1.316352335049334910e+00
1.327041423250935326e+00
1.189768770493900618e+00
1.172002793453581049e+00
1.084111097168115156e+00
9.734150569915184237e-01
8.200766624857090958e-01
7.048929910903063423e-01
6.486243349423398419e-01
4.779875997049340963e-01
4.063781283626810570e-01
3.409518128017451355e-01
2.513386331774368765e-01
1.885604863916112428e-01
1.321201941121688261e-01
1.224698352240958521e-01
-4.575945260534106107e-03
4.843527553232520461e-02
2.657303700808537339e-02
1.859959016447297608e-02
5.818760690245590450e-02
4.466992999350710702e-02
1.860343604051150485e-02
5.865306860786319992e-02
2.577976688778128161e-02
2.134700111545603796e-02
4.467009457259928096e-02
3.887961625650695335e-02
2.759349888238538800e-02
2.254098344101990170e-02
6.566897614668276706e-02
4.514235688942126734e-02
8.060148698929879563e-02
5.639209903947217661e-02
7.725810405491430333e-02
1.107847285549309613e-01
6.965953563293977857e-02
1.197604387909071283e-01
1.381977802805909317e-01
1.119164733987012689e-01
1.329928559779081643e-01
1.380724938125142964e-01
1.042115773646174609e-01
1.344007321154317147e-01
1.567130542410768712e-01
1.610135530019073946e-01
1.575667036356774020e-01
1.350076768374725567e-01
1.955990365064908809e-01
1.498368550492258089e-01
1.366406576409397444e-01
1.666917570692877104e-01
2.214581105847330256e-01
1.599726759746493698e-01
2.227368952943105107e-01
2.257759045068293835e-01
2.000068414879964118e-01
1.679810899079644537e-01
2.564646947699746882e-01
2.124797136160406497e-01
2.115982949458710682e-01
2.226231380824465200e-01
2.386429541756806549e-01
2.334731252674610014e-01
1.571307936376171721e-01
2.397474979863074562e-01
1.945775874441263154e-01
1.968990461654100688e-01
2.148324941226844864e-01
1.951908879293713928e-01
1.792516962323551510e-01
8.923519788240596995e-02
1.705578964650428520e-01
2.017615596426862168e-01
1.575753161766829391e-01
1.285845642848404136e-01
1.465719108549542460e-01
1.165349415594664484e-01
1.388783910726501536e-01
1.350902378358597722e-01
1.077196138809173864e-01
1.208658523543054419e-01
9.252445820746661720e-02
9.883683749560735754e-02
8.416871800513192614e-02
9.851389969612762976e-02
7.802753530748815503e-02
7.765984479490450898e-02
4.322425338776759995e-02
9.633295193183263883e-02
3.601147408940535283e-02
6.010385933059661512e-02
6.031819070333118565e-02
5.247145648981876853e-02
1.798233006173419191e-02
9.848566004484407554e-02
2.403252242231132541e-03
-7.354037570453234030e-03
5.051528240641030287e-02
-1.404098620423279570e-02
-2.557848264116682757e-02
2.014610936063333801e-02
-1.053226182672338529e-02
-2.668228073142941623e-02
-3.933326534522831736e-02
-4.433416798194089736e-03
-4.386007900780697355e-05
-8.959705199012696353e-02
-1.385459790279980341e-02
1.164269632481481492e-02
-5.683111949918871753e-02
2.651690753032925896e-02
-1.796263639637949577e-02
-3.254130686687789487e-02
2.707056302523537517e-02
-4.310988616202791890e-02
-3.293308642047819423e-02
-1.212709048188718997e-02
-4.855096894712006284e-02
-6.435845421324765114e-02
-2.496730669353821458e-02
-5.060025007426020155e-02
-3.861767766954322945e-02
-4.172971898996357537e-02
-3.352587441964448300e-02
-6.574111472326196748e-02
-5.781326108258934282e-02
-3.693400900856913527e-02
-7.453173031121355929e-02
-1.018575623972245714e-01
-7.115301151460126650e-02
-6.790228751988575118e-02
-7.601727989060727553e-02
-5.024557184349338207e-02
-7.086577731447360473e-02
-4.129012906674476430e-02
7.117584532251308715e-03
-8.391526580487798648e-02
-2.193493453057844891e-02
-8.094886849963689457e-02
-3.030199500689158276e-02
-5.287138951566352357e-02
-4.304063575216349191e-02
-4.826239222703256060e-02
-3.339118667148816000e-02
1.730069094534538582e-02
-4.814686569073958061e-02
-4.373545498243867902e-02
-8.215358894047369853e-03
-5.054298580014285336e-03
-5.187084414178598502e-02
-3.646518066755997933e-02
-2.767865504087066442e-02
-1.386728280058723700e-02
-4.283298248502992456e-02
-3.895470264499253932e-03
7.909433142356959989e-03
-6.078513774544581916e-02
6.662178802337284655e-03
2.361622544779865690e-02
4.400733700832171885e-02
1.841005428500799151e-02
4.760169887221395169e-03
1.784443281669757103e-02
4.148954386439282493e-02
2.786487858319180999e-02
9.302028896121389279e-03
3.905635361212980022e-02
2.272702618251252332e-02
6.938619778006288596e-02
7.454227183401017365e-02
1.363455797145500525e-02
6.941943276377440797e-02
1.101585830663507903e-01
1.171178206005895617e-01
1.407260067176737683e-01
1.379925950416624469e-01
9.930315291341171302e-02
1.252695034428106535e-01
1.186976541961896198e-01
7.409853671771390871e-02
1.274539485407150674e-01
1.217557043676794487e-01
1.455881853299518802e-01
9.466756027591433087e-02
1.071928698881476349e-01
8.642378490371468991e-02
1.052452081995000899e-01
1.528387633252303313e-01
7.898359155670439669e-02
1.310253681369749346e-01
8.461676329027698062e-02
8.580498357831609080e-02
7.010088891224497409e-02
7.816958021788275590e-02
6.535240083081499118e-02
8.317925123879973959e-02
4.280308522259353154e-02
2.636395038915799460e-02
1.031248300478856683e-01
1.150070615341169944e-01
8.943735673454986101e-02
1.376085991251296825e-01
1.555682430884344492e-01
2.130284703670002888e-01
2.964267221043520584e-01
3.437247174098012614e-01
4.193026828243040516e-01
4.898890212259258692e-01
6.549387797355292751e-01
7.370168547941450266e-01
7.989677152287136819e-01
9.017804291180101517e-01
1.059443450246291052e+00
1.121300086265058393e+00
1.243919935553148504e+00
1.230088472758820828e+00
1.301540672013298927e+00
1.352338734179878044e+00
1.402049741043674524e+00
1.319141168623039650e+00
1.271062877685155135e+00
1.255636409568691603e+00
1.118097382999537759e+00
1.022874842254787087e+00
9.399633953714605639e-01
8.483550159335375707e-01
7.269955499161359080e-01
6.570256188667100705e-01
5.062367138525325494e-01
3.805349323587173815e-01
3.453040685294144208e-01
2.888366914731750335e-01
2.102155941709589193e-01
1.253384282318419918e-01
1.752796490260419282e-01
8.326100023387679461e-02
6.536922306547543471e-02
9.478890083902601071e-02
6.441631323978486146e-02
3.898748451552558336e-02
-6.348287678833573755e-03
5.388364799632544555e-02
-2.733932747683948117e-02
2.536177698396688968e-02
-1.422627554809421935e-02
4.336221256047460837e-02
5.700982503474855828e-02
4.024109823154903287e-03
4.148942959095074795e-02
-8.008929761711067186e-04
3.215345437669252238e-02
2.953346901404836633e-02
8.074358043321794298e-02
1.067691881144035293e-01
1.203620101902000694e-01
8.139388039263814600e-02
7.817981225990644489e-02
1.230051952138936922e-01
1.257367100837325780e-01
1.339633191715155769e-01
1.213402794585713429e-01
9.361202433619267294e-02
1.670763281380525100e-01
1.227094070677122728e-01
1.617218656103484586e-01
1.706502565460220611e-01
1.859915096721028727e-01
2.055197411681782271e-01
2.512497931318036226e-01
1.565589604870885609e-01
1.799446913492599165e-01
1.907982739597914035e-01
2.324776752031913474e-01
2.182396124826201378e-01
1.815789436656420341e-01
2.040931191489215313e-01
2.417002620641231780e-01
1.901773593874722390e-01
2.468883742924146973e-01
2.119123538816567176e-01
1.892980797340077237e-01
2.484800115162364431e-01
2.374589805750014215e-01
2.168990413331865486e-01
2.364182928242108406e-01
3.129091250830888793e-01
2.777617399822211453e-01
1.778992142651449615e-01
1.949757210019953391e-01
1.266817390896331219e-01
2.455621146106854169e-01
2.079062106027588508e-01
2.041449177479697230e-01
2.604111530961649157e-01
1.809345196719404358e-01
1.778091976344968461e-01
1.579438536854285424e-01
1.928582337226787957e-01
1.515635827667975999e-01
1.246484751867301261e-01
1.530419306697803905e-01
1.580817302997174212e-01
1.301323892981437191e-01
1.591454941972300086e-01
1.230832928853792946e-01
8.814242805297906047e-02
8.026914288916786600e-02
1.229225901372671265e-01
6.741125114012845587e-02
8.740618106399607179e-02
1.007511866362465619e-01
6.729694879783441885e-02
8.263721741328201864e-02
3.732151139677648832e-02
9.642351928663089877e-02
6.294006122103257272e-02
4.174072149290160294e-02
3.834533550034246313e-02
2.390855824525318224e-02
1.562972585023774535e-02
3.566211428186238236e-02
8.689508999041799242e-03
6.721734815076683967e-02
-3.502501992073218939e-02
2.531889118974370995e-03
-1.208635111821457914e-02
1.520027213167573707e-02
3.290176528891672336e-02
1.834618077131433198e-02
4.514255911496881102e-02
-4.761991226792362808e-02
1.988036277687881687e-03
-1.336630497516667210e-02
4.217440409123564271e-03
1.690051265540277320e-02
2.166096958656961446e-02
-4.764439989375123669e-02
-1.081953848143582010e-02
-4.718202398069246128e-02
-6.244629988719925529e-02
5.437553161493764026e-03
3.918572515082010405e-03
-7.626248290301902710e-03
2.219419109416936181e-02
2.732546985376235055e-02
-8.867763213224136992e-03
-4.187399190517193670e-02
3.611975856642384020e-02
-5.733583413032078413e-02
-3.452234323650655440e-02
-3.862332928006506627e-02
8.336311764207474106e-04
1.242939520873600698e-02
-2.144129935792281338e-02
-3.955431357454319147e-02
-3.894879268355967011e-02
-4.730915309649634526e-02
-1.950892330971276678e-02
-2.497518142106175745e-02
-1.139038578573821348e-02
-2.384056571730246848e-02
1.759527723413666783e-02
-4.196583437268328748e-02
5.003463904873077170e-03
-4.083339600352522969e-02
1.568925380429217475e-02
-2.088658350800305652e-03
-4.734410850625372230e-02
-1.510320272248653374e-02
2.253806089883138991e-02
5.342986844622525655e-02
4.234327699679954482e-02
2.722809182039034534e-02
3.436589733496233506e-02
5.328836090380528745e-02
2.957443284018971066e-02
-1.875266551374113466e-03
-4.723864929426519615e-03
2.491691472848862193e-02
6.371760283702566918e-02
8.185165171283606544e-02
9.233435736257368520e-02
9.810895681844623850e-02
7.214938216955668615e-02
7.304166153883451251e-02
8.741914948340621938e-02
3.227416335799264402e-02
1.020538739927976252e-01
1.245224456824337855e-01
1.547985013533084986e-01
9.688121261791600436e-02
1.151857471025167223e-01
9.020231694080925455e-02
1.276159620737357947e-01
1.899872864647470239e-01
1.370874664462166659e-01
1.037420512464529709e-01
1.793018730167216523e-01
1.222337668099657271e-01
1.699923173133801035e-01
1.654987757777003354e-01
1.408074370856222113e-01
1.421013665920431712e-01
1.238020405413855218e-01
1.626909264713547187e-01
1.215229391175574325e-01
1.347593369976479716e-01
1.012201847715420711e-01
1.513226511535067098e-01
1.570659213506073182e-01
1.075491284550286197e-01
1.264293594512848617e-01
1.534075497297622548e-01
1.209615772447109466e-01
1.237709376555940072e-01
7.638712913586692688e-02
7.713407620016614341e-02
1.029354228055815584e-01
1.000443294238961556e-01
1.269377968804992485e-01
1.873313474054745797e-01
1.904611187851599496e-01
2.020840520621527414e-01
3.033344051960837895e-01
2.804553362288420559e-01
3.932411519829092095e-01
4.609934395732290247e-01
5.435067613435835554e-01
6.592856361997070369e-01
7.439759517744108930e-01
8.619784840334802078e-01
9.440799069017229428e-01
1.094025159109960121e+00
1.150712668627064339e+00
1.317577122872930273e+00
1.339982848385493641e+00
1.356804472279904639e+00
1.401387646543015508e+00
1.419724869478045770e+00
1.406158540452570493e+00
1.350680606131214212e+00
1.276148820370885284e+00
1.206054666794875940e+00
1.063023574141376271e+00
1.017700396627815085e+00
8.698740406474466669e-01
7.576525238607095813e-01
6.538075390835764722e-01
5.542392397522583058e-01
5.166044550356871934e-01
3.400522614840747471e-01
2.717907273625583264e-01
2.423020369277207875e-01
1.798129063192980270e-01
1.991418036709750317e-01
1.194137454630162104e-01
1.096772786609330752e-01
9.049201834334785755e-02
1.259419813904857355e-01
7.171274836633508010e-02
9.177308230253980459e-02
1.847370074989477390e-02
6.780135415534703502e-02
8.280940075448946225e-02
5.104243945735689736e-02
7.010370062422628668e-02
1.093273686459484001e-01
6.350854691198928870e-02
1.000015804134918029e-01
1.131440283214174142e-01
1.309361901429265951e-01
1.322492525545598263e-01
1.111473736516820632e-01
1.156730401132197994e-01
1.375560232736463551e-01
1.400577097986640540e-01
1.191543424953977609e-01
1.815409901884022514e-01
2.087597326336094183e-01
2.008511610185627350e-01
1.649427370344028199e-01
1.460487143371948515e-01
2.115530385149804182e-01
2.250209271257461452e-01
1.896158902225734411e-01
2.312176638633249015e-01
2.679051392912326635e-01
2.275583341345706334e-01
2.107348381993019992e-01
2.428812824877674970e-01
2.385447599520294226e-01
2.734400196201461908e-01
2.288866622639060266e-01
2.503008459406312336e-01
2.943249369308544305e-01
2.879111749979751389e-01
2.623438417203536877e-01
2.956739457560364492e-01
2.370113759738565751e-01
3.110296324696714687e-01
2.616590459297478688e-01
1.859883987488236134e-01
2.969036869444885984e-01
2.956567401092778935e-01
2.930465136661118963e-01
2.702300933525678683e-01
2.524308350258455680e-01
2.128911935404213251e-01
3.357546841266003668e-01
2.532728717548088926e-01
2.494578517948275731e-01
2.828170497354870472e-01
2.267920377553269140e-01
3.018132165543530032e-01
2.883446930479481862e-01
2.807099653835081199e-01
2.030675238502108459e-01
1.852245164468440120e-01
1.769572967246358097e-01
2.467177077941672958e-01
1.669327332187571233e-01
2.347210334322850644e-01
2.192655710126641955e-01
1.743259977574861397e-01
1.833953270663207236e-01
1.828494715849106056e-01
1.567767614106814478e-01
2.148313515390037620e-01
1.466483825447769673e-01
1.120777856337050044e-01
1.750056571189791133e-01
1.042264378975908123e-01
1.444924568374705287e-01
4.642537758976006401e-02
1.185501155566796444e-01
1.058945060583306036e-01
6.992701282013324970e-02
1.283170359386149595e-01
1.086749416992987965e-01
8.035013147942338119e-02
6.810838625949335035e-02
8.245618437748081231e-02
3.659196386176158389e-02
2.643476492280088380e-02
6.526398628841678651e-02
4.682013608397030124e-02
2.495404001393098162e-02
9.010067412131780862e-02
-1.246579420091102619e-02
1.129994162392820717e-01
5.781871068443715511e-02
8.369706892571493473e-02
3.906989676732745831e-02
1.644276854977776842e-02
6.318548937572757151e-02
4.731814415219259135e-02
6.258612790787526636e-02
4.344507055816594632e-02
-1.410652537571861070e-02
8.361451291756874515e-02
4.782704873151200076e-02
3.992764920582765609e-02
3.866036380183665577e-02
2.783847701508870842e-03
4.533371423973314718e-02
-1.603973964781352235e-02
2.568258006999608878e-02
4.597789845673245362e-02
2.052731252237362247e-02
2.455946026291946568e-02
3.560620481025254802e-03
2.778510289953519535e-02
2.566444929840320383e-02
6.939018094971874384e-02
1.450295158488074110e-03
1.826979199201416576e-02
-1.088390198562112776e-02
-3.556426835606911474e-02
8.374732863524805837e-02
5.523998172968964948e-02
3.651987944990331414e-03
3.178262725945946165e-02
6.790050436310529625e-02
5.129759075833526666e-02
3.032371291868166813e-02
7.474701113263364227e-02
6.470113706015645505e-02
9.178787226081678435e-03
3.978069338325373322e-02
7.379451863697220060e-02
4.010441528373193815e-02
-1.095008664701060952e-02
5.406597022363467120e-02
1.029793597623645807e-01
1.368837613371230721e-01
1.380408559718653005e-01
1.011292151833072528e-01
1.236786957481745830e-01
7.698774654554615959e-02
8.471693499441018682e-02
7.649923600678519564e-02
9.138679889361173148e-02
2.720524787508168951e-02
1.634941077471604998e-01
1.299204115741465215e-01
1.708392824262167931e-01
1.494102443173079831e-01
8.366097696416693874e-02
1.607407923582555576e-01
1.793620929574220035e-01
1.133147603440475548e-01
1.472322590815477450e-01
1.833615590706133558e-01
1.973808821648097289e-01
1.694606314770464306e-01
1.839901526672889365e-01
2.013600048273109233e-01
1.640142408344788805e-01
1.771328897158601923e-01
1.953802016823054932e-01
1.965351057810394708e-01
2.262586337820437221e-01
1.926438146831253584e-01
1.714936968529368055e-01
1.884945342094918042e-01
1.958696283134119809e-01
1.842397494936914848e-01
2.050444835503527075e-01
2.504910834857412838e-01
1.869526742658223495e-01
1.286178690019835202e-01
1.471719653722943222e-01
1.187167278971444639e-01
1.658896602568325773e-01
1.333621581764709574e-01
1.404279305341445405e-01
1.487522265263861720e-01
8.324433434322550673e-02
1.721208394507381112e-01
1.629713270540137926e-01
2.117043760634400307e-01
2.607744765563629885e-01
2.079880887142106227e-01
3.656702252549223209e-01
3.439188097768771657e-01
4.669445851762380473e-01
4.844958115248454433e-01
5.280048411177525880e-01
6.894322753449624308e-01
8.019649548309089049e-01
8.918380191088006725e-01
1.030348273570848239e+00
1.140230661819734426e+00
1.221089232538163483e+00
1.365301112679134121e+00
1.391436956838605354e+00
1.387149957793624599e+00
1.386589964923052642e+00
1.429381562730990929e+00
1.394046126314557821e+00
1.367300007792221939e+00
1.343230828070297367e+00
1.195097606320286054e+00
1.153144400509870549e+00
9.956065223829373423e-01
9.113891221098420203e-01
7.941941723004616316e-01
7.106944617852988255e-01
5.620376130298654349e-01
4.814629586682996343e-01
4.298360530758009723e-01
3.698403991624486520e-01
2.749707886873490326e-01
2.875408426749377355e-01
1.224367947001362283e-01
1.448338332204573142e-01
1.969289764324308467e-01
1.229478341423498322e-01
1.160940546647249022e-01
1.179331952028978836e-01
1.479084825722463137e-01
1.486276071518094488e-01
1.350316505250234167e-01
1.331255199657042088e-01
1.332809717092880430e-01
1.272672139151808102e-01
1.651058908345554577e-01
1.627040884063543635e-01
1.139768996460775591e-01
1.199227585261241624e-01
1.549556570697996905e-01
1.744781593257250796e-01
1.694810133287987242e-01
1.767850687375750462e-01
1.741787179495769000e-01
2.216968434827889800e-01
1.921956168190986913e-01
2.264322306517695671e-01
2.478663437873893927e-01
2.193134738121624294e-01
2.802552494806778149e-01
2.553113076219253319e-01
2.467957317882102652e-01
2.405047588345282372e-01
2.622658449940656888e-01
2.478972614805366737e-01
2.670743973697363716e-01
2.466492698621098323e-01
2.812906834375093479e-01
2.593224532093076351e-01
3.380530282011509069e-01
3.022282240698631051e-01
2.599730076770784826e-01
2.760858411287406833e-01
2.854204711981458975e-01
3.044311267221485040e-01
2.671926219014945092e-01
3.111339285446550473e-01
3.236380122672337101e-01
3.728379117111028651e-01
3.210294472362856810e-01
3.339432027223101507e-01
2.996961012361886723e-01
3.224364458444208825e-01
2.820484777397148646e-01
2.650772349843465436e-01
3.302509160537379085e-01
2.760534313407473350e-01
2.449187347356658329e-01
2.619472570042659654e-01
2.497193008780734524e-01
2.799607904684061621e-01
3.034375671110581263e-01
2.722877501966192715e-01
1.838958124785765036e-01
3.060428115267395666e-01
2.690771290026022777e-01
1.642932301995603250e-01
2.494737472542663537e-01
2.217801779730113609e-01
1.744489499675523358e-01
2.154748911296432423e-01
2.424818367647572637e-01
1.728222755003505917e-01
1.284381412890718555e-01
1.836884419346906661e-01
1.821780112329265677e-01
2.107075846560765575e-01
1.614095842635885070e-01
2.109882932016267920e-01
1.778149275284409692e-01
1.981445436476633737e-01
1.265651000494382727e-01
1.407282870651710982e-01
1.427863755293020120e-01
1.157099638936127939e-01
1.017458866640539167e-01
1.310338895293725048e-01
1.080918275492821629e-01
1.520550236930873211e-01
1.046460678447653503e-01
1.313997421508267538e-01
5.673392235077940465e-02
1.004718843966003750e-01
1.049173357856720279e-01
5.910303723430736234e-02
7.475773397805747511e-02
4.184064548486161883e-02
4.154637880330769306e-02
8.334714168033749426e-02
3.453946572652023816e-02
1.063594514345373859e-01
7.624389060603886659e-02
9.380636051446336610e-02
7.689629495238768653e-02
6.891967065549092775e-02
5.861969836159354463e-02
1.270873803917714484e-01
6.969012296980554855e-02
3.919644266395950344e-02
4.400004119091759786e-02
3.390554745157917799e-02
7.383659666212978590e-02
3.634311556532630882e-02
4.496934589038736191e-02
3.191470643594349760e-02
3.620296062407542259e-02
-3.129036311625064265e-02
3.239239188289130128e-02
4.162761456939072235e-02
8.848039437332727575e-02
3.834438859578237491e-03
1.342333333351201918e-02
1.323852717975226162e-02
3.614738809578682543e-02
8.243212019479286001e-02
3.331913519530069201e-02
5.655981640394678461e-02
8.524974213088792885e-02
2.001330126021991576e-02
2.091315178225375271e-02
3.260254751364448367e-02
-3.716689386350072871e-02
3.185539354867325534e-02
6.021625541339741677e-02
1.006278051927097239e-01
4.479060796489368890e-02
7.061509543803520805e-02
9.529834250899560377e-02
5.410657634250627679e-02
9.472168199631511576e-02
7.861565096118940110e-03
6.433590172164875554e-02
9.972244901509560999e-02
9.137838267508484325e-02
8.263185082400853476e-02
1.658663357478846190e-01
8.642431475713370503e-02
1.306916958933729278e-01
8.465517619860218890e-02
1.207072865473079043e-01
1.294302577271034815e-01
1.377693959583629613e-01
8.550024483839716027e-02
1.215572489224959057e-01
1.070598420195276596e-01
1.661497147966243537e-01
1.281527001119372455e-01
1.553806450499155556e-01
1.549418183840204355e-01
1.956736880377067667e-01
1.816274725870293538e-01
2.090604670321096203e-01
2.079122693821782164e-01
1.747908930487664381e-01
1.632090962862473293e-01
2.820207241824729261e-01
2.364400400597137797e-01
1.451260642807254420e-01
2.197727287136552465e-01
1.731386007717082842e-01
1.730345785321579510e-01
1.647457611428357060e-01
2.084423024277539116e-01
1.381807094584334428e-01
1.283662790925427788e-01
1.560723271106899124e-01
1.999930142629828267e-01
1.552278382864159256e-01
1.793752491901177415e-01
1.721120130882234089e-01
1.520086083708175884e-01
1.723421694157424300e-01
2.043477872292373265e-01
1.210441072594241885e-01
1.539813936623877222e-01
1.306793251621524155e-01
1.329996130021264267e-01
1.744026631046336762e-01
1.670055422146694557e-01
1.694918616993258131e-01
2.255579672452221462e-01
2.532159036410946418e-01
3.654799858882757935e-01
3.279471684764829753e-01
3.795924939548094290e-01
4.756891857664540813e-01
6.285234229059090127e-01
6.245538804439004776e-01
7.077245553554925017e-01
8.868360438238142018e-01
9.748584135707971665e-01
1.090347610310131055e+00
1.158679856514559514e+00
1.314682202799926314e+00
1.342399442689000688e+00
1.448976262728936426e+00
1.447416398624975287e+00
1.418431435619320835e+00
1.426801764995211386e+00
1.312474313216352551e+00
1.294689621795525492e+00
1.164382784089185163e+00
1.175013772481445118e+00
1.077685001220606731e+00
8.976836673643132647e-01
8.173033411260607339e-01
6.504147706785017302e-01
6.192260002780527461e-01
4.554978546481452395e-01
4.019803381415948396e-01
3.416895981775197044e-01
3.046722614092851056e-01
2.244759384973099292e-01
2.183011089873785060e-01
1.779991114023016796e-01
8.247881167380119449e-02
1.689872194535572969e-01
1.522001254620498623e-01
1.488928198237485234e-01
1.093677389329866662e-01
8.347312804008083509e-02
1.117474738958897096e-01
7.814024467790703365e-02
1.418398881523349475e-01
9.017967597486761799e-02
1.295588624612258599e-01
1.377488397839548018e-01
8.034093820460649904e-02
1.371335151213182724e-01
1.276877718427803510e-01
1.543664691146466317e-01
1.912815342680998232e-01
1.371821773543873413e-01
2.227729396623074065e-01
1.534799228221595535e-01
1.424559562765877474e-01
1.425581236982062239e-01
2.154249330342268842e-01
1.946186879276221859e-01
1.853709189636439381e-01
1.318015183052889394e-01
1.929034242511614705e-01
1.637827522189056473e-01
2.056145149624546142e-01
2.637923300916700797e-01
2.233437911855327973e-01
3.030243888442891165e-01
1.904722655891012417e-01
2.177928745051644910e-01
2.183333883970701161e-01
2.163083821459260703e-01
2.607458736992161463e-01
2.997299554411349543e-01
2.739107026055488392e-01
2.525863918802510044e-01
2.921327473656226137e-01
2.945143638480779424e-01
2.374918802124325601e-01
2.821156337662834024e-01
2.368129095245716242e-01
3.048941862397841485e-01
3.063640940569958282e-01
3.436614342214955320e-01
2.917695076053109515e-01
3.095217561968554021e-01
2.925695125975407151e-01
2.710654743362825858e-01
2.953609446299861885e-01
2.023935863085731535e-01
3.342996491941414017e-01
2.246357585822045533e-01
2.771677797570628043e-01
2.599611499979687101e-01
1.991306969076462874e-01
2.194073611075880725e-01
2.497964842349576775e-01
