1.470341316873651216e+00
1.476893079034996337e+00
1.392519614391454663e+00
1.337456531794827486e+00
1.248986226890150153e+00
1.196899553946507710e+00
1.104081408585245949e+00
9.910223223779439650e-01
8.512585455450073502e-01
7.468825026905253628e-01
6.917122054809011766e-01
5.077516990023809296e-01
4.533336460821195124e-01
3.909155288986118637e-01
2.725045430977173777e-01
2.406427205021990090e-01
1.807219066621400527e-01
8.989128221485005732e-02
9.798248578215969229e-02
1.437881005950921165e-01
8.891236959337583956e-02
1.338571828291387211e-01
6.370757786530169275e-02
6.800692801478330773e-02
1.083812598121159237e-01
6.782636505201632138e-02
8.685428789159262142e-02
8.982923334271711302e-02
1.037597325791400349e-01
9.630623083533601525e-02
4.945402766125608224e-02
1.349851880046498143e-01
8.595388102852055678e-02
1.283055141475144267e-01
1.286878115516518206e-01
1.435790497171898772e-01
1.467792157819645948e-01
2.341339031907310186e-01
8.998827519378781170e-02
1.471078955215813222e-01
1.553319137388354254e-01
2.227604323360388439e-01
1.422232346667816061e-01
1.916491663804145151e-01
1.959360448512073027e-01
1.736415680447011833e-01
1.890613067128434355e-01
1.864818641379230313e-01
1.793035351139524169e-01
2.197560106051907880e-01
1.673451595757704802e-01
2.346363448281790220e-01
2.603346923036592431e-01
3.006557714527104963e-01
2.171283955887421957e-01
2.461140337304291992e-01
2.966437158157324561e-01
2.698909286067777136e-01
2.674450766888052944e-01
2.205569140375624182e-01
3.394661410248339672e-01
2.571156939817196285e-01
2.954636625018521312e-01
3.096692359199148536e-01
2.608029232963943178e-01
2.923211692189182642e-01
2.637021274419361627e-01
2.627774653536929517e-01
2.926896222292611482e-01
1.788595301949397476e-01
2.462162447214714112e-01
2.564259228452402950e-01
2.010270413671036427e-01
2.383018231980594259e-01
2.113388450299052423e-01
2.710137892032091211e-01
2.092807335672351721e-01
2.009885610457508576e-01
2.212565716957224371e-01
1.721028388855363744e-01
1.840662655793752489e-01
1.921755462410060511e-01
1.339882228055810087e-01
1.914575745658162464e-01
2.235823452821619761e-01
1.739770898722979298e-01
1.461051350484932621e-01
1.405662859264415754e-01
1.414491590992681125e-01
1.732768003278422897e-01
1.548422474976463015e-01
1.304091160174010167e-01
1.057675582668168163e-01
1.273127590073070137e-01
8.514799738532145834e-02
5.601592702548452429e-02
7.085703338229247528e-02
7.394778495279934194e-02
9.918529191579657234e-02
5.351700890401311916e-02
8.759015166318888379e-02
3.638013684679752835e-02
3.943455862599083012e-02
6.879451686190686532e-02
4.443458544213384209e-02
-1.420048343587736010e-02
6.155828027905048405e-02
5.718933493335615070e-02
1.921350338368264452e-02
6.117775184877020239e-02
4.161242716797590793e-03
1.219418130012120058e-02
2.494140347517883466e-02
6.011217240085853231e-02
1.670223945249440026e-02
-1.710195591977738475e-02
3.993963816066850581e-02
-2.655587027253895893e-02
1.270669986444859095e-02
1.497886983060001988e-02
-6.899750430988191296e-02
-3.406174754910139268e-02
-1.176603462703377026e-02
-2.798630633605759740e-02
4.713396929035202840e-03
-1.071290249710983578e-02
-4.985072666321858914e-02
-3.420314790497780422e-02
-5.309477297143223168e-04
2.336910804475873099e-02
-7.440500848191316727e-03
5.500587607111426247e-02
-7.279082820632576736e-03
3.044539960135504014e-02
-1.241154648330032584e-02
1.629227778967743887e-02
2.328542675843162102e-02
-2.146990539144102983e-02
5.712405091371624069e-03
2.716780335235486482e-02
2.647723814481554167e-02
-4.417894631723555399e-02
-6.613576511086254051e-02
5.509253185862896668e-03
-8.111644404354372354e-03
-1.572669190867140993e-02
3.470133585139759808e-03
2.368424013130521893e-02
5.085000615162747761e-02
2.756198253014419813e-03
4.605583909695909473e-02
-3.102446324400020064e-02
4.275421585083655218e-02
6.099614491982374709e-02
4.094078252940613893e-03
1.850024225025624983e-02
5.823801742648208879e-02
4.653245796825555836e-02
2.918089930653268785e-02
4.578576488676067147e-02
3.742711394763355293e-02
7.706365747449712977e-02
2.401397101278233623e-02
5.521185621382684872e-02
7.450720819981049292e-03
3.608698369555601859e-02
1.464284949887010093e-02
1.030359511147662249e-01
8.374846682216095795e-02
1.022763615522908481e-01
7.125766722716053714e-02
1.285481786317264064e-01
9.339407337741453818e-02
4.195017543648263403e-02
1.025643561193038816e-01
1.406098928171092000e-01
1.355799663604474459e-01
1.319595222248656774e-01
1.355735918595915579e-01
1.624792329547109504e-01
1.382948289196115066e-01
1.167751953865763942e-01
9.264498398376883048e-02
9.545660990201082496e-02
1.036117794342187731e-01
1.533854680386755875e-01
1.709975329137933819e-01
1.692904954997960787e-01
1.108364559563440876e-01
1.199637388038090891e-01
5.650141825237232907e-02
8.136890488411709088e-02
7.562278414611982302e-02
1.791742112883460900e-02
6.831012714363290939e-02
1.126870483055089772e-01
1.363568355990460446e-01
1.495502514645815906e-01
7.321022357431974936e-02
1.409073918215766608e-01
1.021612425997871776e-01
9.479012391681088112e-02
1.905342189174341061e-01
2.279532502311344966e-01
2.786600076945406346e-01
3.495938807332362175e-01
5.080452885439907806e-01
5.144216349437110702e-01
6.146045477103454502e-01
7.129122085801606890e-01
8.804872921741899727e-01
8.904283658342017072e-01
1.036437266442986171e+00
1.195436128668295073e+00
1.238586842126750298e+00
1.299408603759563352e+00
1.344479754122761106e+00
1.383675138453573927e+00
1.366156143077539964e+00
1.371277197951987104e+00
1.396236069121216561e+00
1.315561665380470480e+00
1.246664203501167023e+00
1.056225617169265663e+00
9.130414867674343515e-01
8.690129957159413721e-01
7.662694316057628852e-01
6.341928176173677878e-01
4.874419562670082029e-01
4.340408946675066715e-01
3.886550548904837421e-01
2.760065355308572999e-01
2.245736125912605186e-01
2.130142058271775607e-01
1.382332738471499789e-01
1.454774163084340266e-01
1.099126081441884062e-01
1.007803228399730966e-01
4.947257108621084393e-02
8.640067558673462933e-02
-8.194146764666246363e-03
5.890353073493267977e-03
8.491740441790288085e-02
-3.180467105075090312e-02
1.166600187320945003e-01
4.034799853015284821e-02
4.734587040029632904e-02
4.708315868236550433e-02
7.140813947671653672e-02
5.673669859993304976e-03
2.787963499088476349e-02
7.327507326548871047e-02
1.359989649912284049e-02
6.741465969383338142e-02
4.537844640775740013e-02
5.649387256801218643e-02
1.076565591367627250e-01
9.544197005627469421e-02
1.450545629020280614e-01
1.313272081208433639e-01
1.496598883207721775e-01
1.542480982035442094e-01
1.579611568205541161e-01
1.019698818939439589e-01
1.212054793581536921e-01
2.063783737399317586e-01
1.878033875519260487e-01
1.844878714755186500e-01
2.041518032202788158e-01
2.008780368293930918e-01
2.137832885269362881e-01
1.620000385863156755e-01
2.003861271027991275e-01
1.445180128212368020e-01
2.383250210713865891e-01
2.145741146432833257e-01
2.402992281121341667e-01
2.305720216989654847e-01
2.263670072458742188e-01
1.745243266952379302e-01
2.101007903457196846e-01
1.884194878425626829e-01
2.511780192194621453e-01
2.364796776904505848e-01
2.365817735383747289e-01
2.337657056639323716e-01
1.939569190180394087e-01
2.035604264036483535e-01
2.074325325104139361e-01
1.824396428872168685e-01
1.652901557679330724e-01
1.938317083384846484e-01
1.703552423420445494e-01
1.685372524764671975e-01
1.667849521423047654e-01
1.438280315667946341e-01
1.496064910325869968e-01
1.580574371853224469e-01
1.858475665838634772e-01
1.503895668619760762e-01
1.395555938514165817e-01
1.971464486193374999e-01
1.189921251927745227e-01
1.342349533239377279e-01
7.318499005628734122e-02
1.403606590612934135e-01
6.355296964259349313e-02
9.135893171610200147e-02
6.435549311716995402e-02
3.280369803876598267e-02
5.213570501008641528e-02
4.624681750140694630e-02
5.705315782085931126e-02
6.932873560651361955e-02
3.188456619326307528e-02
4.172221106326952367e-02
5.208273940270081309e-02
-6.868650168414029700e-03
-2.496933132987921855e-02
3.405135422041965371e-02
-1.020084564281154710e-02
-4.812420775062895006e-02
3.564511982538800389e-02
1.804034959108691272e-03
1.280692014739513718e-02
-5.153428161071491043e-02
-2.331923533519832462e-02
7.186886144961851519e-03
-7.565748967436100592e-02
-5.396706749335213049e-02
-7.430928259709257411e-03
9.709301551140830933e-03
3.769717232407196472e-03
-6.312215663999123927e-02
-5.103589242105903423e-02
-5.682659677109794250e-02
-9.879347717123471151e-02
2.990374816560059656e-03
-5.534671502838189178e-02
1.628702483338375501e-02
-2.567093487114448236e-02
-1.483852113374543175e-02
-6.587286812593778906e-02
-6.978476927709889588e-02
-9.389870660687357762e-02
-6.329187739277554459e-02
-2.099790185249408858e-02
-4.411124033988410298e-02
-8.821093748056030304e-02
-3.673725172862031541e-02
-4.658370862066327917e-02
-6.759825854791376432e-02
-7.838168505789808171e-02
-5.426355429810967440e-02
-3.501433963260737470e-02
-7.730594978355771751e-03
-3.469569503587949938e-02
-2.601406037714747155e-02
-3.009364887137714120e-02
-6.361002273140355101e-03
-5.170677651919635548e-02
-4.331433377576264510e-02
-2.344315488786642698e-02
1.851461035485373052e-02
-5.222334242132765925e-02
-3.176630394818837078e-02
-7.816388404800611589e-02
-1.958691798261333328e-02
1.794987281286836850e-02
-8.942729374462263237e-02
-9.424874715763309485e-03
3.819252808905289343e-02
-2.813422327740333628e-02
-2.291956658726054114e-02
-3.685243632941233305e-02
4.935565294021407312e-03
1.778800117093153055e-02
-1.085451418419589031e-02
1.811052387061922592e-02
4.622499074592803514e-02
-2.418886608941668570e-02
4.401150518894517139e-02
-3.208081209922893778e-02
4.460771230724505654e-02
2.010453668389115128e-02
1.598056653734721000e-02
1.049634896558979957e-01
7.255099894291232310e-03
4.010660764605630813e-02
8.854004768788970026e-02
6.897259535104843797e-02
4.292808585283559158e-02
5.174110146152324091e-02
9.091716943607831836e-02
7.057109533265076839e-02
1.084393811671721247e-01
9.357444791759769731e-02
9.864154826437718238e-02
1.041312265427315198e-01
1.020015973611704263e-01
1.476440257056681749e-01
9.426060174409905956e-02
4.957031332652767075e-02
8.052096004704727139e-02
3.650385163835027924e-02
2.834614103949129049e-02
5.665663039155382358e-02
8.918599433590515546e-02
4.697637878348902285e-02
2.778800370201900405e-02
1.024113682126934488e-01
5.942709964342209050e-02
5.376411723187675407e-02
4.786462436269995485e-02
7.316376321582611364e-02
6.755747218203556059e-02
6.762257284685249670e-02
1.056976525860935101e-01
1.053515176078581028e-01
1.064415339446715819e-01
1.789265495292056696e-01
2.589509388985438143e-01
2.573531838595536914e-01
2.958226735181177514e-01
3.965547880971044270e-01
5.168650459386608942e-01
6.223186306658645695e-01
7.295974430037128755e-01
8.012208788799648485e-01
9.084629968078173912e-01
1.074589222170504010e+00
1.107963608498114372e+00
1.209663697395216175e+00
1.291333901942166573e+00
1.384551071112847254e+00
1.377845704775389146e+00
1.351449579520960231e+00
1.359225157676639428e+00
1.304712528544188732e+00
1.176203934033298593e+00
1.173111906163897711e+00
1.012606691718456409e+00
9.444700143222628519e-01
7.912712915808263192e-01
7.057497214190383561e-01
6.018889241685559943e-01
4.887142825740298790e-01
3.800684275742829410e-01
2.861821324996789428e-01
2.637146049214097454e-01
2.632732709938314097e-01
1.196798791862525024e-01
5.491263106997065074e-02
8.308282899767488461e-02
3.362270955568701092e-02
3.601762980296054073e-02
7.887382934032009796e-02
2.425092592086446064e-02
3.917421706786972102e-02
1.057793913106137157e-02
-4.103967696715546398e-03
5.671330080438859861e-02
-4.439071016629526911e-03
2.974906153767297584e-02
4.398797730110589471e-02
7.982862321381047066e-03
7.350064534081422740e-02
6.944074352999943245e-02
4.065195721402586893e-02
5.080207788362738064e-02
5.608973299997889461e-02
1.002603134455468670e-01
1.300439753234260143e-03
8.392745561045675262e-02
1.131266123114816891e-01
1.182699730443651231e-01
1.162436977147108808e-01
1.141394727634359174e-01
1.695188234615488676e-01
7.674809549557404242e-02
1.740603896335190248e-01
1.954507571404915378e-01
1.439703019460900346e-01
1.977681880219555877e-01
1.545844960344698316e-01
1.672267062502606760e-01
1.895551818001354194e-01
2.326817689184714211e-01
1.834350824910683242e-01
1.777502569621943473e-01
2.138017689661546594e-01
2.032662778383262092e-01
2.336840142598264058e-01
1.697598868595496802e-01
1.597858128606766959e-01
2.495967094512547835e-01
1.470520887549796041e-01
1.828461389427538109e-01
1.612514765802040562e-01
2.086272959201920518e-01
1.965049579397765145e-01
1.604762122618825226e-01
1.688894248288012045e-01
2.217341645140009643e-01
2.290168967620997975e-01
2.164726073569502862e-01
1.291289837831151588e-01
1.631101165773556350e-01
1.795245983945037149e-01
1.824504052362349305e-01
1.604442800830095939e-01
1.694390870738706201e-01
1.507497831578487046e-01
1.188877880144192378e-01
1.638434266767219982e-01
1.432057619815824412e-01
1.798802863124044360e-01
1.133590840007517586e-01
1.218554861790655114e-01
1.018834872127863111e-01
6.512391095502048644e-02
1.811109488914006693e-01
1.422243372684063312e-01
6.638854439514345340e-02
1.135111804224864240e-01
8.194741600897123557e-02
5.348819420432340821e-02
3.872785449077854186e-02
7.456686502103751502e-02
6.212739539831650670e-02
3.789833300467839589e-02
9.103442429898619959e-02
3.128345089773811039e-02
4.489641731285705373e-02
6.176501198556144656e-03
5.104988539969648742e-02
1.052569893164780751e-02
4.889218749760686905e-02
-2.265973759409214972e-02
3.929382193842357457e-02
-3.927249133495148287e-02
8.681868997550280798e-03
-3.361278423262378107e-02
2.281469694088665567e-02
1.461711022213329353e-02
7.583306350092043624e-03
2.004189933441996585e-02
2.859006117867501223e-02
-4.963251620246643403e-02
-5.142818135823667980e-02
-1.103601077128840008e-02
-1.376579667953070629e-02
-4.429254131071952427e-03
-1.854601717275849992e-02
-2.293942864892947742e-02
-4.391367390269809712e-03
-1.352465959906034437e-02
-2.247974285435722086e-02
-7.550231538953744437e-02
-2.486951397581801948e-02
-7.928172576759415224e-02
3.596892859699483969e-02
-4.987209033632564181e-02
-2.370930752990317927e-02
-1.875909974690991022e-02
-4.537200475087699997e-02
-1.432027358587760826e-02
-4.561920078394211819e-02
-6.289261453336045249e-02
-1.312753428366329744e-02
-1.437854977256623062e-02
-1.224061502471451152e-02
-1.551957848989094987e-02
-4.259192675277786305e-02
-4.358429741885894160e-02
-9.541501673241395420e-02
-7.508424719240988643e-02
3.938964988959894886e-02
-8.174648270022347868e-03
2.861102379224173681e-03
-2.895131574205644931e-02
-3.856526588552106755e-02
-4.719072037264941677e-02
-4.699844493751622471e-02
1.140002726132339356e-03
-9.854602818103765788e-03
-8.312647456915147476e-03
-1.319579248855909381e-02
-6.442218541481241345e-03
3.726971226996253495e-02
4.056066855707002317e-02
-2.842722474439093525e-02
1.542174617198727171e-02
-6.033365448530950831e-03
-4.613793973645696767e-03
-3.145446368743157195e-03
1.069655240304477964e-02
9.215258632827856566e-03
4.251491240577080777e-02
6.480674916383039053e-02
5.022602196105905442e-02
8.117408779053231216e-03
2.821187797333283426e-02
1.208387092973760291e-01
1.171625407117443951e-01
9.781655165007792363e-02
5.179224083798768252e-02
4.061361681554824521e-02
7.543766826870669517e-02
1.355925388521646291e-01
1.166305860322715132e-01
8.400318900838905922e-02
1.176196209122919861e-01
1.160856008264425226e-01
6.271988289125909888e-02
1.290133838935795252e-01
1.135292995840956470e-01
1.627377545656605584e-01
1.313173895579245742e-01
1.326331734502444182e-01
1.182707487389509649e-01
1.369869288948133701e-01
1.005745626584587799e-01
1.310443840065187715e-01
1.024891805977272419e-01
7.829594433020375943e-02
1.159936533861433416e-01
9.950189829547728682e-02
7.631555202744340349e-02
1.090482718031766940e-01
1.270341294659132203e-01
1.088267660774475259e-01
9.338200611616277735e-02
7.506223709722589787e-02
7.810763688616217948e-02
1.376913248634408227e-01
1.328752632858677396e-01
1.693052086066679229e-01
1.431200855323009058e-01
2.299027306939984139e-01
3.431823851293089311e-01
4.084199366159821931e-01
4.996259537805178841e-01
5.761630669619888234e-01
7.026483417773403684e-01
7.592303371394824030e-01
9.302705628966849716e-01
1.013266762644551511e+00
1.106177702606603530e+00
1.208601959281206284e+00
1.332998703365904092e+00
1.301866664016942732e+00
1.427017968507597212e+00
1.426890674164009054e+00
1.370554008181364525e+00
1.366906174115072758e+00
1.309160226795361925e+00
1.268278668013379962e+00
1.187605945575961108e+00
1.082579412874526525e+00
9.346029895142887733e-01
8.447269153253643692e-01
7.422970040063556763e-01
5.719987152362158156e-01
5.289760120331266080e-01
3.911212220259935313e-01
3.507182815461583614e-01
2.683325439189939154e-01
2.060542860436568591e-01
1.793923642142578878e-01
2.012818091575458435e-01
1.281715282880357965e-01
1.184846491624524933e-01
4.196559762572475011e-02
6.523200483980931552e-02
7.969552599039193830e-02
1.541006275131420571e-02
7.140316665106700988e-02
2.848166656185338250e-02
8.771769705761710278e-02
1.091503653367241894e-01
5.343977042309000502e-02
5.371678503505247088e-02
8.067403741099200831e-02
8.442027031665642889e-02
1.077131069291469984e-01
1.296010471591258206e-01
1.006855003149371014e-01
1.339608641692632274e-01
1.484847675785863907e-01
7.290869875909142261e-02
1.295620581005810790e-01
1.683557122730574840e-01
1.234935884353141056e-01
1.953691747208324836e-01
1.229766024378184247e-01
1.623029754361396959e-01
2.033496014533033580e-01
1.549014304135709064e-01
1.889397499430248706e-01
2.066928618907812876e-01
2.339120568414735923e-01
2.532131803730035546e-01
9.919508729975927419e-02
2.675789489975571311e-01
1.782097499655557471e-01
2.493073837289394579e-01
2.278584055469139724e-01
2.186533160643449325e-01
2.529538624514682810e-01
2.343841370602056662e-01
2.781418312029113604e-01
2.969295692466816794e-01
2.470529889713405924e-01
2.547170041474335900e-01
2.417142314608080045e-01
3.053652153518114365e-01
3.126403971175559793e-01
2.562096702875398813e-01
2.319587827472247843e-01
2.774614753694414904e-01
2.588431401160249945e-01
2.699998629906913972e-01
2.218017655020695089e-01
2.277696853039663516e-01
2.360751083417791107e-01
2.285719768926188500e-01
2.530789347857486105e-01
1.812780530763569153e-01
1.947109646898857738e-01
2.055724883187216578e-01
2.393193298435790928e-01
1.755922265885900557e-01
1.283962386060166216e-01
1.885541542485708044e-01
1.736602548752189668e-01
1.544890218504285095e-01
1.363240559069222868e-01
1.977688921234009300e-01
1.921166223242077586e-01
1.086634516040267950e-01
1.747075152426627587e-01
1.120882036859221498e-01
1.219595131254602172e-01
1.136122575326762446e-01
1.118545684847672694e-01
1.718130912573253566e-01
5.758706302721992853e-02
9.604321652410754973e-02
8.272264887100587438e-02
6.723267170224138389e-02
8.346542825993520653e-02
1.006568973761123864e-01
5.747793244682791736e-02
1.749495737171403303e-02
4.910637470280968669e-02
6.367083763102052152e-02
8.948206261136990025e-02
9.155785188702057764e-02
4.510680077865278359e-02
3.040146206130037859e-02
3.580136971640517779e-02
2.112962995932615717e-02
2.181720320341399427e-02
4.206107641984719453e-02
3.013648880530881563e-03
5.493290584812214605e-02
3.685901840874436508e-02
4.320842310736199010e-02
3.274414886957000698e-02
-8.500282909369639983e-03
2.440799137527929069e-02
1.283478045902816320e-02
-1.066315609291950892e-02
3.238084757806087427e-03
3.686805324399330952e-02
4.002624500533177865e-02
6.588653740362569733e-02
4.496955553812054251e-02
1.878037833832439663e-02
9.138336490498272235e-02
2.448919833597962281e-02
2.997801935474983179e-02
1.181108750093096821e-02
4.759209248153244143e-02
-3.400469300873704137e-02
-4.465483611063011948e-03
1.394347417286090005e-02
4.349326644369827174e-03
-1.091442270574224244e-02
5.194959132481597602e-02
8.232439690443557612e-03
1.037021117651488675e-02
8.118914108972828669e-02
6.437914955716932119e-02
6.024986999982380464e-02
5.066746498917334973e-02
7.771206262389238062e-02
6.422524581249249020e-02
7.864264543663443408e-02
-2.077816440183138588e-02
3.822877179092950412e-02
-1.108570427505565018e-02
4.065914699003336102e-02
1.078852916883483032e-01
4.644955052135035789e-02
8.340769781205380207e-02
9.153405237858541765e-03
8.039377991404317303e-02
7.903812818522577832e-02
5.033708903865533046e-02
6.628725858483315581e-02
8.851282468826934813e-02
1.249986386835118812e-01
6.658078578417576943e-02
7.637645078771240770e-02
1.044764660133573192e-01
1.053690652949254014e-01
9.195663461870393074e-02
1.656362840181559437e-01
9.839595678593934802e-02
1.311946987861227765e-01
1.298029567924046390e-01
1.460740951437440593e-01
1.563448535999684696e-01
1.481498708171724299e-01
1.544294098048637209e-01
1.830524138796341405e-01
1.459039116429207417e-01
1.442963431681660025e-01
1.481168104140951070e-01
1.889329063506844930e-01
1.467747014119463733e-01
1.863715952079205707e-01
1.561512084024116453e-01
1.539093584446728502e-01
1.846966334647340002e-01
1.621489926920233748e-01
2.199786026624128976e-01
1.840312117837344941e-01
1.600389041752874331e-01
1.531801900926836046e-01
1.677576659395539904e-01
1.948750515348229295e-01
1.758968538392356729e-01
1.384506252477865629e-01
1.309596894967838820e-01
1.355656411732248379e-01
1.501224585454699334e-01
1.245938503094330130e-01
1.120666582108399145e-01
1.578508411724971749e-01
1.559818153778620986e-01
2.125047955325908289e-01
2.141442160983126619e-01
2.711905571217549382e-01
2.308383176605818543e-01
3.146120595429218736e-01
3.731905141470716614e-01
4.528743973330653927e-01
5.332120378887470480e-01
6.278046030814713463e-01
8.164682385848071045e-01
8.914658942258201213e-01
9.903330085588882836e-01
1.117422149478041860e+00
1.213020516534854876e+00
1.268247926657656510e+00
1.383297753253503570e+00
1.412781277946276948e+00
1.449313693912565482e+00
1.462317463907597093e+00
1.479429739769468011e+00
1.360207996193198987e+00
1.354650920097224098e+00
1.240555918754173925e+00
1.237677488759776789e+00
1.084485785932474577e+00
9.723787488732561490e-01
8.668842037646958820e-01
7.292228538686733597e-01
5.808950527320743129e-01
5.652429813977511985e-01
4.759658265410825484e-01
3.693109706469007714e-01
2.907897320326339186e-01
3.176913404376044969e-01
1.909597844344478879e-01
1.457612153353056716e-01
1.538121800452900423e-01
1.275070405742633750e-01
1.234861433773091072e-01
1.037728359914519977e-01
8.612703642075179855e-02
1.026117164745006805e-01
1.058432343563333877e-01
1.305930986319074893e-01
1.082093483028403469e-01
1.346026923545870224e-01
1.146648490036389079e-01
8.038356115844358385e-02
1.166890987727263740e-01
1.646569073906012648e-01
1.412893341474134035e-01
1.966536898942003730e-01
1.825535726158451777e-01
1.237131227493500629e-01
1.748253308809176454e-01
2.108016445903038438e-01
2.208039962455889960e-01
2.413265523370956012e-01
1.823813291002094050e-01
2.095175302937128947e-01
2.543700066476253241e-01
2.356719066631040582e-01
1.965361243094858601e-01
2.246620413220453139e-01
2.644948424810927845e-01
2.466217059170243420e-01
2.121437856306719327e-01
2.505838445931712899e-01
2.439745195940853095e-01
2.324686740527608653e-01
2.797283492557775531e-01
2.321805287759295677e-01
3.003333772242836042e-01
2.656008585092897167e-01
2.593898266448488865e-01
2.461824196399534093e-01
2.982839356097562455e-01
2.910932743811424084e-01
2.879379768944973494e-01
3.510031673211908565e-01
2.648714158344918079e-01
2.929417488171094930e-01
2.405583955720282108e-01
2.894802588026189616e-01
2.936485805290182660e-01
3.119355793550315781e-01
3.319753927519411008e-01
3.635769061053753526e-01
2.928334272692816320e-01
2.995473077294297792e-01
2.798152314193225187e-01
3.088210473470398565e-01
2.599471435509072004e-01
2.505941933125551691e-01
2.190422992914112243e-01
2.406535285824981940e-01
2.825714391034309658e-01
2.213426692933421203e-01
2.374986046855331323e-01
1.769006033144983336e-01
2.128100183534724910e-01
2.524912430015004983e-01
2.422299603576824889e-01
2.153284011523590169e-01
1.839993371037808856e-01
1.773521897107705192e-01
1.148670332180946330e-01
1.359425342639112022e-01
1.736830848819295448e-01
1.419343567935342776e-01
1.169306508614801482e-01
9.046075263192196458e-02
1.234298352391589443e-01
9.828860059163885277e-02
1.427886403061276732e-01
1.699040452732251127e-01
1.442967700041485335e-01
1.022799436795380351e-01
1.211507487959424811e-01
5.820871551554889639e-02
6.185655756305504654e-02
1.081073937665490148e-01
9.574316010466767113e-02
9.374779994546586503e-02
1.075933405192707887e-01
1.136480547599718893e-01
7.856880211573419315e-02
7.327329450375787145e-02
1.117254538113519324e-01
7.344379292429406569e-02
1.129412332584537326e-01
4.868319383778372395e-02
4.434054050554028792e-02
6.772994803288245880e-02
1.029110455135803237e-01
9.163161930626476104e-02
1.258133317223400771e-01
4.251203926496589791e-03
7.090244331799565314e-02
3.669506751572659820e-02
8.099912351996627069e-02
7.274483003128233427e-02
5.629785917436623544e-02
-7.547603233338112672e-04
1.005903559740120023e-01
3.051440726500939671e-02
3.698071332535279171e-02
7.843295815969010543e-02
6.755243781187669772e-02
5.256394094562129304e-02
6.507828920361059810e-02
3.129576055186498312e-02
4.308345854713537676e-02
6.859298161100227387e-02
4.575207081830964806e-02
7.878204339209675389e-02
7.879927528805752424e-02
3.383811025034566544e-02
1.695676740159646201e-02
7.106870993394936997e-02
4.071080599763998026e-02
5.943235334276923687e-02
1.020091930636418814e-01
7.518978442903002934e-02
7.086835707583935551e-02
8.729063582438773006e-02
9.825717331375048713e-02
9.017775895719595813e-02
6.955016791485103822e-02
6.594095361033004699e-02
3.958599357966648830e-02
1.106839913425873151e-01
7.937750164570830935e-02
9.910531502913438873e-02
5.894933452246232941e-02
1.188125128210849729e-01
1.222185235896799671e-01
1.119049473497587405e-01
1.199847477698217507e-01
1.272103152247945901e-01
1.388106818062002368e-01
1.344986463666920651e-01
1.287541468319639004e-01
1.409461284734503383e-01
1.098458562406907923e-01
1.554257548738794403e-01
1.769944816264680254e-01
1.627955765674419242e-01
1.326170854454627179e-01
1.138071288290147809e-01
1.566504762788915317e-01
1.954478368768818308e-01
1.492639176631837539e-01
1.633703628682915132e-01
1.845233070117006102e-01
1.858722169369107502e-01
1.636644504160278957e-01
1.982047617633782011e-01
1.882361790227789489e-01
2.391160665058995882e-01
2.332907432292319894e-01
2.214586698225695094e-01
1.825709567723778626e-01
1.950742415504241600e-01
2.249289750102136110e-01
2.156487481429465725e-01
1.837555387856752154e-01
1.981817240647343881e-01
1.249296143255276687e-01
2.058242441613919449e-01
1.984479799126823985e-01
1.644546809607121685e-01
1.643993321229151039e-01
1.028851525039889275e-01
1.563742386791039385e-01
1.343764884649535918e-01
1.225409967674071510e-01
1.930322458339544245e-01
2.291675931343337691e-01
2.367174677561958984e-01
3.084055183194966410e-01
3.645487647699028888e-01
3.865166254404525659e-01
4.124213871926963870e-01
5.276765326758715569e-01
6.367263861875789299e-01
6.760527636585305089e-01
7.783190754921122112e-01
9.388536700034816329e-01
1.020213765481117196e+00
1.160308332296453138e+00
1.261422963411601650e+00
1.292836072156348548e+00
1.394475531094556242e+00
1.448908060582917434e+00
1.508149072467295015e+00
1.501175010192523862e+00
1.525924507709609523e+00
1.479692906357755522e+00
1.386386337123625134e+00
1.268129254184308330e+00
1.155141479561882401e+00
1.060313173160970956e+00
9.186641617222963685e-01
8.085857056137052412e-01
7.000656781656875438e-01
6.169693248832892607e-01
4.966523005477203601e-01
4.183232593188563886e-01
3.738214919404461711e-01
2.415516506756145987e-01
2.644232674081528067e-01
2.211705705089467289e-01
2.405840297095427349e-01
1.690177603462422740e-01
1.701080149648804274e-01
1.607004317572642560e-01
1.157329380549063369e-01
1.346499511387272419e-01
1.754397692252480101e-01
1.261992522600083599e-01
1.201848354594938634e-01
9.535033745257981419e-02
1.847247465967233049e-01
9.979684404100383488e-02
1.423380008531079377e-01
8.787698091007364876e-02
1.547565489351545032e-01
8.930954293941234523e-02
1.595957580446780155e-01
2.101137817975242683e-01
1.927999717362945675e-01
1.383405482377987328e-01
1.743676497483645227e-01
2.407547164744382462e-01
2.309197541746520199e-01
2.332281939904742307e-01
1.684581027773513207e-01
2.066290607183451922e-01
2.179094820221603446e-01
2.744915839234953747e-01
2.126146309680192192e-01
2.257212786989397091e-01
1.968132876134825460e-01
2.058581454802822230e-01
2.421096404503486621e-01
2.581760841201605206e-01
2.444667301283872107e-01
3.017613711005422417e-01
3.050537975246412348e-01
3.083265681546054071e-01
2.717170480080309813e-01
2.777131906133774031e-01
3.085645116476802841e-01
3.512790913446772190e-01
2.806109014597581441e-01
3.000893988141917212e-01
2.809283977976880231e-01
3.381142157576575991e-01
3.065572024853416844e-01
2.840814372781538255e-01
2.923981375103600899e-01
2.786158542026129226e-01
2.847054622694343284e-01
3.151058135326594289e-01
2.465670685178846244e-01
2.448976622852474250e-01
3.005054078191154998e-01
2.736070387193169084e-01
2.294334687591489952e-01
2.798439991616233358e-01
2.794438554622589166e-01
2.346124633433129270e-01
2.338042658900050808e-01
1.646179828538522349e-01
2.117957304101554528e-01
1.768481805954506270e-01
2.239260626406573973e-01
2.270995294027250144e-01
2.441555218871570565e-01
2.364349471320988383e-01
2.374034837762028782e-01
1.596829902949989111e-01
1.666722715031082047e-01
1.539024546810527916e-01
1.276061851011854875e-01
1.438183046523187347e-01
1.299798757090537271e-01
1.230374100587408037e-01
1.436562121833955263e-01
8.151693515641558752e-02
6.492637986675077466e-02
9.408585725884058282e-02
1.118995386685808224e-01
8.080700672480775615e-02
1.189257432168162598e-01
7.813071298388088448e-02
6.204096840169190386e-02
5.449508223809661212e-02
4.975483582619840556e-02
5.637073408804632590e-02
1.013196368506542183e-01
4.083768688796500512e-02
1.119294160202549682e-01
1.150531972992452356e-01
9.098920524868345239e-02
8.625191384693450813e-02
3.843097297934953971e-02
6.534824938599445576e-02
4.858324415495779425e-02
4.569084500276157645e-02
4.975469712687743962e-02
3.066227300839663439e-02
1.376330574569201853e-02
2.280453623106903221e-02
4.578104089870388416e-02
6.731757321007214578e-02
2.858995438361066135e-02
4.823622514975463293e-02
-2.089441995060481450e-02
-4.629196256416950872e-02
9.175719983143183767e-02
4.651832668556172418e-02
2.568824502995466219e-02
6.725276378251167364e-02
-3.593957500620217210e-03
4.424110865686761707e-02
4.389938548215727154e-02
3.859766303689281253e-02
5.169774334806764848e-02
3.321310114521809631e-02
7.555859893702426833e-02
9.828375825818649880e-05
5.255702229055791985e-02
4.385410654949478682e-02
1.269339600392119932e-02
5.140375730954216404e-02
5.018262633419598440e-02
7.397840186431421661e-02
6.191085197259374451e-02
-4.389558773587637353e-02
2.215317909672918223e-02
6.344960168109843590e-02
6.911871049374289366e-03
6.581209379836357176e-02
3.267763380652846661e-02
4.499683556709294791e-02
6.362884160220375063e-02
1.894971278238788762e-02
1.731627214192168682e-02
4.347828989091779422e-02
6.936329013094541529e-02
9.063356123337408532e-02
4.358835858735769786e-02
1.194988547880806162e-01
6.853941675727037719e-02
1.137930668131041240e-01
1.493126761868240893e-01
1.100836798625815099e-01
9.644331305419976547e-03
9.477841891501734284e-02
1.303708077824570211e-01
1.803972974833470411e-01
1.579863345729654589e-01
8.220926259803082448e-02
1.072447769381251470e-01
1.555093187719043257e-01
1.682836294184747450e-01
1.671127872107543155e-01
1.523211934666407474e-01
1.461741586007163085e-01
1.650731454178741564e-01
1.678553517995926281e-01
2.028361979742464849e-01
1.137259081779665032e-01
1.297723736103866266e-01
1.647188917702815392e-01
1.105923317516865345e-01
1.879964519853872529e-01
1.368396733672046506e-01
1.112952627536708677e-01
1.427426097935009519e-01
1.575054527740335497e-01
1.239875543531849394e-01
1.728024650951009433e-01
1.057473487610516710e-01
1.568323551360766011e-01
1.155050649626370718e-01
8.677675610334412148e-02
9.258412616665610828e-02
1.303272186478373063e-01
1.386656499260022768e-01
1.308922972804135443e-01
1.343217126582976484e-01
1.523743761007472219e-01
1.371423933883830215e-01
1.970642126383046477e-01
2.524276045371365296e-01
2.060356092479049828e-01
2.725358629379196485e-01
3.776829421781509599e-01
4.184803729462843735e-01
5.346672174751969653e-01
6.119430273514707697e-01
7.532566362085278966e-01
8.418761738970806929e-01
9.006296143971792567e-01
1.017417906920012882e+00
1.104677518160080973e+00
1.234232807169768575e+00
1.290649485412891151e+00
1.402990553087653414e+00
1.427445758943533205e+00
1.448852013495703028e+00
1.452895430012258959e+00
1.459922845312738859e+00
1.310146997893212095e+00
1.321150089059327293e+00
1.212286313778694113e+00
1.110379490444491690e+00
1.002465466244204517e+00
9.275679428017671313e-01
7.596911709162129656e-01
6.537562797772540346e-01
5.591566488200122587e-01
4.593702300866657762e-01
3.636913316391802153e-01
3.169379995865231892e-01
2.415028760435701249e-01
2.108058167358388413e-01
1.990119266289550048e-01
1.449936682053643566e-01
1.148794669715058892e-01
8.441116638081123946e-02
3.450995799279479165e-02
1.322187890961137313e-01
7.404790040438946619e-02
7.367968251065742935e-02
9.436332824148847831e-02
1.065535790509684055e-01
8.702390761768398486e-02
9.396309083934953343e-02
6.210116208858078996e-02
1.350203971433771855e-01
1.417399806090474390e-01
5.249718070554705573e-02
1.117641632112032907e-01
1.169705008935065238e-01
1.105284602593328697e-01
1.016054536252784107e-01
1.095341689630164039e-01
1.305176440813805849e-01
1.602497629052350991e-01
9.391560010715824247e-02
1.562218897076719792e-01
1.408620485977206682e-01
1.616300202813579501e-01
1.161814038644427421e-01
1.558664024276482096e-01
2.009037112393985691e-01
1.848214215024777674e-01
2.004477204199163476e-01
2.001997628044492883e-01
1.795623135600718512e-01
1.260633711631395371e-01
1.753423964088362541e-01
2.913440310879791828e-01
2.458973440667766297e-01
2.092738076449531248e-01
2.210667526056926679e-01
2.495828040073286014e-01
2.623690775530385100e-01
2.198791194101924196e-01
2.259734041371458668e-01
2.880129291697816618e-01
2.784631238139179676e-01
2.764249016165647443e-01
2.696212064087737947e-01
2.493399710856195883e-01
2.371659389636847359e-01
2.281151666203026507e-01
2.338096474149511661e-01
1.913724471530404980e-01
1.922243430825505972e-01
2.562652195747813222e-01
2.905847428021235412e-01
2.713810876486769663e-01
2.704110028409513200e-01
1.919153006008308127e-01
2.195669864855650522e-01
1.506552506902222033e-01
1.909023199466342302e-01
1.713036938354406125e-01
2.042167817076508129e-01
1.459277502910143187e-01
1.538688233981013731e-01
1.768400251756536978e-01
1.650368480422202133e-01
1.209845791262981890e-01
1.256113796877916799e-01
1.279693062718912089e-01
1.300803313013831619e-01
1.061413575633994577e-01
1.016513018612584807e-01
1.172322235680691022e-01
1.367570558982134366e-01
8.652586330087377875e-02
7.201516362673292260e-02
1.422757168590984833e-01
4.094255356785121702e-02
1.848103430084346507e-02
8.227937415920528325e-03
2.349322184936782076e-02
6.561933342351469745e-02
7.183092142495610399e-02
4.205412644241255521e-02
1.877861214460322531e-03
4.767934175056387502e-03
1.760284195123441864e-02
9.232416307680503531e-02
-1.442788763111071959e-02
-4.897681711689860773e-03
6.931145554486303761e-03
2.224198734146694278e-02
1.160083330349325620e-02
-4.019509748040010766e-02
-2.798433127399330145e-02
-3.910101327968529966e-02
-8.306387653447971225e-03
-1.500727331369760414e-02
-1.283264405051486728e-02
-2.723874165706634265e-02
-4.398052419507952893e-02
-2.349308211539831437e-02
3.627628736092536332e-02
-2.146215904374972755e-02
-1.269215079642827503e-02
-1.670459478492088840e-02
-4.183950728017162696e-02
-3.967607093151281905e-02
-4.662084839953568177e-02
2.024881318127871518e-02
-2.974954716576239111e-02
-8.296371838222019179e-02
-1.455434723992225267e-02
-2.391957957756877390e-02
-1.193891615003169968e-02
-4.785865256220918351e-02
3.012543769433762703e-03
-1.900430819081244671e-02
-5.761188328421082416e-03
7.854804341469504014e-02
-5.890249711569019858e-02
2.219229213760225833e-02
1.664318493309459648e-02
-4.504658878383829140e-02
-1.659934316174294100e-02
-9.631000402838515995e-02
4.332409634711589796e-02
2.550448921747644829e-02
-4.190340783757353499e-02
-3.238746414785205474e-02
1.536190483794260681e-02
-3.215442798065655527e-02
-4.468715366889847163e-02
1.309160725566260730e-02
7.927514751863356385e-03
1.877801751706156125e-02
1.240437836703294633e-02
-6.400952002253899875e-03
2.815226059032936018e-02
-3.699348804156997461e-02
-2.367601735392818596e-02
1.991430732063562137e-02
3.966626059927565173e-02
7.831444173813652265e-02
4.280695054364513918e-02
3.880197617084978762e-02
9.995363951210339826e-02
7.918100686923376652e-02
9.169167130575622826e-02
1.074158892179105096e-01
4.681056319484599298e-02
1.034308596014145154e-01
7.288319004514384747e-02
5.773982577018500068e-02
9.460339329552944210e-02
7.272370583964274382e-02
1.489792559302748620e-01
1.230626991115670310e-01
8.645623424277273927e-02
9.588471219298744241e-02
1.225584278612951716e-01
1.120180853685632388e-01
9.267058347184775613e-02
8.091517255632973971e-02
1.513498065406719273e-01
1.794374875461675622e-01
8.984625819634567412e-02
3.548805901974470128e-02
1.833397792861039821e-01
1.261058449553846827e-01
6.119560084864433813e-02
1.308616742044602377e-01
9.309200297058978224e-02
1.006043054402512571e-01
4.453239123142967854e-02
1.031825154487584773e-01
1.035307051241810827e-01
1.244223574688459177e-03
1.025546814741584711e-01
1.024547860380418673e-01
1.060641413167939806e-02
1.184721828342151506e-01
1.514451025005628115e-01
1.431667719693186513e-01
1.395261025034503499e-01
2.950628696754053482e-01
3.319997205028265008e-01
4.115638943653869286e-01
4.864270280450648243e-01
5.458278663127771324e-01
5.908654467878584615e-01
7.887153363899892522e-01
8.792760625647437767e-01
9.778688576023748524e-01
1.031127201577934027e+00
1.249391136584335538e+00
1.328578284660577147e+00
1.355466813533456660e+00
1.391756490678130787e+00
1.367867307113241671e+00
1.346269338524048731e+00
1.370829519538701247e+00
1.273839658204255043e+00
1.176487575331683244e+00
1.135972873925867210e+00
1.020418006793800458e+00
9.177574295560887441e-01
7.751505591176528487e-01
7.180436085725071527e-01
5.701589862839925305e-01
4.729100271164300429e-01
4.375721870265677493e-01
3.130842441815986366e-01
2.183773069836781877e-01
1.518475826457205413e-01
1.161802651907267725e-01
6.246387313966701715e-02
8.283743620202314861e-02
1.188901886646749617e-02
2.587900750279838180e-02
6.578935195852800288e-02
2.778908135087036768e-02
1.497507900357485794e-02
3.376631804178691770e-02
-1.730522752798100555e-02
3.808748702831996763e-02
2.481727096957175860e-02
4.826287647699328831e-02
6.341634724483610763e-02
4.648635568491266135e-03
-5.202092159867242882e-03
3.889684922011556883e-02
1.030425820585076369e-01
1.041587848800040184e-01
9.457305164042212331e-02
5.789484869299657555e-02
7.812685691889113826e-02
1.038532604929909703e-01
8.218487568804350163e-02
1.187151475754056329e-01
1.521870341084367584e-01
1.242026983665495132e-01
1.346927861124882497e-01
8.608601264129815689e-02
9.192881202289709952e-02
9.961939292609345298e-02
1.307986522775908822e-01
1.546451713105692627e-01
1.423945277269182963e-01
1.305597158139151781e-01
1.722914501972409862e-01
1.269716246356507594e-01
2.062767849585867563e-01
2.148554690533152900e-01
1.357635512477328721e-01
1.506362050451772461e-01
1.721961683946748867e-01
1.668613749434638138e-01
2.238329832740348913e-01
1.855098120114038185e-01
1.566140419089637748e-01
2.293264071632090950e-01
1.891445016396182122e-01
2.052624272828370011e-01
2.262673969033942023e-01
1.899010809004685052e-01
1.886951482669073921e-01
2.016027033773885591e-01
1.791685973579997260e-01
1.186306128576002372e-01
1.626701543105632530e-01
2.185083412363182931e-01
1.920755725037079087e-01
1.762261529717012443e-01
1.717955046784238049e-01
1.432477999790983392e-01
1.633290732223960373e-01
1.309345550645295564e-01
1.266648105904870369e-01
1.234600811481385840e-01
1.132935269584287308e-01
1.413744016757972899e-01
8.216401780519227982e-02
1.405256553745439230e-01
1.214589991961943505e-01
1.116107959797227600e-01
1.610849229931069215e-01
1.290896782847664875e-02
6.157863378074994454e-03
5.121891797969993498e-02
8.739917806251626398e-02
4.956959987440213294e-02
4.656906143181942237e-02
5.412513247193826565e-02
2.573403474980265337e-02
4.411160958986470870e-03
-2.083690526477941646e-02
2.309173608819072715e-02
1.708362349556823839e-02
-8.444509830602603406e-03
3.135690793919343466e-02
4.204418707801180211e-02
2.874200389476216921e-02
-8.953665517175281308e-03
-3.563540456194973227e-02
-4.282304106839725233e-03
7.455066717511900365e-03
-5.214021243250804155e-02
-3.081419297051668157e-02
-3.823490824468143978e-02
-4.398619091726610475e-02
-6.682813143592244987e-03
-7.894276836507410633e-03
-1.307914393577482015e-02
-3.518060250417884283e-02
-2.746835191818753838e-02
-2.438000619953854808e-03
-3.006819702261857158e-02
-2.827637306541287698e-02
-1.447065464346834751e-02
2.624148400260301051e-02
-1.153792934882490878e-02
-4.075352618636742669e-02
-3.853716167325898362e-02
-3.615927294020530869e-02
1.040397889707166817e-02
-2.950588259872293645e-02
-8.024050273056962390e-02
-8.563406560517433652e-03
-1.218188367049164583e-01
-5.896464513489270420e-02
-6.438908541183981094e-02
-8.488448178848601033e-02
-5.453111060638107105e-02
-5.270970710601497605e-02
-7.457243038856072037e-02
-5.009505863390521091e-02
-2.941085332885918363e-02
5.866465577392808439e-03
-2.689771395452876523e-02
-5.886318790372881138e-02
-1.224661426776407630e-01
-5.710734840948542002e-02
-3.397713695390420369e-02
-5.213512312564075324e-03
-5.197771789484843113e-02
-6.369607221309232792e-02
-3.431364050181921060e-02
-3.802492283268555512e-02
-7.834958738157087044e-03
-2.325310262483541723e-02
-5.914759981979302722e-02
-6.140612651892785046e-02
-3.558223974083239011e-02
4.027171769833264720e-02
4.355280669309195135e-02
-3.534043502079400878e-02
1.698969572607404027e-02
9.154556847161418598e-03
3.766594156877135779e-02
-1.410540549628414020e-04
3.967736925098676315e-02
2.787362458815353244e-02
5.887744833759583907e-02
4.619388274126593613e-02
4.572816108662998424e-02
3.820222282439440786e-02
5.187990124725910812e-02
2.576574295264562331e-02
4.943643340889895821e-02
1.024118166345158731e-01
1.294338437477339787e-01
7.398577860213534363e-02
1.226614314660345734e-01
9.266553962297503777e-02
8.769418685249175116e-02
1.037389397813197056e-01
1.259160340005017475e-01
6.831223388530741070e-02
1.070717073536330416e-01
1.548991278198671440e-01
1.132353165890775254e-01
9.045138830351004411e-02
8.485670968875697051e-02
1.568780654052739088e-01
5.911812745155901189e-02
8.523624815747529726e-02
6.011478699057373754e-02
8.377108745844812077e-02
7.464597162405839370e-02
1.092293471580000619e-01
8.395303446635790645e-02
9.507807966606993122e-02
5.891972678308325662e-02
-4.671943475460786643e-03
5.495855426041380831e-02
1.101808060689974805e-01
4.890946070939160978e-02
6.957427862887627379e-02
8.549621957151505580e-02
1.463182389286930007e-01
2.250878477365617081e-01
2.469600421850960126e-01
2.853423244198234343e-01
3.561723302999075247e-01
4.270552039687334767e-01
4.585749571333895269e-01
5.726757195691436486e-01
7.217441414817802325e-01
8.292735336933910739e-01
9.267076482989092812e-01
1.067539273560450308e+00
1.127337303912856470e+00
1.203321049573242707e+00
1.349336611603293434e+00
1.351287820698224174e+00
1.406339010045708715e+00
1.339921801821670533e+00
1.381068550880725221e+00
1.330485619257255392e+00
1.259664760786030957e+00
1.206766367573931964e+00
1.056604409978857850e+00
9.698404996875574779e-01
8.516237689189762872e-01
7.976029924451559783e-01
6.331475779509541102e-01
5.076202393373950850e-01
4.554141479839869389e-01
3.647859169052421469e-01
3.155468025450019476e-01
2.242266943067648954e-01
2.235342452653233114e-01
1.071088278072246380e-01
1.613250078808745047e-02
7.483817065943737523e-02
4.920696042400715675e-02
1.541241471072585939e-02
2.491278220000723437e-02
4.603023091290134317e-02
4.206855529802835947e-04
2.435637241887401994e-02
6.686209288229801040e-02
-2.511314868480763601e-02
1.421075430771343018e-04
9.655223167264373463e-03
3.769641515310419300e-02
4.908274184627145487e-02
6.090452457135167585e-02
6.597617302084091140e-02
5.054645448092001669e-02
3.922422494932493314e-02
8.739150329647005222e-02
2.352460868275065009e-02
8.468185559112786920e-02
8.810084242454933878e-02
1.266145077806722363e-01
6.694625327167536000e-02
1.738492822026994900e-01
1.177253342483520759e-01
1.483296386556088586e-01
1.023935440855869017e-01
1.067806767767066622e-01
1.582926914881611635e-01
1.084425612109309323e-01
1.403052148328683968e-01
1.907027035652142932e-01
1.808983275691693204e-01
1.501478024995070992e-01
1.898104892302275859e-01
2.191899497896773186e-01
1.942664620835194145e-01
1.812468055921972188e-01
2.063948226343198800e-01
2.076207623038257011e-01
2.447769405203105708e-01
2.274763844688549863e-01
2.300383967028195586e-01
2.154963630653982665e-01
2.159242644957629909e-01
2.337871837679345588e-01
1.751586653475429856e-01
2.122955052504610640e-01
2.619983927625343934e-01
1.678754213805943307e-01
2.201272097296652908e-01
2.093714368784002355e-01
1.996483979540232268e-01
1.887424994957943025e-01
1.601454115818837787e-01
1.812459499921286465e-01
1.982080575021596958e-01
2.113716194206734234e-01
2.140973920616067172e-01
1.768195865203291139e-01
1.595458061844647890e-01
1.365634872088601903e-01
1.245038029102956689e-01
1.855956184682495125e-01
1.759987729149450064e-01
1.104290536178761384e-01
1.488624175414940409e-01
1.036597795890487061e-01
1.507612213283076597e-01
1.024648825588325984e-01
9.022570613418687269e-02
8.923582917998300335e-02
6.215501927144539973e-02
9.245091605136124269e-02
5.822100615374254523e-02
1.260637024597339173e-01
7.894776103629430608e-02
4.709126233924723626e-02
1.110398702078351507e-01
6.326794793209147838e-02
2.183365718065354011e-02
-1.510068437583313161e-02
4.175278078940961035e-02
2.862145411751269852e-02
5.520298936937010487e-03
4.722264400971550036e-02
3.770122549200092404e-02
2.160005302294472004e-02
-1.310424235912277524e-02
3.602074376343161743e-02
1.669441347603749237e-02
6.101060553030226985e-02
-4.175402167124415281e-02
6.283513039468148487e-04
1.778586617112639864e-02
3.257242984850675094e-02
-8.939518305392194636e-03
-1.704800846753410856e-02
-1.202264677675503844e-02
2.899202843402833712e-03
5.496390640799590777e-03
-1.395871318130940258e-02
2.368698834054246138e-02
6.505966546811636775e-02
-6.052392154801113089e-02
-1.689490521730265676e-02
1.791142455256627616e-02
-3.238831366792562644e-02
1.272098392233071348e-02
-2.183458296895722517e-02
-5.402128188284080479e-02
-1.547197537794459815e-02
-1.687653581958603946e-02
-1.714111890908607411e-02
-5.116415220289977084e-02
7.567533323147263707e-03
-5.426802213016881926e-02
7.399277480283055625e-03
-3.886677835835836148e-02
-2.938553326771236457e-02
-2.784660380156633169e-02
-1.315612139341230946e-02
-2.555660540727866525e-02
-3.638207151008246432e-02
-2.532705342478355770e-02
-5.551702084037109242e-03
1.480187687117603956e-02
-1.504828386286956483e-02
-1.288758164946065751e-02
-1.878567656141709452e-02
-1.536200315535237761e-02
-1.631391074533593624e-02
-1.645513135238460545e-02
-1.993293589516540593e-02
-1.600905352062401490e-03
-7.943713820719646573e-03
4.227110582618713586e-02
1.296411660746669275e-02
-1.515558460195007458e-02
8.520995926310315216e-02
6.339835594788859052e-02
4.691539949462817521e-02
5.971566956230943413e-02
3.056125509237415591e-02
7.456360904852372962e-02
2.182880940233944411e-02
8.854202976050845608e-02
7.659781614472553624e-02
8.765961694287062456e-02
6.532172289285367861e-02
8.693225685150864079e-02
9.217275119501842917e-02
7.687499138167026846e-02
9.108881913370553418e-02
1.107641567476529421e-01
1.309442381290831237e-01
1.026014518027626998e-01
1.608140475675475800e-01
1.138263254317186113e-01
1.438501485857322792e-01
1.113551094351829113e-01
1.199116259855822209e-01
1.101051109228071284e-01
1.152066374194832543e-01
1.906257872549642629e-01
1.463784192999860734e-01
1.421098565758908694e-01
1.133392924674864882e-01
1.673297032159320741e-01
1.461525021104942701e-01
1.270245636803382094e-01
1.616639182637724936e-01
9.898492579608841879e-02
1.065791050330562179e-01
1.733527441556164395e-01
9.506496589431093214e-02
1.265451466045032780e-01
1.381306686829155694e-01
1.257645754978404251e-01
7.905333543438090860e-02
1.035621786860905641e-01
1.142595069210437242e-01
1.735336486596560091e-01
1.840356532232718112e-01
2.153225253525607730e-01
2.097664996289212158e-01
2.973308712886416627e-01
3.435602072724702194e-01
4.361003295658771317e-01
5.532621506045954929e-01
6.287024135360558263e-01
7.988123405686267109e-01
8.530830719054594002e-01
1.010591521184212249e+00
1.129325310262133453e+00
1.201427215901755829e+00
1.279788086930858437e+00
1.346291653943881395e+00
1.363541740148468184e+00
1.493567265853356529e+00
1.446698512657417446e+00
1.385812976497826643e+00
1.343202020773059280e+00
1.276471235861510234e+00
1.149403688801842183e+00
1.104092537012246966e+00
1.040529716127622128e+00
9.058857939099427270e-01
7.945549551638206864e-01
6.813226493563563357e-01
5.192680412050624250e-01
4.825741105399184439e-01
3.834509384711242141e-01
3.104460133390176124e-01
2.475866230732033380e-01
2.004482860258158528e-01
1.646429169610652277e-01
1.009871743070031858e-01
7.873193013604420920e-02
4.056761070711348977e-02
1.029949071991765747e-01
7.780157305466794959e-02
5.004209349005507568e-02
1.941230641806968721e-02
4.051481948654609561e-02
6.624390155186320184e-02
6.025380881542571204e-02
1.227771683252810997e-01
7.285443330194618650e-02
1.159549247596668997e-01
1.144340279820892925e-01
8.843930289189053107e-02
1.490391615321437213e-01
9.033261940978568050e-02
1.236200888076830762e-01
1.782641450016073659e-01
1.355800740691210371e-01
1.249256423441480468e-01
1.319503844376414547e-01
1.603748289704629293e-01
1.247532095951398440e-01
1.661303533795007725e-01
1.935377552201550388e-01
2.069770286407096871e-01
2.495372925992926372e-01
1.979079311903315930e-01
1.761545666574133306e-01
1.940696426988530177e-01
2.429652345377950884e-01
2.368094100705121219e-01
2.278851417124986289e-01
2.484689160891999926e-01
2.213987878317196789e-01
2.562936125067483695e-01
2.107394223965209368e-01
2.744297521027233566e-01
2.316137952444515535e-01
2.303880446867994092e-01
2.866721410698424011e-01
2.346362960203632886e-01
2.525552573899607633e-01
2.902220359129704108e-01
2.676012396349194411e-01
2.843616259141241720e-01
2.462811496084689744e-01
2.139050586176711177e-01
2.587737762996941138e-01
2.280468969361985621e-01
2.852327293221552651e-01
2.586436694214995780e-01
2.615866912619863593e-01
2.327164429424503911e-01
2.324914734943115124e-01
2.374762746195981100e-01
2.044800006142725168e-01
2.550137138728444386e-01
1.973107670472505903e-01
2.355502303253969865e-01
2.326723678628697112e-01
1.414637648331649455e-01
1.785723772333350223e-01
1.533046719992717521e-01
1.944442737585716785e-01
1.621796625796939340e-01
1.549260117880867649e-01
8.934707580891848577e-02
1.862482475792166525e-01
1.490510866707059900e-01
1.175891977022876234e-01
1.694432306502338670e-01
1.174906840503684297e-01
1.141473972582458807e-01
1.415333099408807027e-01
1.310418784153047911e-01
1.370179404305695015e-01
1.123238615784178801e-01
1.077352985466774604e-01
1.035867603009584248e-01
1.121539644623650578e-01
9.307327266662018816e-02
1.076293937854705118e-01
8.603980661219509662e-02
2.315114141928719185e-02
1.027441815464214953e-01
8.235596905734740569e-02
1.037016887310664714e-01
7.495165576889070702e-02
9.102879516263426285e-02
3.934942835250766768e-02
-2.685003369979684085e-03
8.142097533698673673e-02
3.772556849317624389e-02
-2.611957878899361096e-03
2.424273169486412111e-03
2.761498302974982680e-02
4.370137883284978819e-02
-3.423653446143565260e-03
8.730110532935007883e-02
6.419772819920660512e-02
3.170821926720004957e-02
6.618893209631294960e-02
-8.891358017626773552e-03
4.669800785075851890e-02
3.461489850944093893e-02
6.669475637225935616e-02
1.299107449775710466e-03
2.459936007707958297e-02
6.045366096343140344e-02
1.121182100804375692e-02
2.839746302042567977e-02
3.496689843931154867e-02
8.026516643008731189e-02
-1.384072462198301934e-02
8.004361499736784014e-02
6.558679991292645783e-02
2.025446498087201189e-02
1.368797482269016805e-02
-2.570808351184147855e-02
9.162583685708702852e-02
4.278373640842503267e-02
3.073606809704458598e-02
6.329925927062535207e-02
4.256779635267056439e-02
-9.050477547511773246e-04
1.741443549588807607e-02
1.683585067062201221e-02
9.310796224420715694e-02
4.736613246077725492e-02
8.320460279671930415e-02
4.748420298102577070e-03
9.982979414827154729e-02
8.853566113864197451e-02
5.942930209052024737e-02
5.901491392205973630e-02
5.033593290901203221e-02
8.257723720047704941e-02
1.038567736559231625e-01
1.413095533235002588e-01
7.177873606165202647e-02
7.207613375345051088e-02
8.131261825799115939e-02
1.496226821365114201e-01
8.557433845338917322e-02
9.960362187992062577e-02
5.821930064541942784e-02
1.397269684649394272e-01
1.193633497260713494e-01
1.432050169335687406e-01
1.559003687004983096e-01
1.581357401011091734e-01
1.662589059718671547e-01
2.126582464103191905e-01
1.449072222180246838e-01
1.505567403658160663e-01
1.521779124019464469e-01
2.121026048402749331e-01
1.824918551155616520e-01
1.267569523703777901e-01
2.041215535724083263e-01
1.853303191694291585e-01
1.381088321670879693e-01
1.802804134072744924e-01
1.599335017147986149e-01
1.969890907289008342e-01
1.618317951517583009e-01
2.227254461666680896e-01
2.253628271639062652e-01
1.548114825868995292e-01
1.961127788009817963e-01
1.620641330789187873e-01
1.972512525404838402e-01
1.190964119683164818e-01
1.363747629158209296e-01
1.460346349341184458e-01
2.154011904054970172e-01
1.433771572072179978e-01
1.440249438484619837e-01
1.593846983105017545e-01
1.773985924723680829e-01
2.143765681846226401e-01
1.939604163754670707e-01
2.317825351402210132e-01
2.983797594514406848e-01
3.282077843310595155e-01
3.665403165162339771e-01
4.343120744241933950e-01
5.363110676288133094e-01
6.860336241719131589e-01
7.794988250342472780e-01
8.411853451110432589e-01
8.963463946647274305e-01
1.058242901269692116e+00
1.148092053365597387e+00
1.306305620685068059e+00
1.363951602523812090e+00
1.399953065166437804e+00
1.521812013923492302e+00
1.441635931395628401e+00
1.477910680857230208e+00
1.403849406617226014e+00
1.340776053691435488e+00
1.299775796419071927e+00
1.266641006466707742e+00
1.133763200914244651e+00
1.042190041453912919e+00
8.775025908434543886e-01
8.033899022423797165e-01
6.975378105196383682e-01
5.944533612586286875e-01
5.276600451736742636e-01
4.176325197952719392e-01
3.308747236975601025e-01
2.635361495576183932e-01
2.368730118699130804e-01
2.155740198955253817e-01
1.539542173171555284e-01
1.379001299799949287e-01
1.479589026390654150e-01
1.305456866629944035e-01
1.248181661194673470e-01
1.168662294994380207e-01
1.276141315263639997e-01
1.155195354235299121e-01
1.513968218834613189e-01
1.075492518735849667e-01
1.090906702483183388e-01
1.055116631606856648e-01
1.355796812130022344e-01
1.329595722441778149e-01
1.102397678442205986e-01
1.413072943097994916e-01
1.385909733549522960e-01
1.409422179652641827e-01
1.571862594116200385e-01
1.910871605186453825e-01
1.180538858523172974e-01
2.263249006532764840e-01
1.649524568863393048e-01
1.702973228489041424e-01
1.844116292377019073e-01
1.963324104604243781e-01
2.295965442315030802e-01
2.159282788047125201e-01
2.428704915360016814e-01
1.927609304795420142e-01
2.584007556533227667e-01
2.569662766276236132e-01
2.648885199550734537e-01
2.382909654395393706e-01
2.703201612972366830e-01
2.509045735056704696e-01
2.406203932362281916e-01
2.625956752677752748e-01
2.675873342386906328e-01
2.955694891229824761e-01
2.264732527152157615e-01
2.611440081432586657e-01
2.767562762833544743e-01
3.445710270483652304e-01
3.349663573536194594e-01
3.223381458300592639e-01
2.778095765290939934e-01
3.149555972902718937e-01
2.984824088814445053e-01
2.896183843242056133e-01
3.578379814877569176e-01
3.037419108128670553e-01
2.470430973877462688e-01
3.099729908489211039e-01
2.716150429305442815e-01
3.173252010047814542e-01
2.562866578207687596e-01
2.339460016099946249e-01
3.122120508145671547e-01
2.066405954118882560e-01
2.598859040960623812e-01
2.235189077819547399e-01
2.467509174920207160e-01
2.001126079965714344e-01
1.785022294127675546e-01
1.987430306208344821e-01
1.919904064709826441e-01
2.119026934173836307e-01
2.650738269574922090e-01
1.854996224407761962e-01
1.787988637630192612e-01
1.394473194331892485e-01
1.275768306682937281e-01
1.238821792242013192e-01
1.509611288206077484e-01
1.529641348346439944e-01
1.344893751146174765e-01
1.158215921617366112e-01
1.215976605404149591e-01
1.501102096495016136e-01
5.896119658318994816e-02
1.387524430086578275e-01
1.191198077801724903e-01
1.308217612815299746e-01
1.009120310704410273e-01
1.569400414325619053e-01
9.384670554921176189e-02
1.048188311410233886e-01
1.527676973862754917e-01
4.435320189656305478e-02
9.410225060272656150e-02
7.237955924360886528e-02
4.594948418134450069e-02
8.926064769882632866e-02
4.924781573347403879e-02
5.854998820360445000e-02
8.870137497435712226e-02
9.403605298869599505e-02
4.835978128172357948e-02
7.750570148964375239e-02
5.221358407393855705e-02
7.692796598282464204e-02
7.270067557544594716e-02
5.919014175933844796e-02
2.494492407184274382e-02
6.247052851467669449e-02
1.135022611121490888e-01
1.014289150138990014e-01
-3.768854577690555763e-02
3.479498455897774012e-02
1.028002940107938107e-02
-1.178419080410655212e-02
5.737598801839873669e-02
5.615781325116081524e-02
3.596531727083424057e-02
7.300384939584672606e-02
1.499601184262278064e-02
2.506803272233303764e-02
2.667026114180467283e-02
3.816614137399493983e-02
2.857045418160332820e-02
3.016743448644949172e-02
4.690625130815862659e-02
5.623207270006414654e-02
5.000861250451670015e-02
4.803903500995476000e-02
5.503850735529842997e-02
5.091286588136550301e-02
8.244160112827356168e-02
4.722138765610667255e-02
8.438994389794371442e-02
4.928899972454372364e-02
7.831355285735061567e-02
6.939219529841259004e-02
1.290340242827708039e-01
7.451379822787831952e-02
8.461866240472200318e-02
1.265444430646123775e-01
1.004121742456700328e-01
8.067833532675701413e-02
1.336195807769644528e-01
1.017521390856337138e-01
5.547483769474040316e-02
1.402599200810429048e-01
9.308058229265067651e-02
1.682413348826998500e-01
1.159943722063824234e-01
1.356184457513372188e-01
1.826682006830471494e-01
8.691128910473945590e-02
1.572409060763523825e-01
1.962917650757318166e-01
2.237199411578630615e-01
1.252789739716961281e-01
1.745195548189122370e-01
1.448869129594497485e-01
1.822180113677334401e-01
2.103776833252763434e-01
1.487057166219389603e-01
1.665044524599996745e-01
1.791476272243120171e-01
2.099935930497812964e-01
1.668116860998022644e-01
1.726276852526790750e-01
1.791171952027835745e-01
2.016113576875872837e-01
1.347506180614208571e-01
1.818926863677324535e-01
1.599106094913616549e-01
1.947357774806064146e-01
1.591844684180128422e-01
1.915510676422135239e-01
1.449088633494609313e-01
1.214555107292351055e-01
2.035620713615766408e-01
2.175350801627533581e-01
1.786208986254005926e-01
1.950286703838538527e-01
1.186472717636588292e-01
1.757545804039711279e-01
1.546089257176359311e-01
2.037812708823187602e-01
1.644152029314630559e-01
2.429151873467084166e-01
2.682275112286252594e-01
2.749560757101037201e-01
3.490603161790711839e-01
3.891565725916392715e-01
4.508527126398236273e-01
5.892885453914634697e-01
6.915786141882288574e-01
7.950497499598778717e-01
8.736889716367235437e-01
1.010755605179155747e+00
1.086228812005492372e+00
1.207361973361124496e+00
1.321265120713908559e+00
1.360849487494630639e+00
1.486425381433394088e+00
1.442848453648536644e+00
1.489215767987511763e+00
1.417043270208347305e+00
1.406442403400437247e+00
1.365006896925593960e+00
1.246359820405606778e+00
1.196884606559817765e+00
1.122155429525318882e+00
9.498347298253605464e-01
8.091567336690709267e-01
7.530733571408553262e-01
6.625455252033320974e-01
5.517163102960516152e-01
4.600825325450766390e-01
3.318507293308656791e-01
2.994097525765466727e-01
2.507046040062734793e-01
1.320338072147960173e-01
1.807797867824262605e-01
1.982169141062771200e-01
9.888471998206468938e-02
7.046113803297102129e-02
1.018234373925060166e-01
7.877290410051587810e-02
1.398994945718736171e-01
8.823278034510934065e-02
1.028223562291349924e-01
1.393313321083155809e-01
1.093726380501106321e-01
1.177091305175735902e-01
1.143259675907311035e-01
1.081473955601824216e-01
8.451840637335461537e-02
1.270718973419119879e-01
1.469164604579885347e-01
1.530402101738803367e-01
1.579365379377799250e-01
1.886780418260179670e-01
1.935052850459371698e-01
1.857793352922355590e-01
1.733909254451483639e-01
1.888401857036144105e-01
1.396008804764368172e-01
1.664411305152783682e-01
2.567943784991855716e-01
2.374874108755137825e-01
2.849204559165841033e-01
2.330086852569812905e-01
2.665850972788633699e-01
1.888946425070764101e-01
1.913075206747017476e-01
2.940245511747351381e-01
2.650632042342779826e-01
2.940252863485622314e-01
2.660293965363986213e-01
2.575234928427885817e-01
3.136495388171481880e-01
2.304829296791344184e-01
2.667707275141276146e-01
2.682490887406802638e-01
2.810724014303687679e-01
2.738336029907361691e-01
2.927679945317204213e-01
2.958643416568842999e-01
3.228246868517753443e-01
2.498479657927374920e-01
2.398888392366752276e-01
2.654472299608094388e-01
2.593415064286357929e-01
2.414165623794685134e-01
2.639082687168883279e-01
2.652633410421150750e-01
2.429950826615255299e-01
2.170667937501114531e-01
3.243710104127341398e-01
2.642278199039032049e-01
2.246477620342524351e-01
2.523720811119397611e-01
2.424284436772682350e-01
1.969178746847884409e-01
2.129642030347767001e-01
2.132343311598846880e-01
2.602439441561703037e-01
2.367104315967932804e-01
1.883765673913224692e-01
1.909113599280733431e-01
2.346632649296041817e-01
1.099424464361222070e-01
2.165227476031734710e-01
1.337211654889699508e-01
2.014787351392299808e-01
1.037737917011536948e-01
1.851458929525856278e-01
1.495570302222721248e-01
1.619765735806075468e-01
1.121499028353690752e-01
1.077437099474917864e-01
9.145711894997717029e-02
7.894120652151040418e-02
5.520068391405066888e-02
8.363076415630903149e-02
9.546978468548546204e-02
8.145274508050297235e-02
5.756306389697402742e-02
8.188992760473229326e-02
9.842300996765647458e-02
