1.454769057346999572e+00
1.425671640751726477e+00
1.354819825905339670e+00
1.349698892968957509e+00
1.252384964265403466e+00
1.153700466659649315e+00
1.119636346535009652e+00
9.392107844932146010e-01
8.075921844756152046e-01
7.194881731291895566e-01
6.024172448689727455e-01
5.662529594919554210e-01
3.899727611727801246e-01
3.621648146161673409e-01
2.777492880585445967e-01
2.355187562277311075e-01
2.135633808442716497e-01
1.682197044290870691e-01
1.505600812233827412e-01
1.353724532206450615e-01
9.691684607458399270e-02
8.193417071283072561e-02
4.270971695496306175e-02
2.574018589886328812e-02
1.204034471920595595e-01
8.129953232765561866e-02
9.931489389270230228e-02
3.410484972469383924e-02
8.266141802402392214e-02
1.094315430506891396e-01
1.111471989934880167e-01
1.220305468328688192e-01
8.661132048072521517e-02
1.132651468353279289e-01
1.527760715980715223e-01
1.331734871208966053e-01
1.545774770745196314e-01
1.155333531965277577e-01
1.954227910285580294e-01
1.555242447515279292e-01
1.814919111981347088e-01
1.496412737670485549e-01
1.677243777366539401e-01
1.793012541927162529e-01
2.024760891064557033e-01
1.363160510104386436e-01
1.539968577262844085e-01
2.341994907370042178e-01
1.936354971886872500e-01
2.279070529570341730e-01
2.080041819405654135e-01
2.311068078423398064e-01
2.030176796124523453e-01
1.561093004886063562e-01
1.770612099621751978e-01
2.851344290808487392e-01
2.720676582325340931e-01
2.091264347696605297e-01
2.167106432386976256e-01
2.199946304097238070e-01
2.641738308113033007e-01
2.664316461368920197e-01
3.101390010695470600e-01
2.677698357454502687e-01
2.536633838914327255e-01
3.109325816950284649e-01
2.551266663375714727e-01
2.234837893595590652e-01
2.807606942204487477e-01
2.375494109914208229e-01
2.592250215414601544e-01
2.340350857083491054e-01
2.002568448021732894e-01
2.694153060069095496e-01
2.245738760614315044e-01
2.742421433844630108e-01
2.216285537678679141e-01
2.206402049039938029e-01
1.793050321375694311e-01
1.794754776284252784e-01
1.685804744358183893e-01
2.002426565202340691e-01
1.521980673521644567e-01
1.840292034795766862e-01
1.585691270841119715e-01
1.487303871140603084e-01
1.466556534401722844e-01
1.595255581776943987e-01
8.646289005763892199e-02
1.389874125948979688e-01
1.177338047926823200e-01
1.040463235453886609e-01
7.166441576012075321e-02
7.831290111952704525e-02
6.825050089247511331e-02
7.953622078236474713e-02
9.845962233304207667e-02
6.262116306875530058e-02
9.773242547424763893e-02
3.578083966650205672e-02
1.327019625350195180e-02
5.559812963308403272e-02
8.829159221440142924e-02
4.708440369937105796e-02
1.190321199666362489e-01
9.488389679442925384e-02
9.879135152106199858e-03
8.787569734761295492e-03
3.844598306600098547e-02
1.385539492001958313e-02
2.616663732773119588e-02
2.183699782648793400e-02
3.400023201642973780e-02
-1.383905602298775989e-02
-2.975749909931682882e-02
-1.645835988195748500e-02
-1.402692039431142901e-02
6.466573777406886894e-03
2.416914201429567338e-02
-2.096274076043110751e-02
-5.224233913678783675e-02
-5.583863552905637961e-02
-5.657040455174880758e-03
1.438274636793795275e-02
-1.924821807598200291e-02
-2.703558094741501452e-02
2.584921012458961387e-02
1.007537032139087241e-02
-1.527456367622548675e-03
1.062780632592818554e-02
1.524919157755212987e-03
-7.835417332464127138e-02
-1.843106217596651719e-02
-4.095408055717188189e-02
4.462654315275725592e-02
-4.887941415432511816e-02
-3.600542508882093040e-02
2.491759995737033440e-02
-2.629333980910163182e-02
-2.693858859950738066e-02
-7.991732689782819060e-03
-1.151260354271842548e-02
-2.517857306039749526e-02
1.277319203010416834e-02
-1.065634854063956041e-02
6.006185699464804822e-02
8.501346456329609419e-03
-1.673117193007800374e-02
-1.304084477060079433e-03
-1.376079602157759610e-02
6.749764095443430700e-02
-5.006132085279373783e-03
7.137168738768590037e-02
1.766041048772004976e-02
2.327132094212202434e-02
6.019306902336141185e-02
5.047756506010825372e-02
4.472567586082994151e-02
4.956798351425494020e-02
1.025346225618440910e-01
7.064611543273419114e-02
4.642533359753683864e-02
1.539859047970761063e-01
1.102119439611813079e-01
7.208544908464187273e-02
1.341839157273856387e-01
8.748272715526962673e-02
8.386493044592396862e-02
1.099412033792394883e-01
1.567705018398218575e-01
1.695048847342939258e-01
1.513273424291478875e-01
1.327206052383578805e-01
1.074323587616448777e-01
1.104586018644066608e-01
1.440187777857480367e-01
1.092129532005896575e-01
1.422223323010050611e-01
1.289559786598341307e-01
1.065177094915500389e-01
9.347409959222398312e-02
1.264029543136924727e-01
9.987309599144067462e-02
8.680817692800521512e-02
8.547788875553728738e-02
1.018225164699702451e-01
4.784331289812188137e-02
8.796737656117406545e-02
2.663306549443658633e-02
1.247118504734640310e-01
6.480383711593784568e-02
6.842472261424242808e-02
1.393795615369880503e-01
1.097234147442346236e-01
1.647668782170002566e-01
2.504730142354616440e-01
2.478423863348912792e-01
3.180842801657945973e-01
3.509812524243027254e-01
3.862384155557349596e-01
5.531130442959318883e-01
6.111187780595068730e-01
7.634627169358191301e-01
8.377864294625043673e-01
9.506106183307505564e-01
1.020101668713967458e+00
1.127737908775992004e+00
1.258416461789275242e+00
1.303125839422215826e+00
1.383839320897859659e+00
1.376539236166916425e+00
1.415369960174211350e+00
1.375147542038341886e+00
1.327719016134041086e+00
1.314440199925013264e+00
1.122885739451356280e+00
1.068959528505251999e+00
9.289089498708142933e-01
8.442426610045106194e-01
7.342508726482819270e-01
6.397954018684732791e-01
5.447916106698167393e-01
3.862793149687913097e-01
3.690847859798430108e-01
2.742523294779974363e-01
2.337022914097937054e-01
1.494237870559134151e-01
1.269152213146340080e-01
1.178748300579736119e-01
8.060954713489995593e-02
4.380663919368111420e-02
7.077118742478336055e-02
4.467001249079795983e-02
5.238949892516928108e-03
2.188691335942637151e-02
4.811313956301355166e-04
6.639862621397217557e-02
3.503490270539254964e-02
4.546968396547896446e-02
4.885148113881944421e-02
1.240927137377376838e-02
8.630315954269014711e-02
1.308761076461129741e-02
9.988164511728334083e-02
1.538204195670468677e-02
9.782871217544944487e-02
8.175835208425896727e-02
1.039705861998784786e-01
8.583442989047060379e-02
1.138559655965896977e-01
8.569612757702922690e-02
8.961869491267659971e-02
1.147939906154958750e-01
1.319016322902957228e-01
8.792902502079374960e-02
1.565176414075595546e-01
1.678593667820346136e-01
1.680582708267381598e-01
1.869548620760317081e-01
1.409431854155850372e-01
1.538470094084709860e-01
1.218718856496429359e-01
1.911470579735982667e-01
1.567886955620129419e-01
1.636798247209304003e-01
1.905147632788750378e-01
1.922857909950438371e-01
1.829923387878519547e-01
1.815414757773008980e-01
2.572417652530798460e-01
2.260489831978837461e-01
1.393763207408137972e-01
2.248165398924480973e-01
2.248469799073781472e-01
1.900250986517749707e-01
2.172965623988297457e-01
2.431507606027183410e-01
1.727835080351476926e-01
1.896802571421657979e-01
2.086246495408835278e-01
1.427015602724573951e-01
1.626471683130189805e-01
1.867490272525812733e-01
1.904698596516583020e-01
1.459925920169574121e-01
1.872024484177904347e-01
1.580743554347893431e-01
1.409433157919957602e-01
2.016807143504857347e-01
1.497961227243522209e-01
1.491489999509360009e-01
6.898039194508436001e-02
1.237852500724608562e-01
1.573521291685929802e-01
7.037280513047636243e-02
7.434590942233074151e-02
1.053519275244951675e-01
1.419931913782375155e-01
1.025760320842535461e-01
9.978997689000568272e-02
5.093387953598441098e-02
6.873434689355722993e-02
5.750684068687005740e-02
4.012968844663302587e-02
-1.920997434752672040e-02
8.142538677666638636e-02
7.639934820599492138e-02
3.539935355030027209e-02
9.744957652011866645e-03
5.033635885853912639e-02
-2.950916414942465760e-02
1.113757300469804534e-02
3.779216458542724449e-02
-2.431431579571823737e-02
1.833441100481465746e-02
4.332244682722474760e-02
7.075174020972900546e-03
-1.742407649559407634e-03
3.036401818363227562e-02
-4.290961820334093790e-02
-1.009870877337781803e-02
-1.444171843753017798e-02
7.867457916341073776e-03
1.085562142623665294e-02
-2.420393865854425855e-02
-2.836381699837262418e-02
-8.570420428402884816e-03
-7.538417220735812996e-02
3.582014665043290608e-02
-4.924270537691979865e-02
-9.151057988753444339e-02
-2.946391848351944884e-02
-8.568322176757850461e-02
-4.034939947996043358e-02
-4.867699758173276575e-02
-4.480311242941210220e-02
-7.694586795739809248e-02
-5.234580629357294540e-02
-8.548663215578802821e-03
-5.673052571655488874e-02
-4.544573596558607043e-02
-7.391888065132820596e-02
-8.743880660377624514e-02
1.739337883303145732e-02
-3.450215906650594411e-03
-6.179805788104062586e-02
-2.000490135653550799e-02
-4.416948932837132941e-02
-6.623337872121914938e-02
-4.077085912218036262e-02
-1.341248921479517436e-02
-3.422308634749408190e-02
-2.920872937129689526e-02
-4.011722958299138164e-02
-5.372255683425708472e-02
-6.113622384979452984e-02
-1.276063219162187901e-02
-5.701188704547945074e-02
1.454511810293115937e-02
-1.812761536696406994e-02
1.778815142475023703e-02
2.694487438676975571e-02
-2.455217602223317558e-02
-2.335543749007965714e-02
2.675677675644033693e-02
1.293783061103971621e-02
7.056929965806368887e-03
6.547421527775487693e-02
5.385394737780319768e-02
6.621178737235061673e-02
9.940508817462315183e-02
4.601336993998600411e-02
1.922662644118938724e-02
6.561356574662859098e-02
3.361931841772114460e-02
5.019797980633329548e-02
1.043197448326167592e-01
7.604627134477273676e-02
9.708064855829875994e-02
6.842900860342651659e-02
9.786334246580591367e-02
9.030672431264860633e-02
1.730991100336444766e-01
1.693283895090660907e-01
1.126606423134770829e-01
6.586408688414245594e-02
9.724891947611521981e-02
6.030209412897966775e-02
6.142418127214137324e-02
1.069329856756324471e-01
6.077117669063689109e-02
1.420339915057354796e-01
5.535366055952730541e-02
6.207858051015223422e-02
7.097603704224331178e-02
1.043669253877732711e-01
6.486211437618780162e-02
4.013984436638483311e-02
9.344090466311993914e-02
1.058278763575868087e-01
1.029228512861651845e-02
1.027149742410706501e-01
9.656384621908915833e-02
8.948056778457587346e-02
1.805471052656391628e-01
1.290585859865434337e-01
1.530332991097638207e-01
2.105739969937366063e-01
2.539838604348776396e-01
3.536728031153774099e-01
4.968429012173727344e-01
5.186314028814934529e-01
6.681774356122042180e-01
7.946797329939025989e-01
8.312990222702036913e-01
9.257513725186019560e-01
1.118178754518064366e+00
1.205829229193112084e+00
1.240737378483321773e+00
1.311142599876675696e+00
1.344956823383981259e+00
1.383250376749091126e+00
1.402139825536256490e+00
1.287914679038914878e+00
1.287673636662087118e+00
1.155502149560606151e+00
1.134925788518709178e+00
9.755909378980955893e-01
8.561734832059526568e-01
7.861820508342308722e-01
6.510330955143827092e-01
5.945006713027367606e-01
5.297672313035617364e-01
3.666373221937256899e-01
2.778616945416316208e-01
2.586078830782730376e-01
1.462164572982558863e-01
1.192568542724730674e-01
8.296181462374234428e-02
-2.202637256865765114e-03
2.487077394753758885e-02
6.141397119820390244e-02
1.703438255928957368e-02
3.859925168829361763e-02
4.257102709391349937e-03
3.210595011883513039e-02
2.036941848632442542e-03
4.815962420555149059e-02
3.177545522081721974e-02
3.439231970613668143e-02
9.267994905336744693e-02
7.180642359716364609e-02
-1.979031334419997096e-02
3.875936374591754108e-02
4.501154874916807325e-02
5.929274701405026771e-02
2.294500232313920196e-02
8.390492378134023488e-02
4.862404967017133761e-03
7.236030243853644461e-02
8.810977903647949916e-02
1.021851175268173040e-01
1.123561528631380479e-01
1.593626371699255195e-01
1.522203782417889117e-01
1.435004865766710269e-01
1.820430926699377616e-01
1.212166035580350132e-01
2.123602493535366176e-01
1.670655217751546018e-01
1.799202269787330000e-01
1.748910275606507525e-01
1.708646079262789441e-01
1.925422556178042754e-01
2.185729755266246355e-01
2.035947544085794092e-01
2.492774118072889900e-01
1.868537100567583265e-01
2.006548141263617135e-01
2.295913190432742890e-01
1.942441644872729967e-01
1.869606390537070228e-01
1.809871717723722795e-01
2.242449536651936748e-01
1.626154854158902430e-01
2.019084482199293151e-01
1.926932176718712530e-01
2.041513481094002491e-01
1.704785022310394138e-01
2.340743314949885745e-01
2.156937314937790728e-01
1.911518846399017091e-01
1.376641058860138545e-01
1.387122550374133845e-01
1.464588603220004226e-01
1.614031154142718250e-01
1.534198147853276240e-01
1.775035976251290448e-01
1.770938923683778032e-01
1.550002676407958857e-01
2.053874532077101245e-01
1.440108883494452541e-01
1.553234815200738028e-01
1.440335609553683449e-01
1.565106883189866238e-01
6.696623843431891154e-02
1.381887618001954032e-01
1.233719308339478044e-01
1.301011111165703560e-01
8.292760290223638586e-02
1.138538577730283802e-01
1.206883241532046014e-01
8.505127220089553353e-02
8.573716843148138089e-02
5.201430929256928293e-02
6.033011013109580711e-02
3.254288135958288697e-02
5.379468931158527117e-02
3.650362221099794080e-02
-1.359612068536660695e-02
-5.863888056368331270e-03
6.452767263658729102e-02
1.030282170491250704e-02
8.831444874087990282e-03
1.400077345567335430e-02
-5.980210668809243790e-03
-1.740784411658732878e-02
6.590348741690239820e-03
3.377710175599783760e-03
3.862069574686548268e-02
-2.778365689416628995e-02
6.127049416707622265e-03
-2.430442638083425699e-02
1.192006094076433764e-02
-6.760873128535174748e-02
-1.676304550293608239e-02
-1.473052319510339062e-02
2.865446814169814865e-02
-5.552181647145570248e-02
1.151586702551796182e-02
-2.639078167414689313e-02
-5.065216116432537385e-02
-6.828723086696922295e-03
-1.645017775995439441e-02
-5.094523606482020267e-02
-7.517819943758471957e-02
-1.153772391076237844e-02
-3.408658472444001802e-02
-4.231784755922051583e-02
-3.848923192049329145e-02
-3.982062930352470165e-02
-3.966605676464912689e-02
-7.201604360747504430e-02
-5.553230694480340568e-02
-7.666079575577701422e-02
-6.584257232766999729e-03
-3.039227266181347351e-02
-5.112603878539215968e-02
-3.706623138938572315e-02
-9.694418454562238330e-03
1.744367337260623041e-02
9.242338986206050100e-05
2.251210978916935723e-02
4.719949906783899030e-03
-5.387053926705115403e-02
8.636893114543235661e-03
-5.798886282370867284e-02
2.793613356853335422e-02
1.206843087033541290e-02
-6.004425089988222469e-03
-2.666478122913427257e-02
4.196843704328268032e-02
3.676171686371101227e-02
6.479153751059313349e-04
-3.908387806092977063e-02
2.143398612890840688e-02
7.491608858927367720e-02
8.706360631542739426e-02
6.209149171833444614e-02
4.417849082965578933e-02
9.975496604007587365e-04
1.134412482379869858e-01
5.885291848567568429e-02
7.401759161727966552e-02
8.434451573085442744e-02
1.047434977639261772e-01
8.085703370956463798e-02
1.026414679083739873e-01
7.970819655999192288e-02
1.431030626862859756e-01
1.608984128692254878e-01
1.163158200739581177e-01
1.443373039571858030e-01
1.019056154769595324e-01
1.439252809994603921e-01
1.398512151863461062e-01
1.232488887635783681e-01
8.293593571990276470e-02
1.010633878007354824e-01
1.008582545004805264e-01
7.004893706967177391e-02
6.796249511104619778e-02
1.407212514328655684e-01
1.310294097928913770e-01
7.253809979020478527e-02
1.511251873386769695e-01
8.160202918997702670e-02
1.133880384168839267e-01
4.598679864793013550e-02
1.030853774227155628e-01
9.960061014754560682e-02
1.286276631010339622e-01
1.063976780434661012e-01
1.057501940335790064e-01
1.132822719825436197e-01
2.156625471605497224e-01
1.805497611151659632e-01
2.634229183548039699e-01
3.546692666959535556e-01
2.909103754397501795e-01
4.483678401163629923e-01
5.332769634612239962e-01
6.452834424701271443e-01
6.600642423347118370e-01
8.201715187400371310e-01
8.932162034832509256e-01
1.045918618693304936e+00
1.148105513582935444e+00
1.281401328019507568e+00
1.253767069517408128e+00
1.352242986519992085e+00
1.399033704692764335e+00
1.381977572917049812e+00
1.321247573763543404e+00
1.352466558292076959e+00
1.293540844927730360e+00
1.119989457222953622e+00
1.173609434262073092e+00
9.541733841706544483e-01
8.687788613996938469e-01
7.660053852910102545e-01
6.756352234549169999e-01
5.414195644269250707e-01
4.841150049058777771e-01
3.937440790866958973e-01
3.184808415682557903e-01
2.223931671544324140e-01
2.168857330444005360e-01
7.218797411876495818e-02
9.584482889228604363e-02
9.636042887935747370e-02
7.913617957784553625e-02
4.644279351571684727e-02
4.006291815198293610e-02
2.772115296373332816e-02
6.730115350971388466e-02
2.151950542809222267e-02
9.750501717390699929e-02
3.219458478227962828e-02
5.806215528013494720e-02
6.665656210303431972e-02
1.104204609266281820e-02
1.230835270188414682e-01
9.042109588174147838e-02
1.211632667463209551e-01
1.378967472756529866e-01
1.226859834655610049e-01
1.155230024120951632e-01
1.046553919011702499e-01
1.006647570224960819e-01
1.560697694548174863e-01
1.237980880969221514e-01
1.371270852543738372e-01
1.458653719902810453e-01
1.936806018966073517e-01
1.221596029321983523e-01
2.106557019742017756e-01
1.168172534854224898e-01
1.882907746685499317e-01
2.210745327711511332e-01
1.679903376637213730e-01
1.082686967382762017e-01
2.447635336368749193e-01
2.685808728740901596e-01
1.977589694164983147e-01
1.910645718780699664e-01
1.801246799837014911e-01
2.215686020123557864e-01
2.288066649854945678e-01
2.024080823134663254e-01
2.701647539986111735e-01
2.285456184682737868e-01
1.606531468379433503e-01
2.440393570959984992e-01
2.169238602369885360e-01
2.758892590268110512e-01
2.605013086946799117e-01
2.363057125446654805e-01
2.597692230468117147e-01
2.202108031615554462e-01
2.325875306359715677e-01
2.790126288422931089e-01
2.235236777267035069e-01
2.595993033313795384e-01
2.704978128752838495e-01
2.116962214733965897e-01
2.113219512350798801e-01
2.364761392890207536e-01
2.206055851398183165e-01
2.124720671052744425e-01
2.290163125215896878e-01
1.928198372996865195e-01
2.200457875624313997e-01
1.879120177255372282e-01
1.647569878937736321e-01
1.179175011165855824e-01
1.275240925088504118e-01
9.728423732647235866e-02
1.329432047384281612e-01
1.037455384051026164e-01
1.173407529434903895e-01
1.700784075270015128e-01
1.629270653059798624e-01
1.560182196482012007e-01
5.079079539482942579e-02
8.087122971638152635e-02
6.717703261928771596e-02
9.101589672748995608e-02
3.702593866471118322e-02
5.010882249072565187e-02
1.036329384980685386e-01
9.896541983677337173e-02
2.107401068982406311e-02
3.523501929748674814e-03
5.658351709096167553e-02
5.862314878775772009e-02
1.061980764046461106e-01
6.447510539983127009e-02
5.628487117573583581e-02
4.879192322953911087e-02
2.269711290860694508e-02
6.982393073734279032e-02
-4.111730387575548984e-03
5.936498915585324693e-02
2.077866811327440388e-02
7.107293409451806432e-02
1.219813887411750654e-02
7.076634019047652394e-03
6.840694055387439021e-05
5.600984849037407565e-02
3.691227139912152400e-02
7.195494316273115532e-03
8.763395198456268298e-02
6.573636629442812518e-02
8.050048847751384296e-02
5.196788770423572956e-02
3.737855658767400696e-02
8.007821040652871036e-02
8.958708338819297567e-02
-7.147584497096364300e-03
4.087948737632573354e-02
-4.591454482729621922e-03
-6.095453811185540943e-02
5.035780608994097629e-02
-8.557350006474125081e-03
1.981503341153094400e-02
-3.784968214834743411e-03
5.545415501490458948e-02
5.388485520897138420e-02
3.661705555255762023e-02
6.302253385327081722e-03
2.680032828570839618e-02
5.796845871525590360e-02
5.916834259530587281e-02
3.617248456012490260e-02
-1.253638089282818613e-04
7.048127017450653287e-02
7.677995339122198337e-02
1.706520979324701454e-02
1.551118067540315296e-02
6.392571283143824723e-02
4.711197105986338063e-02
6.075874716038855150e-02
9.559463085178165898e-02
5.525427893670746549e-02
1.189527983200008021e-01
4.973852740158447860e-02
8.608161932450687781e-02
8.193218354969586392e-02
7.542404661130031052e-02
9.414798098816036520e-02
1.371912395822454112e-01
1.227257004154777287e-01
1.536560321055526479e-01
1.142469686960629893e-01
1.521604921706245228e-01
1.935718378056474898e-01
1.451463848726995132e-01
1.602959508188220028e-01
1.705872499770517414e-01
2.103867692491052099e-01
1.871644040309855539e-01
1.959992804001809141e-01
1.887138886872093413e-01
1.084535127900954493e-01
2.063134546412713766e-01
2.024719421915660844e-01
1.878690525415099566e-01
1.481568889724511617e-01
1.616979544311856198e-01
1.558837640444444561e-01
1.715188411641296873e-01
1.838932202949559724e-01
1.286800651396254325e-01
1.896472779014539978e-01
1.299996406133617222e-01
1.717442932201575512e-01
9.078060349141989227e-02
1.735901459166749872e-01
1.415309269136324766e-01
1.606189623871548400e-01
1.315209983829140061e-01
1.270047118070629089e-01
1.300852579844916923e-01
1.765927849131878058e-01
2.218606771847682346e-01
2.426549286778686421e-01
2.726996865490989297e-01
3.085223322798830159e-01
3.301711337277925540e-01
4.207422932556916240e-01
5.160018096711396218e-01
6.384186426438857032e-01
7.092443459715085385e-01
8.067963325876806868e-01
9.118394281638354526e-01
1.031910672730596445e+00
1.123424057097833995e+00
1.244473778095586125e+00
1.340265460752296356e+00
1.408522633167758276e+00
1.443422989806518286e+00
1.484798119098388103e+00
1.435600901548717001e+00
1.463947489298613736e+00
1.289349343719430330e+00
1.311832859690910569e+00
1.191255409268476839e+00
1.072673277254837298e+00
1.006166053730720211e+00
8.235414423635234460e-01
7.526183605422143152e-01
6.812654828039118593e-01
5.635019354944111880e-01
4.537832778609552364e-01
4.063132503043459520e-01
3.800538190044920883e-01
2.501944829925171754e-01
1.959906312559716313e-01
2.336194905626431395e-01
1.412293065463643693e-01
1.277443799397127433e-01
6.823368863803186413e-02
1.641949595146502128e-01
4.225438184615267628e-02
1.014514105230756580e-01
8.188281177157979984e-02
9.194614922794033807e-02
1.162762445653255927e-01
1.576719319609636849e-01
1.511549400088394723e-01
1.397419345194545193e-01
1.235447225332755583e-01
1.516831865607025098e-01
1.844088606905469052e-01
1.566571612373488243e-01
1.402364565376062189e-01
1.485258738398498868e-01
1.765050613585877337e-01
1.589009139972918927e-01
2.000816339812891420e-01
1.863012155736143705e-01
1.765196647028853816e-01
2.201263380461443431e-01
2.342222592965960970e-01
2.090557424709327261e-01
2.728541875596640631e-01
2.547833628548423213e-01
2.141604226432301805e-01
2.299727792017866590e-01
2.316513223561097179e-01
3.046639641001899212e-01
2.436634261423850645e-01
2.197645550569688189e-01
2.829745689792673158e-01
2.348380637117266079e-01
2.274951895623640030e-01
3.123547459529292247e-01
2.970039922918171205e-01
2.791945054767701606e-01
3.096687989650572792e-01
2.516449343729577626e-01
2.701650912515103364e-01
2.999643080437284226e-01
2.609101036074220614e-01
2.882328705181685380e-01
2.600172119961096651e-01
2.774476530112983674e-01
2.837326210340440635e-01
2.780430072508081052e-01
3.004450975916177491e-01
2.844837893282320396e-01
2.790828979803550713e-01
2.933187094764001523e-01
2.479565860259603516e-01
2.606131467732704099e-01
2.322745508174705875e-01
2.276038297044236658e-01
1.745384464456356255e-01
2.365994476560582815e-01
2.232676307162744789e-01
2.404288373457375838e-01
2.595295383969148384e-01
2.692430371701398095e-01
2.333061686119974609e-01
1.483113804188352369e-01
1.628696329661287190e-01
1.968009353850492804e-01
1.860632338770991656e-01
2.331132610875337741e-01
1.251984177558738420e-01
1.121500089285629720e-01
9.811556162728640729e-02
1.587632169755444078e-01
1.446567941628537635e-01
1.158569662031708331e-01
1.120614473242960846e-01
1.237366886068876071e-01
1.315066985922744291e-01
1.233080526922485237e-01
1.195838406464466569e-01
9.363654567104066906e-02
9.515893287241880549e-02
8.881215807859799138e-02
7.912449337474176947e-02
1.420208232785803437e-01
1.448515709301281262e-01
6.647137742486841638e-02
6.870672571208870372e-02
6.157229783220883462e-02
1.086368816799003767e-01
8.026353467910779527e-02
5.575717366055944757e-02
4.076690253194174829e-03
7.248996266560527035e-02
7.642147892775663642e-02
4.873403520570161740e-02
7.276603534415682084e-02
1.166531080405622811e-01
7.907213187625533601e-02
5.515591621873928291e-02
4.289597011535101201e-02
8.107616480123976122e-02
4.598291560605968775e-02
7.625574352794814437e-02
4.502876301620899885e-02
-2.162461406425179866e-02
5.379429763519857216e-02
8.391756828025181969e-02
6.514917633467087743e-02
8.289797487325056835e-02
4.992719469629296886e-02
6.631128071370523402e-02
2.664305069845168336e-02
5.492891853637505567e-02
4.801798170290765694e-02
5.975055569617603035e-02
5.582037300919002326e-02
4.438837816500823541e-02
7.947596701284383169e-02
1.218715915964724283e-01
3.110302960486733756e-02
9.077459320480180116e-02
4.661547883887980775e-02
5.573381240181545654e-02
6.087570289359202358e-02
1.347721435943387835e-01
9.300970460060820066e-02
7.689752908515014307e-02
8.053831147269426005e-02
7.886344614883444848e-02
5.102145389791685332e-02
1.491794657688639281e-01
1.061960639122550426e-01
1.375834003425525087e-01
1.413531275918062657e-01
1.383030816591915846e-01
1.148079038625151177e-01
1.696322536770938083e-01
9.895078038384794161e-02
1.939495920360100323e-01
1.738902052526186959e-01
1.184586334850021572e-01
1.115453786801447189e-01
1.275123208147689313e-01
1.064649205375400864e-01
1.808991875569502528e-01
1.516663123136983704e-01
2.022758151828280004e-01
2.041418563264583985e-01
1.396800193902314469e-01
1.906642202878311987e-01
1.584973952648921491e-01
2.058784263230407086e-01
1.353125681780205092e-01
2.284496600544806411e-01
2.234645376812635365e-01
2.388101769476824732e-01
2.540408968460939332e-01
1.983231463739169864e-01
1.823710879118333739e-01
1.897924456788955272e-01
2.278891503442035393e-01
1.882153288755885612e-01
1.430330282438962708e-01
1.742866261322018329e-01
1.896855109871664613e-01
9.125752833999307978e-02
1.333094697915456761e-01
1.131665162311787098e-01
1.176216474757846853e-01
1.966389515606100091e-01
1.977060443447803961e-01
1.709024149655249125e-01
1.562295744064970959e-01
2.152405654332303908e-01
2.359537099495442325e-01
2.430493157693458250e-01
2.941166495369179623e-01
3.682082450100806481e-01
4.377256307792848355e-01
5.104869448835531731e-01
5.958157164291535413e-01
6.652464858167924655e-01
7.877863965475890851e-01
8.780670973393792655e-01
1.042427807307714227e+00
1.133737754477795567e+00
1.187531935407595940e+00
1.298369269873137499e+00
1.337193125740113953e+00
1.502777693879662646e+00
1.435332023213261365e+00
1.502725340767718354e+00
1.409336779594811517e+00
1.435670652783996859e+00
1.333004166552294256e+00
1.237233494745455298e+00
1.154198499588859450e+00
1.057811624669106720e+00
9.843254973904430605e-01
8.139475538953089284e-01
7.032354347518116056e-01
6.693098143104154740e-01
5.134642997407563580e-01
4.280601526692152103e-01
3.854304215860010485e-01
3.411104971357474258e-01
2.556541366182207842e-01
2.227457423565102068e-01
2.421747993337394489e-01
1.700296532910699487e-01
1.730182175749478413e-01
5.639368558696436495e-02
1.234022531148130652e-01
1.154858211825527115e-01
8.205490129797435306e-02
1.199218695532217882e-01
1.169770737246569048e-01
1.110292522869342907e-01
1.461184824569855267e-01
1.207689857138029843e-01
1.557091148420209070e-01
1.900607514892132255e-01
1.644469195239415538e-01
2.103484387399414124e-01
2.241359098663783522e-01
1.333249707077233948e-01
1.868667245666711940e-01
2.079790022432286833e-01
1.829605712354285263e-01
1.802180329035000250e-01
2.090896879965727373e-01
2.031054963850412176e-01
2.455788993393427933e-01
1.810854978937868620e-01
2.381686685442662432e-01
2.689676376709935757e-01
2.475568231675991104e-01
2.455673476519198706e-01
2.593544155253518779e-01
2.693187281909650288e-01
2.427219065217153526e-01
2.275216155902764215e-01
2.809426084372603771e-01
2.799758626384192817e-01
2.350169901159988584e-01
2.473384868242559376e-01
2.909931218396104025e-01
2.693541443451297757e-01
3.093204706512986957e-01
3.199746383814483508e-01
2.776862765276383316e-01
2.869384954659351950e-01
3.493676949080990468e-01
3.071917002634427796e-01
2.590057802314859603e-01
3.037254873312380532e-01
2.910572439069648576e-01
2.466411377856792264e-01
2.856660285507895969e-01
3.150544794228271051e-01
2.488250971962432112e-01
3.183406203445324767e-01
3.064620045757461830e-01
3.269751772186280103e-01
2.564514548171615838e-01
3.069049548648804526e-01
2.140596173075269004e-01
2.225471664471599942e-01
2.452397982392777454e-01
2.705001661088436427e-01
2.460311534083193252e-01
1.790338756553649380e-01
2.181637474619950723e-01
2.177847201410718081e-01
2.201645705050406521e-01
1.591153309588425047e-01
1.505966536838321268e-01
2.118474475728969741e-01
1.522468709694826949e-01
1.510270412895645398e-01
1.588647330221222287e-01
1.670814362208487003e-01
1.270958431274747946e-01
1.517701974278891641e-01
1.462124997403564108e-01
1.146515880379600782e-01
1.050747341276532520e-01
1.339252825766300004e-01
5.617082977343779149e-02
1.254057093640647269e-01
1.296569703789354489e-01
8.441814527419777558e-02
1.519926266249853608e-01
1.113179196531551007e-01
1.297050770513906714e-01
9.949946609478979576e-02
3.830313218594207786e-02
9.534614225250163944e-02
1.091303240879644421e-01
4.920661490633001373e-02
3.423521384952054464e-02
9.789100846240494924e-02
7.276221431290760822e-02
7.023285638616698356e-02
9.902296665444870749e-02
8.562594374959429933e-02
-1.185129178939172551e-02
4.021788317227765336e-02
5.733616653040854438e-03
5.355260948509877467e-02
6.354201719880210597e-02
9.501443639181977874e-02
3.148769268814962524e-02
8.604974167203000013e-02
3.914083875334219143e-02
-9.081538970781385944e-03
3.742075630193579527e-02
3.769506904109514583e-02
2.670701188975000209e-02
1.031066339854813940e-01
2.846870756987488621e-02
5.352361803935844209e-02
6.555845989965904119e-02
3.877425566349639030e-02
7.250770199220774037e-02
8.695138298923682507e-02
4.828049151933309913e-02
4.364501062504969053e-02
4.881075116816786796e-02
2.191323657392350854e-02
-6.499755014336798531e-03
3.024531685329565761e-02
6.285436784618629591e-02
5.789120624058734232e-02
8.382669819809712708e-02
1.191574114850580401e-01
4.238522917843625532e-02
5.193027346241946979e-02
5.975545929535451550e-02
6.295008870760035458e-02
1.147227313919335911e-01
4.622729233759272083e-02
8.383728010161083100e-02
3.788028650627645044e-02
6.942429723971196842e-02
1.288150499827113438e-01
1.417207035471438614e-01
8.535243588186471053e-02
1.131233009634111802e-01
9.382876534486654652e-02
1.031360611109499864e-01
1.565658208375435012e-01
1.001583221919751104e-01
1.717866408334275952e-01
1.111519214444049719e-01
9.661728513881252811e-02
1.855909606171685933e-01
1.142880867306303033e-01
1.521103750987672365e-01
1.447520861700260786e-01
9.987951094321124990e-02
1.560343154538001709e-01
1.456352976468200944e-01
1.667664938868512192e-01
2.464740897869628633e-01
1.693310070364215658e-01
1.924711519993805020e-01
2.041297090511249024e-01
1.912378793241153452e-01
2.126158838953850772e-01
1.258361644090990883e-01
1.326520533533574742e-01
1.487591955536818333e-01
7.960516061247321917e-02
1.942723026101706441e-01
1.247690908492470052e-01
1.181370437910210375e-01
1.387914085061316971e-01
1.631747610244972113e-01
1.139333385484775918e-01
1.443132678294163918e-01
1.686911722855355678e-01
1.507545497642986676e-01
1.585170353675790511e-01
1.979278077883299958e-01
1.811384805916249896e-01
2.006650140235800572e-01
3.361002149932001415e-01
3.202949008353316307e-01
4.173704569666124020e-01
5.248446849870025410e-01
5.794672208709196193e-01
6.548313890302732698e-01
8.085416649663040856e-01
9.140737125752049774e-01
1.053399998979499319e+00
1.151994351566249408e+00
1.267726470777965408e+00
1.349931043760561611e+00
1.342380931679435729e+00
1.394311833123818234e+00
1.456281320916859690e+00
1.422820847561475421e+00
1.415304547092219201e+00
1.381208078113955739e+00
1.277216755846427798e+00
1.181972088545296673e+00
1.076062411447463507e+00
9.684157610642731839e-01
8.414091028539111283e-01
8.132846613220683363e-01
6.472308381885805151e-01
5.555945230966187198e-01
4.446246403956360393e-01
4.033552918042407343e-01
3.130498695719121649e-01
2.233061952543172191e-01
2.149522338170213598e-01
2.068733751997230419e-01
1.132560159020345736e-01
1.331885324192331188e-01
1.145553885350095030e-01
9.872959472565760730e-02
8.438073045937957706e-02
1.019318477477038076e-01
1.908777350141446782e-02
9.525302587480054262e-02
1.029608901591952397e-01
3.761692271634930335e-02
9.922801101640131571e-02
9.839599981248993432e-02
4.402106917249567347e-02
1.138916631231393223e-01
1.103867369819735017e-01
1.635806067751419124e-01
1.483786402737304055e-01
1.043725524962256512e-01
1.343213764872865645e-01
1.229820125198291536e-01
1.758160055803341670e-01
1.629153540794576749e-01
1.614950355264078985e-01
1.705110199121883663e-01
1.631070133192308869e-01
1.713564044249019647e-01
1.464764600293767260e-01
1.877038461909411871e-01
1.460910505156846062e-01
2.193204876542566850e-01
2.221166834191009853e-01
2.205860570614839311e-01
2.185573696467525695e-01
1.985579337473132588e-01
1.913117561078750417e-01
2.580327166257010973e-01
2.914320782160865764e-01
2.268049238951733715e-01
2.668730061402928566e-01
2.674728315602519779e-01
2.026395157941936476e-01
3.113518385806453015e-01
2.753064782194160065e-01
3.252586404255053409e-01
2.299785498111168724e-01
2.137170966892011637e-01
2.484898351666379457e-01
2.614250626853897863e-01
2.193656681338135572e-01
2.016199704462739162e-01
3.111695281404147639e-01
2.227375412631891760e-01
2.170519748967736917e-01
2.110316567881462269e-01
2.507425465390765718e-01
2.470390773520557415e-01
2.675291415247860183e-01
2.560196011652475789e-01
2.613953951219327165e-01
1.942908093889031962e-01
2.198298049768882267e-01
1.782185850145061035e-01
2.004914898551763414e-01
2.014520042013303869e-01
1.491864646713361719e-01
1.377547239609119012e-01
1.275372605591964248e-01
1.079866939914531643e-01
2.281480796099802644e-01
8.640069177330157724e-02
1.268512017793133051e-01
1.269449118351332062e-01
9.145085439153914642e-02
1.059940552893402083e-01
1.635377161783930222e-01
7.862520701775098375e-02
9.511703425304035564e-02
1.489774916673623495e-01
5.201445775218117851e-03
-2.578573416730138915e-03
5.927897031737833222e-02
9.764100511423204343e-02
6.199041013503099606e-02
4.476972513138889609e-02
4.135224940605974203e-02
1.347158786678602678e-02
3.538371131741255282e-02
2.904906550356286046e-02
3.194033853492528330e-02
8.393514814585574524e-02
4.349305325597600455e-03
-4.200711128165687813e-02
8.549833265742548538e-02
4.533383154032493562e-03
-3.945129734590052673e-02
8.024383881768359233e-03
6.028142516227849579e-02
-1.970700279022540372e-02
-1.143560384315598852e-02
-2.616083759584795360e-02
4.051194508228725399e-02
3.419363669455946497e-02
1.703047614369635615e-02
-8.916070344428893291e-03
-2.720516775558857667e-02
-1.530641291414298888e-02
2.483303213640596085e-02
-5.192833160589343383e-02
1.108517265074487196e-02
-1.736321993894095195e-02
-3.914417098613825335e-04
-3.360274802978645281e-02
-2.225835444499875068e-02
6.866288073797757741e-02
-1.944124624211204799e-02
3.584453036076274551e-02
-4.017396917610605023e-03
-6.060406888509649315e-02
-3.695738436927561987e-02
-2.959375863722717506e-02
-3.031970550590049399e-02
-6.090691025457749264e-02
-5.769303574112356892e-02
1.444035700168401840e-02
-3.952998337952573146e-03
5.322115746443579348e-03
-2.253329620331170902e-02
-1.996563111077871364e-02
1.354649828322663369e-02
-2.468819047728116473e-02
4.012391881303806196e-02
2.382810841681870864e-02
9.529207027637227184e-03
8.379458168229207693e-03
3.856227423537243737e-03
2.628911946193543403e-02
4.197098903158707345e-02
5.307859673785690624e-02
1.185878261693104896e-01
1.074137258904577230e-01
4.917312050583544369e-04
6.320498503879881658e-02
1.035133317808389353e-01
8.512817813355808005e-02
8.566572339736272523e-02
1.138161111916998064e-01
5.009796320703913119e-02
9.560833470869316286e-02
1.062146686131139883e-01
1.424445261060215406e-01
1.051213695434809470e-01
1.255901621899421228e-01
1.367413917718672267e-01
1.296988304326287533e-01
1.256829041092965005e-01
1.624396645929390981e-01
1.411999633671778831e-01
1.117058513335391357e-01
1.319256104875717595e-01
1.109331393196285875e-01
1.518793576707083148e-01
1.140513870756607873e-01
1.424291437791086190e-01
1.226757676160075555e-01
1.453501592871021542e-01
1.040220864781886273e-01
9.201790303935679372e-02
7.460548864978849837e-02
1.139054564557032689e-01
7.267914321568405556e-02
3.113768302910841640e-02
2.636466357921942241e-02
3.223499281323134735e-02
8.760141962525597181e-02
1.186496725698332755e-01
9.957935468206721707e-02
1.329116229528983228e-01
1.728380081147924963e-01
1.522860557578199769e-01
2.656408727627598831e-01
3.251397782095216682e-01
3.940713316984752468e-01
5.082408030352272288e-01
6.037096380176709687e-01
7.280319372476198314e-01
7.560388560611952524e-01
9.192966055627271871e-01
9.707315681795217754e-01
1.166835771117711751e+00
1.183384375894160012e+00
1.301092808144714841e+00
1.309375888087203510e+00
1.381812340105250225e+00
1.412636184667092509e+00
1.338337816531037117e+00
1.318827114872245021e+00
1.283943036095115842e+00
1.195726531359709632e+00
1.121618311279541924e+00
9.681446172890082469e-01
8.218238283449226245e-01
8.002761076738105217e-01
6.601310582411430428e-01
5.204292526389264761e-01
4.252346892994430805e-01
3.221928316102337098e-01
2.963724575488032031e-01
2.012239418433544313e-01
2.440964118309645881e-01
1.186401925568150856e-01
7.698493019324861852e-02
7.467313441253209394e-02
8.428274376123218170e-02
-9.954882761030792171e-03
5.611310112998822708e-02
2.634068878733727970e-03
5.402869158396223642e-02
4.455531032950978826e-02
4.567644160787490137e-03
1.288859579732936494e-02
4.877414569594155230e-02
5.720188846888386164e-02
3.465203346945763124e-02
4.524301527079337831e-02
8.125310024656705321e-02
2.189882882356199156e-02
3.601882627043096613e-02
8.135728954053059181e-02
8.660093447940300782e-02
8.078830747087670239e-02
1.091110304280022009e-01
9.072943804327687767e-02
8.205338687357766059e-02
1.321584069249399640e-01
1.305402214233638836e-01
1.402785140240751516e-01
1.247312280764183434e-01
1.374778861141589537e-01
1.691853198378244216e-01
1.746576667945130557e-01
1.764800234854011496e-01
1.442371821060303982e-01
2.007563519410710262e-01
1.546501484839856444e-01
2.092043117861986101e-01
1.450547430808346028e-01
1.929900993848414625e-01
2.120050280013783262e-01
2.015697966187797729e-01
2.056929522065786275e-01
1.796872677945909325e-01
2.528039977822203466e-01
2.235846488006838217e-01
2.212412659703502926e-01
1.184222079095878233e-01
1.752912124215425249e-01
2.134522328621675236e-01
1.619467952895805585e-01
1.970805221098415605e-01
1.791036092955846648e-01
2.138282864669132921e-01
2.305397691569915919e-01
2.184483831786507291e-01
1.800164786031432929e-01
1.793339528504062641e-01
1.681155020354619389e-01
1.848257261066735269e-01
1.914713111415075331e-01
1.905427994606078701e-01
2.028218915090752583e-01
1.581786141712396010e-01
1.427336337752202200e-01
1.611348840508665670e-01
1.238867069135182186e-01
1.627132338161543790e-01
8.457310617260091479e-02
1.399454953126967605e-01
1.142023086203721449e-01
1.376842236265951869e-01
1.413660370744187489e-01
6.670812704444527286e-02
3.193050029900811049e-02
9.759576386416590754e-02
6.526425736943300415e-02
1.229874452448221633e-01
6.769431044647863938e-02
8.981033825001553950e-02
7.369602149936302360e-02
2.395166220068855462e-02
4.544340229740923692e-02
4.303919542993410452e-02
4.068583854212335510e-02
2.636470391691030091e-02
2.807831096100350809e-02
-2.740242881077874226e-03
2.670242131247559103e-02
-8.272778278632875182e-03
-1.146046980825184136e-02
-1.957091192513691486e-02
-6.065107394557985726e-02
-1.682578220898016744e-02
5.378816174170394232e-02
-4.094567161534627686e-02
-4.574443884828753581e-02
-4.934299123890244221e-02
-1.564953642487745128e-02
-9.619643652651685417e-02
-1.481897754974630110e-02
-4.630231838342519640e-02
-1.036338681058824457e-02
-6.999399233476505389e-02
-3.700550412949074608e-02
-6.083063506394030540e-03
-4.785052292212112202e-02
-3.391812135289277996e-02
-1.143998647412541175e-02
-2.710414404081611106e-02
-3.784114170112584663e-02
-5.245950059657780024e-02
-6.797660541415649627e-02
-5.258285042201042703e-02
-2.406194466678420255e-02
-8.748965511711966070e-02
-2.066162402151147659e-02
-8.610074243965386287e-02
-4.365562401356647138e-02
-4.697420985370710789e-02
1.368064881786554970e-02
-6.758362843827747657e-02
-4.136033791453545827e-02
-4.649827013378220186e-02
1.057005764676012538e-02
-5.501632239956573411e-02
3.236207754133121894e-03
-5.087152692826089895e-02
-2.734503950609833145e-03
-2.547966260616745318e-02
-5.949878860593330043e-02
-4.800734709904885822e-03
-7.122192683883152298e-02
1.646550508242615452e-02
-1.145908641013443363e-02
-2.705900415748931781e-02
3.396487371613300665e-02
-2.148531122230116358e-02
2.287291057327610344e-02
5.228308131959923111e-02
4.252350444155152814e-02
3.452496537615745709e-02
3.085810523159795982e-02
8.713015263004939004e-02
4.147520759500464976e-02
1.001811934155879547e-01
9.084438221501897615e-02
7.162710657804159664e-02
7.782559863812858747e-02
9.227297504573678255e-02
8.290361465354839643e-02
6.914880842755712076e-02
1.470202145206615241e-01
2.138365664673424343e-02
1.066771377857775038e-01
1.017444093985865189e-01
1.096374519150749016e-01
1.465906716267450505e-01
6.662727623064226834e-02
1.329014615257693988e-01
5.834445170129595737e-02
8.852692610434176324e-02
1.249178737553684471e-01
1.029330317951633045e-01
1.058586187789646721e-01
7.298340616631759925e-02
1.399390686170444709e-01
6.448497485889496950e-02
7.239678910739660855e-02
3.943823081677408360e-02
1.113602856128062951e-01
9.857584946991049257e-02
4.756920467136979691e-02
6.484341125535000860e-02
8.882655831614807984e-02
5.675126004138102837e-02
3.041134121778322347e-02
5.859880207616582209e-02
5.016085303282355468e-02
1.374339019208621060e-01
1.828848406354246225e-01
1.379835613454061805e-01
2.664874379644865954e-01
2.989482644696987990e-01
3.114303904043485005e-01
3.599801044198379651e-01
5.694339562110425357e-01
6.948839371591850611e-01
7.250319808742133887e-01
8.556341851775649543e-01
9.459589749380328261e-01
1.047781223580517507e+00
1.169796925268227206e+00
1.206584948229374898e+00
1.296271926594202650e+00
1.367560880319504069e+00
1.393331897857285950e+00
1.321276640613038067e+00
1.306688341875732906e+00
1.273316580070291248e+00
1.241011710836749105e+00
1.112395388392146689e+00
1.050935486895446580e+00
9.623282338697406457e-01
7.756888848548941784e-01
6.455100353141027814e-01
5.726325900202740016e-01
5.348631979774730594e-01
4.239929497177941653e-01
3.235701495584494825e-01
2.316807992379582015e-01
2.020645879456555716e-01
1.645606464601660490e-01
1.421276266226088325e-01
5.291742688205374606e-02
7.735052464087965873e-02
3.980212608734848279e-02
1.859419139266724197e-04
4.980541280328432130e-03
3.876903123293105879e-02
-6.124793463526956999e-02
-1.120811807506328500e-02
9.919491837536618950e-03
8.163439441943802499e-03
-1.743808629072435279e-02
2.147407520803448766e-02
4.972421286345433261e-02
4.468844581714944558e-02
6.276776286518270798e-02
6.932871978605502361e-02
4.820857193049354894e-02
9.906635723300488694e-02
9.288245940287293001e-02
5.282892014813417303e-02
7.605100345726895084e-02
9.235424929813731976e-02
1.344286413299280447e-01
9.298204640375734575e-02
1.556523671430070921e-01
1.493619075195604662e-01
1.917561257978383504e-01
1.115850806599350542e-01
1.823335406694660266e-01
1.567975115093744598e-01
1.863901222954624792e-01
1.564973246793323336e-01
1.518889358707610771e-01
1.595482797752271198e-01
1.799347323000735632e-01
2.310879667590569619e-01
2.044593351167622031e-01
2.309389604532101903e-01
1.762633971438887226e-01
1.542946344267791259e-01
2.471477227439569935e-01
2.810318725062028178e-01
1.642197902512259333e-01
2.090274929850619301e-01
1.999290151377917657e-01
2.024195130173272184e-01
2.325246695515889028e-01
2.068355961952994815e-01
1.740261570039510208e-01
1.985653963049952009e-01
1.972095214424388065e-01
2.076709305105568226e-01
1.920446110679638885e-01
1.777616128718079724e-01
1.632577484388405276e-01
1.561882764265059009e-01
1.786710335469329780e-01
1.271398838664434261e-01
1.746811274899466027e-01
1.808109366409004770e-01
1.619931648075494390e-01
1.366452561996783777e-01
1.363401101118560943e-01
1.654307394591934544e-01
1.316006406184980770e-01
1.275942868021844867e-01
1.429472686835904782e-01
1.141300638442633575e-01
1.429486133303915774e-01
1.114675672374832449e-01
8.929526871835227753e-02
1.145547860554102237e-01
5.468261394185378044e-02
1.080358265100563736e-01
9.031553587349530621e-02
1.027973286263706154e-01
5.087239053844277992e-02
3.061872820013556568e-02
5.777360800469898139e-02
2.391446862362055226e-02
1.536861184023707860e-02
2.004771093939941573e-03
1.715888413648740396e-02
-4.885232122608599431e-02
4.405117920705677731e-02
-5.728987219510733864e-03
-5.388011033819967155e-02
-1.847732355780021957e-02
-2.165999543229141927e-02
5.175182217434209919e-03
3.625168688681595225e-02
1.144188874753353929e-02
-1.526109075440047758e-03
2.789793164913005608e-03
1.367872698534172010e-02
1.791020671449095741e-02
-4.745953591584146924e-02
-1.266996864914410326e-02
-1.402910049419883037e-02
-2.011226244519188563e-02
-4.432379593241517896e-02
-2.084244775997192226e-02
-2.623332330648205091e-02
-5.071800413059105589e-02
1.382768417709510228e-02
-9.632883628769774165e-03
2.444967517098863008e-02
-1.333846263217294478e-02
-4.123470983618616331e-02
4.802717574994418148e-03
-3.911926862453757314e-02
-1.315015248590502284e-02
-2.391062156495156465e-02
1.394291552457124772e-02
-3.083780517659394371e-02
-5.344201750950151875e-02
-4.128626994229712965e-02
-9.955389138404023563e-02
-4.011419823692095876e-03
-6.088217638389314956e-02
-4.237308293691949279e-02
-1.411037149360768253e-02
-1.222427691322099802e-02
-4.361309684473393261e-02
4.128781975388538111e-02
-5.846775528658018639e-03
-1.490215293664190130e-02
2.364916794363876654e-02
-9.981823003455611576e-03
2.897595468988485926e-02
3.537485281131746984e-02
1.183459031191250524e-02
6.386034585917374495e-02
2.292342452844779027e-02
-2.470170213239832741e-03
3.438275022317358043e-02
1.207315470444741273e-02
6.202927416244032738e-03
3.338966504927855239e-03
3.844243687278046245e-02
1.280119977328285710e-02
8.575464751872215186e-02
1.022155547538481091e-01
1.125080001426062293e-01
9.106400638243467016e-02
1.277301201043773149e-01
9.019932177439095311e-02
7.395911561836057690e-02
1.186718640202305691e-01
1.227158843125254473e-01
1.166950995793164247e-01
1.316302166220907899e-01
1.486823671916372991e-01
1.518228228932378410e-01
1.012271631141474088e-01
1.099774379672023711e-01
1.285267957332730804e-01
1.418325727601904007e-01
1.830672814336492538e-01
1.181462867258393223e-01
1.397621711802120303e-01
1.366179496968198959e-01
1.275046146131099678e-01
5.674386696797847907e-02
1.019675839926350858e-01
7.665196882430860836e-02
7.983958743548426329e-02
8.108961966048189307e-02
7.017840509690093098e-02
1.029678528305354446e-01
9.861732347326183923e-02
1.698314636613934836e-01
7.744972406682461286e-02
1.359009432696835218e-01
1.116639665332165576e-01
1.243989217439986361e-01
1.466083046928018663e-01
2.126860258199045617e-01
2.547492653185178813e-01
3.131601873105528955e-01
3.419670922581055650e-01
3.996971782118196592e-01
4.157219083302807761e-01
6.298287500344464940e-01
7.172411811486097966e-01
8.777162792383128576e-01
9.191425565964103095e-01
9.382290935175676694e-01
1.109106486086174570e+00
1.229177439989990850e+00
1.323493215490770147e+00
1.391678851728487487e+00
1.395149945704821537e+00
1.470576124075226421e+00
1.412081327459141278e+00
1.375035622762332377e+00
1.242342723147685346e+00
1.256808985156768976e+00
1.177553132202695751e+00
1.015758241511232507e+00
9.493453921890946390e-01
7.802298725235666810e-01
6.855938740938002374e-01
5.952509619955840270e-01
5.479002753759140143e-01
3.659644023297988769e-01
3.114693736410077407e-01
2.433731675837296771e-01
2.341908283556876080e-01
1.628088961428976467e-01
1.157475873880785266e-01
1.348539347311394354e-01
4.414152417623930930e-02
1.876231101487154870e-02
5.738578384911983271e-02
7.926048328997051251e-02
1.688324959590535232e-02
6.843130945143635624e-02
7.681420402108990464e-02
7.289238167787526201e-02
7.143799328400887716e-02
1.192112346452840477e-01
7.752063800623130996e-02
6.032444017887678145e-02
9.695831295591021692e-02
7.594651494469373265e-02
1.051838110249109781e-01
9.611268366870093227e-02
1.169328792803189937e-01
8.299366003577238193e-02
1.003447857741786853e-01
1.505787747198757409e-01
1.592064247155002277e-01
1.803600247084433672e-01
1.468696049254667180e-01
1.933560457026919921e-01
1.649349328008689053e-01
1.068537419730462984e-01
1.514476012722409670e-01
1.613139499511071495e-01
2.317347876969661491e-01
1.989320459567596455e-01
1.980909398373181529e-01
2.287929839940302523e-01
2.472289457103002963e-01
2.009368747401262811e-01
1.958553130722715530e-01
2.423390582410191174e-01
2.449554864906026419e-01
2.460622325283194911e-01
2.490881809403864000e-01
2.470825427218425741e-01
2.457384346021763422e-01
2.596646528804077425e-01
1.528680328830556157e-01
2.604087769504724315e-01
2.501422855407959278e-01
2.723711287243248957e-01
2.649046097087559559e-01
2.729265409090824157e-01
2.348677703849433862e-01
2.702101203864021861e-01
1.992102868799993931e-01
2.264515537384378663e-01
1.553643090877000477e-01
2.414987112146973758e-01
2.048947962176242976e-01
1.513063220361614003e-01
2.711117418410748381e-01
2.188089806503080992e-01
1.758847772008099164e-01
1.981891993149731135e-01
1.756223292859413476e-01
1.929294810283073425e-01
2.002352050637637992e-01
1.892907433125804728e-01
1.673854262831136197e-01
1.351892796329399182e-01
1.563911297699869252e-01
1.227372422674479630e-01
1.515462696403674925e-01
1.799516872910502108e-01
1.685172569756310246e-01
1.050520522452980388e-01
1.060923125893096647e-01
9.252711458016171786e-02
7.504479426476126647e-02
1.157469046450934069e-01
7.256520420120907144e-02
3.876492358021419588e-02
7.841598442278793768e-02
4.417831153847985581e-02
1.152075715895421459e-01
1.421273693177587394e-01
7.535171676235673244e-02
6.459051683677541345e-02
1.013120364052334382e-01
6.586756866809630184e-03
9.626440770750697984e-02
1.115663399673575140e-01
2.021340709336236913e-02
4.783250430073208992e-03
7.751292955769276127e-02
2.728075069285422483e-02
1.801745331654459187e-02
-1.731720986633546872e-02
-4.014722465347327768e-02
-1.450372384657505447e-02
-6.044084670153807015e-02
1.500128692340087048e-02
1.007878452980290329e-01
3.829095270648989746e-02
-2.523584970382820175e-02
1.301335246284160592e-02
-1.651297089865028100e-03
1.934168734526913944e-02
-2.246617304399775583e-03
6.426633484795173101e-02
4.104871294151932193e-02
8.393634269528363334e-02
1.152208865799510262e-02
1.854279550655724487e-02
-3.512364048430548225e-03
-1.741484774081591275e-02
-2.226645247410953890e-02
6.946801548774540411e-03
2.955756760040241515e-02
-1.635569619327960703e-02
1.561483838743528765e-02
3.933388656126189306e-03
6.413001258395352455e-02
4.636235509884188699e-02
5.408211763488371057e-03
6.382587083316645926e-02
3.490030256958315258e-02
4.895311551984636578e-02
5.130742836022372799e-02
4.118192887942155600e-02
4.872272549652258145e-02
2.606026616404431839e-02
4.885701050603721840e-02
6.073154354260898447e-02
1.342431027795559437e-02
3.178847137079664209e-02
5.558295747018655170e-02
9.035102668508127044e-02
1.133504081991341117e-01
1.335552583569706575e-01
7.971241943026960430e-02
6.997888585946250573e-02
1.022605950963176025e-01
1.236486178289223220e-01
1.305079686709730014e-01
1.561962429253478390e-01
1.459213262837130709e-01
1.305302380495362291e-01
1.715656396418651919e-01
1.137925819427541008e-01
1.140490336032253804e-01
1.603217901572844828e-01
1.027019874084784679e-01
1.220129151786920746e-01
2.023307030831760778e-01
1.587620611032468376e-01
1.408703281322401801e-01
2.027131316127853133e-01
2.174480172265225719e-01
1.990042925826301934e-01
2.091326293446204854e-01
1.611223543941382452e-01
1.606268419478927567e-01
1.431830063665276154e-01
1.911198968003093024e-01
1.691716218644948866e-01
1.690052137890460382e-01
1.292010174392305977e-01
1.446972368448550261e-01
1.002613035848101269e-01
1.703523035496015692e-01
1.923983116521373882e-01
1.143326500784127286e-01
1.503650472676898997e-01
1.664979975398007128e-01
8.274076054636909927e-02
1.596263084172410140e-01
2.113871340812208954e-01
1.685081201092357428e-01
1.979940765780905110e-01
2.666594772451684192e-01
3.256646762315795196e-01
3.363146203712432114e-01
4.225096051319168766e-01
4.134886068431035677e-01
5.655434211592893501e-01
7.203662773668181307e-01
7.633122557003539921e-01
8.841032775474171324e-01
1.045365267902911510e+00
1.109989411203565757e+00
1.242752408086009952e+00
1.195152407299429731e+00
1.403515532367869190e+00
1.431406839759812977e+00
1.453813138371959690e+00
1.421444563376570658e+00
1.384438503338376814e+00
1.372768168285732004e+00
1.322755446536788337e+00
1.197815959725949675e+00
1.109434456919291767e+00
1.043834902337262838e+00
9.150167342679960125e-01
7.824797067087009284e-01
6.783334093832616984e-01
6.306202536827074656e-01
5.019065288546292747e-01
3.931168656180337728e-01
3.554917838259681329e-01
2.609896169143905986e-01
2.057369256278236969e-01
1.873488199274241373e-01
1.454966800380088077e-01
1.047874682667459950e-01
1.442993343611428669e-01
7.618423341346772237e-02
1.132309642365808278e-01
1.272535234991083730e-01
1.142824315217098319e-01
1.360586303981116685e-01
1.225217991514096910e-01
1.198283602887666721e-01
1.343760046849553635e-01
1.275897719321308910e-01
1.115908231174404103e-01
1.402426378177897559e-01
1.880734373334493892e-01
1.138435871465836718e-01
1.377669967888562608e-01
1.667617070080056885e-01
2.292399852379570224e-01
1.899232931961553072e-01
1.768364715070807058e-01
1.816687019319129237e-01
1.434332602993208527e-01
1.773657958165984483e-01
2.238602078816114838e-01
1.791689168342693039e-01
1.763189554623134647e-01
1.435440961632583612e-01
2.600192906111460367e-01
2.300267913405909803e-01
2.683534794988443606e-01
2.512150656024403350e-01
2.887797439459468540e-01
2.549262250542398411e-01
2.485557697148189360e-01
2.344923990176473183e-01
2.792177409449771996e-01
2.935281369374147520e-01
3.389969587318749644e-01
2.823078234936344799e-01
2.415788766368025808e-01
2.645145775257302656e-01
3.112155518923462871e-01
3.264759924477876329e-01
2.415468438294005593e-01
3.262738542335594238e-01
2.247295665054753200e-01
3.187626689405488323e-01
3.189109837421963967e-01
2.485660902074194323e-01
3.594720803108321094e-01
2.655983766282305480e-01
3.287602291039937730e-01
3.128368446458918428e-01
2.793037726207380222e-01
3.134947307039037123e-01
2.805720359253781604e-01
2.747269956095768628e-01
2.854073329292385885e-01
2.535716973657259898e-01
1.888345543747954880e-01
1.995359494135555412e-01
2.090007528089057043e-01
2.053775050912430566e-01
2.059244539869203861e-01
1.615514228885742976e-01
2.111005735050577869e-01
2.182076882211712865e-01
2.066138266570761994e-01
1.717002087559313939e-01
1.344658744661242356e-01
1.558020860947410269e-01
1.765514464926840887e-01
1.628941787522527884e-01
1.551543653581586857e-01
1.380960460726928796e-01
2.013855498428866464e-01
1.052252283997837518e-01
1.971253330769634771e-01
1.453383383834400688e-01
1.065698212822976804e-01
1.375704489895190619e-01
1.029539766725911937e-01
1.201523172058774347e-01
1.107836945494718589e-01
1.359805638703420472e-01
3.863448648511215444e-02
1.271318642065105142e-01
1.130482527435150708e-01
8.329188948714350005e-02
9.146672332943137085e-02
9.607164237075532798e-02
1.064001754245639253e-01
4.894246877778143934e-02
1.212203690399642764e-01
4.876736793983463270e-02
1.056574174376531117e-01
5.174281067283213048e-02
6.892978902848895251e-02
-1.330072287773187423e-02
6.348804039103916885e-02
9.922748347375801026e-02
5.812398210746058669e-02
3.535077032916120188e-02
8.255159143021634227e-02
5.986845327695580754e-02
2.009525464679193935e-02
4.007035051629019573e-02
8.795928352824536334e-02
8.858681743500401717e-02
7.706712258041974184e-02
2.911631675515513260e-02
9.165646908596000730e-02
6.574933253337532368e-02
6.208470035486311767e-02
7.691691423383949233e-02
3.204261835803842717e-02
6.270225360965032968e-02
7.011902559725305406e-02
1.134252330872307091e-01
5.298823347505215303e-02
7.267890299620702321e-02
5.783161759678864811e-02
6.987837254497397677e-02
9.364669181481910520e-02
3.169955837003568533e-02
9.421520750269357647e-02
6.725968850550453904e-02
5.169054366642696768e-02
8.649996859800593296e-02
6.534064051811459828e-02
1.492918925575333344e-01
1.149511068473818842e-01
1.190120716383586685e-01
1.312574513394869913e-01
8.515516626763490471e-02
5.749722059257610096e-02
2.040982044567660192e-01
1.214052389602470611e-01
1.070952830320043431e-01
1.403616269530256477e-01
1.567441440555215615e-01
1.555512159977198994e-01
1.430110500982807453e-01
1.760480973043564989e-01
1.462023327108799564e-01
1.308818519639580180e-01
1.536666275472809984e-01
1.644418299333836875e-01
2.180992007928606036e-01
1.997185322966769094e-01
1.595602455807766940e-01
1.665503183746523952e-01
2.152503173099538925e-01
2.440352388337616030e-01
2.728582055260775352e-01
2.029013996547965881e-01
1.732787954037176836e-01
1.799764579309630630e-01
1.862931222364915262e-01
2.019192503411429418e-01
1.688886522997970763e-01
1.422289230714614550e-01
1.538247120393536616e-01
1.369283346857320394e-01
1.659212168792280340e-01
1.930725873695573191e-01
1.911659004498262870e-01
1.686431003075431201e-01
9.720511835836079251e-02
1.272821960739202729e-01
1.187827375193013235e-01
1.723858295772158211e-01
2.342778404587428365e-01
1.745332412935224620e-01
2.366018293780781934e-01
2.525159598145078066e-01
2.297433079398538136e-01
2.859991317613276296e-01
3.367808303950168280e-01
3.782367613512254700e-01
4.590508144655425227e-01
5.639768065723936852e-01
6.497275374143449689e-01
7.538967908395273199e-01
8.497102232004709599e-01
9.483994546740631693e-01
1.036835368620569131e+00
1.205992399168220874e+00
1.293539318387431303e+00
1.359888461719887420e+00
1.350944200774490067e+00
1.487287288562930687e+00
1.451083326854026412e+00
1.567508876654058358e+00
1.400791553450493332e+00
1.335291789586069866e+00
1.210141486696864943e+00
1.181825824877767328e+00
1.086909443242066287e+00
9.544583784044943231e-01
8.861495785837951722e-01
7.739146810756512007e-01
6.686122878770703881e-01
5.441716157451051972e-01
4.482509045383739621e-01
4.025928642110719324e-01
3.261378267381573881e-01
2.811241396643501811e-01
2.648224549431411612e-01
1.490046854206047711e-01
1.542670423394334467e-01
1.088605695478149227e-01
1.177354293696072501e-01
9.409435630761633917e-02
4.942486789413082920e-02
9.450076426979071853e-02
1.193668009498197180e-01
9.322711012253945273e-02
9.638252130489988190e-02
1.103543726997309737e-01
1.201321388616381491e-01
1.099285335745958936e-01
1.200404115849719178e-01
1.483056964846913850e-01
1.776731945366461507e-01
1.354106346896586932e-01
1.777035582033778260e-01
1.731900823937141398e-01
1.811145452056361349e-01
1.505759894099772123e-01
1.596180717089454304e-01
1.973076159522652862e-01
1.775773892327560388e-01
1.955657029775469125e-01
1.785584742210312437e-01
1.409781867720817372e-01
2.060552939207889178e-01
2.314871743532906923e-01
2.634159307922401272e-01
2.955709599152242517e-01
2.054227755329322003e-01
2.477523405598136552e-01
2.858097218439876741e-01
2.312269635339506690e-01
1.905710011165794027e-01
2.849343821420090572e-01
2.557476426146400583e-01
3.046663056383174251e-01
2.737167041669347212e-01
2.273515519746395208e-01
2.656130547422089760e-01
3.384098980290400349e-01
2.977602969180213055e-01
2.879095471057540601e-01
2.562268107317149379e-01
2.810854782610622271e-01
3.033755737996932655e-01
2.638240534742943288e-01
3.544672170411077294e-01
2.470777992148094626e-01
3.139744256768673969e-01
2.949123373398622183e-01
2.969396051349043053e-01
3.117326374525381527e-01
2.745350433426864689e-01
1.961662589590145722e-01
2.959188858909385655e-01
2.397335710919952789e-01
2.621951561556120636e-01
2.534998483637733724e-01
2.525900546822332227e-01
2.062617464701721470e-01
1.884557045707616341e-01
2.501972116131708224e-01
2.185839506074869765e-01
1.672231717487652758e-01
1.563153584339108115e-01
2.427008143926558670e-01
1.828092625565535256e-01
1.509526475405243429e-01
1.780949891440626043e-01
1.264727642993804246e-01
1.652469350029409645e-01
1.857799152532670084e-01
9.706564125906519402e-02
1.360043463481766801e-01
1.320576381192386239e-01
1.338285544561597651e-01
1.151945272654936597e-01
1.378527122972274255e-01
1.076521741434355584e-01
1.141313132051628293e-01
9.366808983754756901e-02
1.224853683787504866e-01
1.112153250991296805e-01
1.074379624917756737e-01
5.603625398663562851e-02
8.457185229702499085e-03
7.241426239039314150e-02
7.874940887556144964e-02
7.152273316057759789e-02
9.024607668681308703e-02
8.063253818426852071e-02
7.592097346842960337e-02
6.826619194742467034e-02
1.266678797597089179e-01
7.527068229393561044e-03
9.705003612745760622e-03
3.883309164266671165e-02
3.217636351926569938e-02
8.032413146664532655e-02
3.956808773789476097e-02
3.447759735548186488e-02
6.576231041270637345e-02
4.110918165157322057e-02
-4.367342910020645397e-03
-5.782721560095224755e-03
5.172041636502294759e-02
2.003744453052455632e-02
3.682242366044476134e-02
3.723727198238994257e-02
3.029514570779828428e-02
3.304702765497562200e-02
6.594027551679544630e-02
7.090332149519193439e-02
2.951521223437837682e-02
6.277616002847732912e-02
4.806086125938656417e-02
5.665037636204633270e-02
6.343181208278712846e-02
4.159790265940455090e-02
4.409317077890811953e-02
1.075759571577780960e-01
3.635045547080387879e-02
2.819221959338568881e-02
5.361808061307948847e-02
1.050885545394092402e-02
2.336169036869741727e-02
-1.434973859032326673e-02
3.015678223587442419e-02
-1.481780377058886794e-02
1.196512403644000785e-02
3.184717343203881390e-02
1.314320615763041669e-02
-2.573533569194997456e-02
3.681393971671956949e-02
3.995397567709529918e-02
5.200660210006158995e-02
3.345916811165756261e-02
5.295377041977887556e-02
-1.461083274929556031e-02
5.399326089150208174e-02
6.167002449405953324e-02
1.095449317659176122e-02
4.024453979303666690e-02
1.859175547229565198e-02
-1.918383425814674387e-02
7.638303691067144241e-02
2.535162089961141840e-02
4.350747807690776708e-02
4.750988145537853730e-03
2.071812675846808338e-03
6.624436467782310323e-02
5.669590871942639665e-02
6.431519117724202039e-02
1.116849816711706564e-02
2.355699454780324498e-02
6.951627155973728878e-02
1.680031596999687071e-02
2.987961811888899949e-02
8.777418646172670258e-02
-4.871592948921869837e-02
2.863016677176638894e-02
8.531695125370766797e-02
3.846735505236703601e-02
3.302148439436421862e-02
