1.489164558017072926e+00
1.460996648601888603e+00
1.473372073393850457e+00
1.338377026441752049e+00
1.282027084018012353e+00
1.173087392119247729e+00
1.048436246383579240e+00
9.339020109522526703e-01
8.358374708983041801e-01
7.027163865198242654e-01
6.282094737640497861e-01
5.691706717887083933e-01
4.680732853449030006e-01
3.790806815685864861e-01
2.944120177878639111e-01
2.612255005150078135e-01
1.967534292270429475e-01
1.941455866039539235e-01
1.703777043562917648e-01
1.259952568569554787e-01
6.230138494993435472e-02
1.134811778155523504e-01
8.248941249692702538e-02
8.942915631481390681e-02
5.793995025729332948e-02
1.247856924616480012e-01
1.084668797037099536e-01
8.155991092419263844e-02
1.420984163426748659e-01
8.413789724414097448e-02
1.454719144678705833e-01
1.118491938241203409e-01
9.873152215077277138e-02
1.778902711214835342e-01
1.205848331237265036e-01
1.036608350220387387e-01
1.427455360285756480e-01
1.557613636322305317e-01
1.075757651208731208e-01
1.753182875811223618e-01
1.267472007273647838e-01
1.148525332179358704e-01
1.748853951200666779e-01
2.155131045607635021e-01
1.633584372076646862e-01
2.552127234222124619e-01
2.135842633385269529e-01
2.902458359733141591e-01
2.618181046238374776e-01
2.464181246962425242e-01
2.469237975337360558e-01
2.178586735855187473e-01
1.946990177037019876e-01
2.128280920154749234e-01
2.817586413510857479e-01
2.296709520189693376e-01
2.346257598730392135e-01
2.999110755846917664e-01
2.790076910629865070e-01
2.464488895261140455e-01
2.366722660502332543e-01
2.398314665830350023e-01
2.869239348609947671e-01
2.888530508497413329e-01
2.238677740215437861e-01
2.497261562420350633e-01
2.708077612843656223e-01
2.776202204895800718e-01
2.637660799031509851e-01
2.361667231488000229e-01
2.332003350442707346e-01
2.301444786254469299e-01
2.317511881118600459e-01
2.002344909833317921e-01
2.269984780598412188e-01
1.691165504085088145e-01
1.867361238324660999e-01
1.816081666342808931e-01
2.018116385668696500e-01
1.792099451877291749e-01
1.990288420817451220e-01
1.923084983927750569e-01
1.995541528754156413e-01
1.428495368635828711e-01
1.528064432911884485e-01
1.141856934516305155e-01
1.633054458690636479e-01
6.206866077783534941e-02
1.437218207078849452e-01
1.459875432394325268e-01
9.313670285583743047e-02
1.350632144509915922e-01
1.226041756388387971e-01
1.443449310794482909e-01
8.012341295656298656e-02
1.130704690339820184e-01
4.516490451117649574e-02
4.102725193355261785e-02
8.389477755691242267e-02
6.266003799386350714e-02
9.031279082578506923e-02
2.696510619968247452e-02
7.507627620402967938e-02
6.079575896018338949e-02
2.391777256354125566e-02
7.298755103079355988e-02
4.984369111871235491e-02
4.026580436689684156e-02
4.634785454194875753e-02
9.207656966745188937e-04
6.631166700027722391e-03
1.165797679561517142e-02
2.370608174468508134e-02
-2.249494749321364825e-02
4.416264102486294751e-02
1.368262342786982777e-02
3.824384496750830864e-02
3.134908613402644789e-02
4.883421164622651911e-02
-5.964648596248344620e-02
1.331990952279766410e-02
-1.197149242416435493e-02
-3.188295188089144278e-02
1.151843024732640899e-02
-2.878112849057954531e-02
2.031961007621436999e-03
9.015401662093049800e-03
-8.119083972760066104e-03
6.107510494596709097e-03
4.257978611014604647e-02
-3.966120167413542119e-02
-4.211946577043335777e-02
1.584627607607571806e-03
-5.321997073472917866e-02
-5.803819272940964093e-03
1.768269287657496525e-02
-4.440690443274926402e-02
6.711500103096949832e-03
-3.418858001708118335e-03
-4.224807402774110460e-02
6.120810926511730671e-02
-1.220641264925718082e-02
6.457575388926370397e-02
-1.835789584500663318e-02
8.121162400226755729e-03
3.006567064000355283e-04
-1.027050618422756592e-02
2.880316758335650651e-02
-8.928305158186728568e-03
4.078187325002181896e-02
-1.134031579634754011e-03
2.429593830354811676e-02
9.811417970310526426e-02
4.370329866649879519e-03
6.422188643481180348e-03
4.550253293423132950e-02
3.362525473636608642e-02
1.142747183892356966e-01
5.847296011964005225e-02
1.032164232260083525e-01
1.035968618737077712e-01
9.102944862917633495e-02
1.324603720974223686e-01
7.993902386716986164e-02
1.164150787140380006e-01
6.988589948907054927e-02
1.262000050939456608e-01
7.843952638829790325e-02
1.214371019438026944e-01
1.849204038139186657e-01
7.793600225165343842e-02
8.710680775765783368e-02
1.856032711323103712e-01
9.137828307970759234e-02
1.420018553845074083e-01
1.760558745964302674e-01
1.058792202248769465e-01
8.590734820775240699e-02
1.412349968172703363e-01
1.244252200754267512e-01
8.975882507276476685e-02
4.347767656260188851e-02
8.511273419610949909e-02
1.355528732356130472e-01
1.104080538694302421e-01
6.934100865601509900e-02
7.173354832718535634e-02
9.391748225392562710e-02
7.597821959872042008e-02
6.716496950136660593e-02
1.070506638229439395e-01
1.500435725877499460e-01
1.879144890683836500e-01
2.252067644884545861e-01
2.583441349603121662e-01
3.167062184413312331e-01
3.136925833890171766e-01
5.080162950899946850e-01
5.695080626605910634e-01
5.734774852161802494e-01
7.044328798998816810e-01
8.897997919169533532e-01
9.307714738381751562e-01
1.123221507778507711e+00
1.203073228894333990e+00
1.226966941767904995e+00
1.330832075049859897e+00
1.435146598666234397e+00
1.393972031475699813e+00
1.402025511272992464e+00
1.359630457000117643e+00
1.312573003378279646e+00
1.242665410062289366e+00
1.113516276282582762e+00
1.052315023403433747e+00
1.055316567419345208e+00
9.257802330095099563e-01
7.286656637642963119e-01
5.574545915861737200e-01
4.994446109405828449e-01
4.389342220804636208e-01
3.555252927225651116e-01
2.783631612854234327e-01
2.128785490896769328e-01
1.834547136182847205e-01
9.278123198648310921e-02
7.212898872328565858e-02
1.511152766361614080e-02
6.637250414577720858e-02
9.117358375362094591e-02
5.671199866396781780e-02
1.402748677348071571e-02
2.362483826224408973e-02
-4.587849629045473443e-03
3.017663329559352320e-02
5.494750862468523317e-02
6.199039485789382964e-02
6.986851608311958617e-02
4.604714971617171471e-03
6.466559802614081642e-02
4.861970916682680638e-02
1.405804687187414692e-01
1.084837490672611593e-01
5.879895642259496541e-02
9.402059544852939266e-02
1.669185950010546593e-01
1.184153253104022752e-01
1.329970062868713332e-01
1.609556731473789359e-01
9.556438611560050256e-02
1.117992208634155799e-01
1.419569921872331220e-01
1.459520913652661567e-01
1.484036276826825040e-01
1.693511520501855272e-01
1.546938620292522271e-01
1.270954726501865306e-01
1.948948767788340752e-01
1.806978413436960140e-01
1.620088112820013970e-01
1.708966852320374652e-01
1.523862083793877664e-01
1.473848711792972166e-01
1.285902008624854598e-01
2.049027076911010270e-01
2.467643010810059712e-01
2.028427939328522334e-01
2.078491326140668172e-01
1.898392336685920667e-01
2.041380386579214889e-01
1.615604810074667275e-01
2.310077259199007083e-01
2.627669039627497094e-01
2.284821943752938511e-01
2.051103824525793984e-01
1.435152313114844980e-01
2.197764455446008514e-01
2.482225891876893298e-01
1.997890642992904420e-01
2.051232000046240567e-01
2.123979316550898833e-01
1.580013492174856538e-01
1.757251255737716233e-01
2.018844538352532192e-01
1.695403174445069272e-01
2.194555588610238861e-01
2.048460264780911921e-01
1.269702815392191875e-01
1.583480952958993271e-01
1.171462399482322697e-01
7.378170482747639647e-02
1.143535336632552912e-01
1.201121377693594172e-01
2.051777629386255797e-01
4.093316145180000282e-02
1.136119171244009962e-01
3.951690049697333118e-02
5.368880080431458202e-02
1.003481848001413351e-01
9.177061115497317512e-02
9.055767137163293901e-02
9.226488251655945438e-02
3.688902132688210572e-02
1.090784983502503247e-02
5.885066066097509319e-02
2.527292272700640274e-02
1.000841353809751866e-02
7.951066910035448076e-02
1.591825613336055045e-02
2.431829466204797618e-02
2.766817888768260264e-02
1.987551696721110567e-02
-1.563277942568697121e-02
-2.777766388949423973e-02
-7.253753269177416751e-02
-1.803404634591684527e-02
-6.129145724819965585e-02
-1.620909662068240747e-02
-5.432558744202276024e-02
-2.387742263390115957e-02
-4.422614602072259815e-02
-1.022235996486521581e-03
-1.392317500498949784e-02
-1.420957738223051908e-02
-7.030949234957373228e-02
2.119305632225020747e-02
-2.712951769218055129e-02
-2.226738665724950494e-02
-4.452332622396530659e-02
-6.741165151140297851e-02
-2.439271352581781974e-02
-9.117874821219514037e-03
-8.521028693374185781e-02
-6.811622340285659882e-02
4.425900287536720101e-03
-6.110910965857595939e-02
-8.381448478826367121e-02
-1.165241058511209266e-02
-3.450313131519161525e-02
-1.031334230421331044e-01
-6.369732917224991964e-02
-1.727383471951628516e-02
-4.701910837260590836e-02
-2.804915502021079060e-02
-2.480366456828397154e-02
1.605721416367816845e-02
-3.278965433143019720e-02
-5.851769018187661514e-02
-9.639706508236645099e-02
2.112804616842601374e-02
-4.229089684784913261e-02
-2.524599733029381579e-02
-3.451002770300015676e-02
4.612033968384919580e-02
1.165106488040530686e-02
-6.216702631793319389e-02
1.851243029792806055e-02
-1.853404336886919912e-02
-4.087463569303827204e-02
2.474902753871622424e-02
-3.481804619814377055e-02
-2.334087208012810416e-02
1.238145591467194884e-02
8.232909042754159301e-02
1.885226486316116112e-03
-1.750107949819923459e-02
2.073049769336461623e-02
4.415261133411468170e-02
1.077624367838651009e-01
6.572445476394564445e-02
1.106046839264655801e-01
9.155119895489990944e-02
8.943176910352577946e-02
1.167218861873418889e-01
9.247584958588458970e-02
1.266411739421557936e-01
1.047587717642038535e-01
4.963394166878348779e-02
1.172387825438271913e-01
7.560695757796384586e-02
1.062824748566346955e-01
1.027730051117499710e-01
1.450527456318829456e-01
1.137520751580337330e-01
1.073906344222256837e-01
6.814864267975376255e-02
4.922649566240296787e-02
1.131797984671870927e-01
1.171017018415848321e-01
3.796319195885539122e-02
1.281408406547009105e-01
6.530363965956867411e-02
-2.274544394690675847e-02
8.716014944257906294e-02
6.672897451356815668e-02
6.202806622347167842e-02
1.271078425462611738e-01
1.084403726140217850e-01
4.445451174274145378e-02
1.237501345333719138e-01
1.150462099340316402e-01
2.012727000936002653e-01
2.312618224723184679e-01
2.572847038614037296e-01
3.081290180427602166e-01
4.457597276637840222e-01
4.865580638904261068e-01
6.515662183016461828e-01
6.777112214763946207e-01
8.013087850433768811e-01
9.168289247125430697e-01
1.016111590721232583e+00
1.134090163858284539e+00
1.290829632511288905e+00
1.257846775699933195e+00
1.323581030176529394e+00
1.435380312945410131e+00
1.407760528232643971e+00
1.363146909073841506e+00
1.403346544517855010e+00
1.227460556218771925e+00
1.190023681493994401e+00
1.060701491240825023e+00
9.508704185014686949e-01
9.073798212042694100e-01
6.989882969222956932e-01
6.399465238037473913e-01
5.201104859769472011e-01
4.395760851981601047e-01
3.629228825984785467e-01
3.118809965368612436e-01
1.970755849749083188e-01
1.361400356080517127e-01
1.356175009316650248e-01
6.774968859664259879e-02
2.941103473900925913e-02
8.259262141451233219e-02
5.466510594657039701e-03
9.683834361464659091e-02
-5.798871791704289513e-03
-8.623310348971381656e-03
4.988664012321691182e-02
7.731699322221613491e-02
4.228721314291133959e-02
6.277719659666364249e-02
5.254884339173507279e-02
6.833826377082342918e-02
5.403851157209151046e-02
3.793278250449924616e-02
2.246851521867451740e-02
9.004420270497122403e-02
9.806839783812279498e-02
7.681253096759738108e-02
6.039811246898590946e-02
3.692909800561201827e-02
6.321904904616233722e-02
1.124686985058128835e-01
1.074628185386850010e-01
1.909639355086145129e-01
1.136526267856590444e-01
1.165017347567375711e-01
1.676083455744471207e-01
1.477327784005731948e-01
1.662744505943057893e-01
1.211158259780449886e-01
1.409063083063278876e-01
1.547275495719334648e-01
1.533662540103533645e-01
1.691911942795731316e-01
1.896897544591392426e-01
2.353916963531205997e-01
1.732588617971999867e-01
1.587964769031369461e-01
1.393473213709535974e-01
1.466649836562375353e-01
2.258279487779071004e-01
1.872697069056804831e-01
2.210575247838825197e-01
1.861359513901126306e-01
2.057330722999751726e-01
2.577865619872412029e-01
2.161660015929794953e-01
1.738453534278363855e-01
1.790477046643882131e-01
1.877622240968463696e-01
2.063333304313849925e-01
2.488656565751203864e-01
2.280253683299405254e-01
1.826895854532522567e-01
2.048265318281246583e-01
1.878710831772781864e-01
1.989562617376020304e-01
1.853055216147297124e-01
9.089036797738292428e-02
1.918594230315220917e-01
1.735902706280354479e-01
1.823998635715522454e-01
2.124656560588705223e-01
1.238172291133272235e-01
1.136142870201002908e-01
1.242973531902841905e-01
1.350023687456472776e-01
1.467692789155071176e-01
8.909054800884629033e-02
1.021199655631499642e-01
1.176220700482711323e-01
5.919093424498810679e-02
2.847370783963347474e-02
1.064533701642997043e-01
1.072087067041398445e-01
9.719601266588738520e-02
6.670643329785712339e-02
2.498321670976219600e-02
4.760787400089318278e-02
4.594747431682055794e-02
-7.511348339520308726e-03
-1.690447063642216280e-02
1.229372255612419529e-03
5.228124359979664793e-02
2.254116518458201823e-02
1.078085267905987132e-02
1.757487889157995781e-02
3.260556644505019364e-02
6.517626511687857338e-03
2.731512094438756644e-02
1.603014421363775643e-02
-1.687164501512395526e-02
8.743733548523029142e-03
-5.468792747163502693e-02
5.499811675482302320e-04
-2.619464387073888040e-02
-1.581730134349589381e-02
-5.466149118822476172e-02
-7.895554645099385482e-02
-4.247918391993719262e-02
-2.072854709922827832e-03
-5.857647955224096203e-02
1.140478142403973660e-02
-9.200833498625107798e-02
-3.830813888295372255e-02
-3.119695265797656561e-02
-3.138147932221641706e-02
-3.756970059471904239e-02
-2.485661629237186435e-02
-4.304865470900279267e-02
-3.346239499811840684e-02
1.859322064556379051e-02
-5.630210184700083775e-02
2.264891009383411535e-02
-4.570936027703863952e-02
1.386559478792327715e-03
4.065421426542238648e-03
5.422074734921428218e-03
-3.723222605801929791e-02
2.101204248209582320e-02
-6.481161306484885254e-02
4.219004680094429888e-02
1.676652421699224849e-03
2.395239742195529736e-02
-6.100239684457869210e-02
1.070237003876135795e-02
-3.199578099522341901e-02
2.291452171266476767e-02
3.304358250255615137e-03
-1.045615717377124457e-02
5.526795021641695699e-02
-7.121568899226826677e-04
-9.618101393225338136e-03
4.050284127916430749e-02
-7.979860526983149904e-03
4.456256056596195891e-02
4.595451421513671586e-02
8.645010727244670234e-02
3.243117389992570404e-02
8.587173400463837813e-02
4.962954714820361907e-02
6.753000592499566745e-02
9.302299407463898717e-02
4.403690808582874650e-02
1.244671320156043454e-01
8.142626969643686208e-02
1.178579257432326721e-01
1.361861425720667096e-01
9.584623229211822193e-02
1.156977614210843441e-01
1.350796299701959302e-01
9.968091648681932926e-02
1.077528908146527936e-01
1.228533991056662833e-01
1.211751239072075687e-01
1.112186716340312215e-01
7.977730407971252158e-02
1.150761257493219253e-01
1.362731451729897736e-01
1.225005461402800255e-01
8.174562840364836547e-02
7.485368808459767764e-02
1.035910515999341197e-01
8.044080348309425033e-02
1.091215428070554383e-01
9.366919855955846419e-02
8.020090240574830054e-02
6.710426056386310789e-02
7.559290814838277861e-02
1.322545523293549852e-01
1.134537959448553707e-01
1.147393032462081797e-01
6.842242450576903334e-02
1.282751895216684423e-01
1.586241730122177618e-01
2.401410688336855503e-01
2.724834652594630979e-01
2.913153713408514478e-01
3.716582096857528605e-01
5.126820841228435510e-01
5.788125577149070278e-01
7.144300252513913208e-01
7.650364203048309886e-01
8.908196956658798182e-01
1.063115686025899898e+00
1.113384687116341976e+00
1.231016468533678854e+00
1.297193819380066282e+00
1.382361530643608782e+00
1.427682939432724396e+00
1.402140881372542225e+00
1.437120615275223612e+00
1.378601203460039892e+00
1.273033687435439099e+00
1.280528770615411815e+00
1.156049514753006324e+00
1.076533464138883511e+00
9.364109475600902455e-01
7.914435273654047975e-01
6.623876341490652075e-01
5.982860605389751507e-01
4.804196260736904311e-01
3.993523320692030087e-01
4.138163094694002342e-01
2.929836431413920805e-01
1.607118631478983151e-01
1.714442611325255883e-01
1.126299373028768203e-01
6.026944331131046939e-02
1.190061187646810209e-01
8.165090303987262987e-02
5.710872103885288043e-02
8.386708822021986254e-02
4.806899836279129867e-02
1.916263447729950678e-02
5.921842657514452685e-02
6.784726620638287242e-02
4.442842078624679308e-02
5.784926028472283516e-02
7.588961489599825583e-02
1.090301895644284480e-01
8.106439866842302111e-02
3.235306994744517606e-02
1.031193688518784735e-01
1.291033328156807602e-01
1.638346190776515665e-01
1.220313471824091001e-01
1.173831990499914074e-01
1.491787536029244854e-01
1.590305105039774847e-01
1.402219182968212352e-01
1.249567574955168792e-01
1.211276090175341796e-01
1.309383369192077262e-01
1.734449161163392761e-01
1.924900475724161952e-01
2.235999814114926765e-01
1.450935669395861938e-01
1.870154163307660711e-01
2.347592702262439324e-01
1.991043093864791891e-01
2.525219957998535159e-01
2.064196923344499834e-01
1.689856825132656504e-01
2.046609421638254100e-01
2.016071376508983271e-01
2.639513846091233185e-01
2.933045222570312416e-01
2.303097852867466433e-01
2.759352608118691430e-01
2.868134224661513798e-01
2.668553610799349607e-01
2.694112527494754161e-01
2.328497073153112384e-01
2.645987114511230698e-01
2.396092510664059594e-01
2.724903267204490942e-01
1.954087172520651283e-01
2.255728760057543747e-01
2.184792601637192688e-01
2.252547514731959299e-01
2.085957519688963757e-01
2.647661180638202216e-01
2.247122997185964366e-01
2.594818485616764980e-01
1.782041024826988840e-01
2.523865249729121962e-01
2.327906988786050679e-01
1.605130907874331436e-01
1.917601096844216146e-01
1.332897279867222284e-01
1.561454922144669966e-01
1.820028657723242738e-01
1.167394169305665252e-01
2.017496243770884601e-01
1.507201775993985138e-01
1.062531352013250802e-01
1.411420041409770787e-01
1.471780524801164225e-01
1.006712047636034862e-01
6.906283436711384283e-02
1.233256821236095591e-01
1.003724999916251331e-01
3.310495140486147819e-02
7.992629519708124852e-02
6.296994487279777841e-02
9.147547533715050250e-02
4.497719904908616811e-02
7.087615135289203339e-02
8.165573745889273538e-02
6.167181838748004435e-02
6.649489404055972108e-02
1.843149890314872696e-02
8.535688932178916999e-02
6.287712832457757750e-02
3.870856303107940433e-02
9.608176857528932802e-02
8.884603906523538819e-02
2.300352043705577651e-02
3.142317337660232440e-02
-5.429388125313074076e-02
3.112643374318635123e-02
-1.117682526944081996e-02
-1.865216645247790364e-02
5.001299322328541658e-02
1.761714311591044968e-02
3.531253372127919621e-02
8.513708014156667891e-02
2.406640047612151195e-02
1.679668508185276632e-02
3.212623398053263135e-02
4.959648784989896531e-02
9.471296492704175951e-02
4.528805295657948454e-02
4.441277879148516905e-02
2.145690047426614469e-02
4.580224033511873932e-02
-3.129394555462453736e-02
-1.126302257490579065e-02
8.909885337304277592e-03
-9.302130695105581201e-03
3.089409871777245437e-02
2.527178597959717568e-02
2.697060908416583705e-02
1.350799413668976254e-02
6.780113736070896013e-03
2.395571409586590844e-02
-2.837008093705276762e-02
-1.294196928947312364e-02
2.407105806740932746e-02
2.151999924638254777e-02
-8.117382672410185934e-03
1.566171698958925343e-03
4.426846769018043248e-02
4.908021440202554875e-02
4.520996111636982340e-02
5.735715020339265252e-02
4.471491920514579499e-02
3.369836459085959190e-02
1.099677401593261578e-01
8.877120287016070088e-02
7.226111215180422431e-02
1.051036423038943374e-01
8.013281731459286072e-02
7.939274465660905999e-02
8.452430920855374952e-02
1.783877984807285821e-01
1.250641911337199708e-01
1.480765932228167159e-01
1.262636306438474076e-01
1.586729963179760172e-01
1.162844742886643690e-01
9.201401847008520984e-02
1.473123078762270388e-01
1.711012199583913929e-01
1.794382799041592258e-01
1.210427301272609946e-01
9.282701360333484031e-02
1.822689165784774357e-01
1.664582773473501920e-01
1.842156626479659887e-01
2.028209953580194236e-01
1.532793268070353765e-01
1.495402689076740788e-01
1.447439197546034062e-01
2.135259766102244328e-01
1.610763266855247677e-01
1.770584531484897250e-01
1.917621916002125726e-01
2.028739619398425564e-01
9.082863912801950046e-02
1.238423895413828663e-01
1.135935799804625168e-01
1.777034326561725275e-01
1.631261329762059842e-01
9.769819486267794506e-02
1.237306318519171278e-01
1.865198669750722515e-01
1.009232365346025978e-01
1.904528489471821184e-01
1.573526764886946927e-01
2.283795123125464954e-01
1.986952299509614217e-01
1.407133634449672932e-01
3.405181359055030055e-01
3.525217443833811304e-01
4.243743566006195622e-01
5.010903920616329721e-01
6.196495099802012962e-01
6.983493839851221407e-01
7.741785178546420898e-01
9.440340105416804573e-01
1.017304041966899941e+00
1.099557631075202657e+00
1.251245491388518705e+00
1.353265096477640927e+00
1.353151293404385891e+00
1.483490464345226689e+00
1.461494437026738202e+00
1.447808237404782261e+00
1.435156359174214469e+00
1.393055003091743904e+00
1.382336900499375965e+00
1.267726712623755692e+00
1.159848496394201067e+00
9.979220027460832254e-01
9.525673981528236522e-01
8.311586522200782312e-01
6.988057506488501991e-01
6.011202365809954484e-01
5.003299623937530471e-01
4.006659409665730420e-01
3.671497794461568986e-01
3.079308923256767749e-01
2.897043056873333522e-01
1.694263814569814119e-01
1.342257010584397836e-01
1.011458661458321528e-01
1.668363414566797764e-01
9.855857095611184060e-02
1.164867777410922706e-01
8.639934463021445299e-02
1.259472368341755244e-01
1.036900024034483891e-01
1.387595588964434523e-01
9.444007948545582454e-02
1.399022194100750516e-01
8.881032712344588687e-02
1.041710302481844708e-01
1.422140374785826333e-01
1.101411973688279089e-01
1.350900683653752932e-01
1.334540884281339435e-01
1.867148036683552448e-01
1.612624829563230333e-01
1.547263926019711577e-01
1.618422860777597450e-01
1.949044401328972331e-01
1.566381908722570548e-01
1.801583303973446348e-01
1.744652390035955347e-01
2.207947465878270787e-01
2.371864733420858962e-01
2.039774308021365390e-01
2.319315807937040175e-01
2.032055940556221074e-01
2.723594313720514304e-01
2.259409395795851649e-01
1.936555797230709031e-01
2.434091503098716747e-01
2.085100370089590927e-01
2.314155111536186360e-01
2.763312460586753172e-01
2.315250039198131493e-01
2.668467988849322348e-01
2.514125456862319474e-01
2.857871222415209189e-01
2.828066792247296846e-01
2.943778832121650701e-01
2.716205606259092242e-01
2.739273162689644381e-01
2.786811197205293356e-01
3.102035837999528312e-01
3.011651300581330015e-01
3.146138185225137995e-01
3.022635132260701463e-01
3.079558419490380228e-01
3.064367347306440892e-01
2.362652093668228814e-01
3.267544649672318169e-01
2.971654051145224962e-01
3.076251021827809407e-01
2.598980896531535301e-01
2.353600233720675450e-01
2.411531190099919786e-01
2.375867688181887705e-01
2.563397963292435300e-01
2.458838856528141603e-01
2.324721230074242584e-01
1.818110150106723444e-01
2.084891035880613308e-01
1.807552438363351499e-01
1.957250499959441170e-01
1.426132947055205880e-01
2.358848745549178005e-01
1.536311411646392455e-01
1.904341038269436737e-01
2.043316862219911323e-01
1.695470378666564804e-01
1.422198144267367570e-01
1.664518027919454912e-01
1.343897058881617923e-01
1.003579888683106963e-01
1.272369540508007657e-01
2.151189066493757740e-01
8.544653416037054083e-02
1.158015415997808162e-01
1.046616829855751968e-01
6.367253998792765657e-02
1.321593839227707956e-01
1.544030726316404367e-01
1.421412980561066464e-01
1.313009428708222792e-01
5.735096065250720743e-02
9.889577970682575381e-02
4.212440267989663034e-02
7.310551846784532626e-02
5.976601901516802318e-02
6.082960239449162337e-02
6.492484773215237426e-02
1.134657244593362813e-01
6.552926823841638548e-02
7.685951319424258465e-02
7.702424130495000298e-02
5.678236833259138472e-02
4.051842636928257302e-02
4.705235161035780517e-02
7.264609780130264205e-02
7.759109553861547048e-02
6.018279020577342597e-02
2.964809019053713662e-02
8.788863157320742081e-02
1.283008955062735490e-01
6.167124298522596443e-02
-2.388282836650677809e-03
2.211978635337897431e-02
2.140828611829112896e-02
4.442544362108830774e-02
1.080225407716317448e-01
4.074190851130576191e-02
3.752956103184197645e-02
8.337671978125962835e-02
4.625242989398987981e-02
1.222214844356221686e-01
1.272737872573880824e-01
8.928926513679646959e-02
1.030607638146996269e-01
8.424467767905874371e-02
1.091155686103532085e-01
1.468039581085142653e-01
8.406577362922916519e-02
5.101821601453773725e-02
1.361730189234690580e-01
8.398520537832188104e-02
9.325226915161513586e-02
7.503371127737282209e-02
1.200732855336361232e-01
1.104292848268033922e-01
1.695295731503663750e-01
8.778968976549111902e-02
1.150276494802397464e-01
6.985705166239863928e-02
1.405899644432620221e-01
1.255854333954634638e-01
1.094071912972937460e-01
1.340929380471127530e-01
2.069375370863565933e-01
1.371289516670703978e-01
1.693855159370253050e-01
1.744050847314289054e-01
1.944403559267625092e-01
1.789319365843120013e-01
2.035118160908505058e-01
1.279324825631922291e-01
2.062786234030728194e-01
2.212309260537148603e-01
1.747341720525570630e-01
2.155505609472811168e-01
2.416424237674769104e-01
1.725097809773462609e-01
2.404178603558027316e-01
1.926510478195826714e-01
2.055388389991886777e-01
1.988373905160958910e-01
1.909200261346989391e-01
1.286323956417870784e-01
1.831337163298711879e-01
1.488536149711677248e-01
1.554288266716273292e-01
2.179023527970021246e-01
2.045239089325630588e-01
2.016206532524808248e-01
1.472125781013778612e-01
1.771558627619463921e-01
1.679455074925967351e-01
1.132833540450454979e-01
1.512398554226161707e-01
2.161187915872447018e-01
1.881954739309795455e-01
1.838966749175336979e-01
2.110164053336641421e-01
2.252759681608063891e-01
3.109115071536477926e-01
3.783025716338920263e-01
3.690407875826429152e-01
4.670446384883073510e-01
5.466228549465028674e-01
6.674452962843523407e-01
7.962796501754150214e-01
9.318701172065781968e-01
9.949524938378280225e-01
1.163504030193351690e+00
1.243781402519834600e+00
1.400361750443081643e+00
1.387259228841060565e+00
1.452325818903080101e+00
1.462006552266632786e+00
1.513618627188192400e+00
1.484364009452220579e+00
1.444766361985320824e+00
1.370121140146551619e+00
1.328848037324239062e+00
1.129662341782611268e+00
1.067579015773161721e+00
9.942867878908004942e-01
9.033367504345879428e-01
7.474846567364041849e-01
6.614567416594943072e-01
5.519851250337043380e-01
4.670942435897391665e-01
4.120010985943072801e-01
3.659346138890683942e-01
2.847339616882380020e-01
1.639761949904463834e-01
1.561535046335339461e-01
1.226909801787671866e-01
1.527342513781052014e-01
1.044811751336319761e-01
1.468538400444478198e-01
1.041945146172574138e-01
1.003624138926528242e-01
1.282367730805720196e-01
1.551591413456559765e-01
8.651248547230933061e-02
1.060798929548079084e-01
8.215908863002321927e-02
1.423526707503345312e-01
1.135532291813503014e-01
1.290129033354379673e-01
1.987384298077822242e-01
1.348039847571540217e-01
2.074851973120608040e-01
1.903079463374537927e-01
1.428222290618146317e-01
1.972102441036250320e-01
2.179999537749799376e-01
1.405530697104040161e-01
1.312073123832221966e-01
1.603147930697083057e-01
2.087714358348426724e-01
2.214185212240508127e-01
2.041970555126092768e-01
2.325703524868010241e-01
2.277867451576733870e-01
2.184677495057281149e-01
2.430572909961586925e-01
2.567375522299041868e-01
2.494037960970845180e-01
2.855834852698032056e-01
3.104308551775769587e-01
2.343268860006366416e-01
2.778320916761192749e-01
2.858997151685530036e-01
2.958664505902151576e-01
2.807104803990034259e-01
2.915990348158908896e-01
3.213993033897398766e-01
2.314023374646585751e-01
2.378009556590251483e-01
2.962732001437813345e-01
3.203986569960518005e-01
2.926645624942738610e-01
3.068561377013273028e-01
2.596864679713549173e-01
2.922290405377253597e-01
3.348557159571067254e-01
2.633300540547153790e-01
2.839246469904582737e-01
2.972364872473924891e-01
2.405945674077626661e-01
2.369462423997340250e-01
2.422909300563067803e-01
3.021289654055555052e-01
2.219264296589607555e-01
2.633219056334070718e-01
2.652075207837589765e-01
2.384591647372444612e-01
1.834159397953959159e-01
2.523890579357288555e-01
2.205800655705686397e-01
2.208386080769033089e-01
1.609821585250213738e-01
2.093809999672391065e-01
2.183914895482653995e-01
2.237499941113134105e-01
1.998721603653775825e-01
1.882317658352475331e-01
1.658600297729329043e-01
1.536505909412901327e-01
1.277352119328493407e-01
1.584590962371813516e-01
1.298355044126575653e-01
1.520639826810713247e-01
1.147790717160045160e-01
1.182461790589531270e-01
1.196580573599013153e-01
7.095373467201299134e-02
9.690491521460460611e-02
1.405264553272600747e-01
1.148698719475831631e-01
9.172494022961485971e-02
7.721209494702781229e-02
1.098646773861867432e-01
3.774198915731097337e-02
4.855424179266411983e-02
1.423124016642766387e-01
5.219767828732839454e-02
7.170974271893552909e-02
7.752988043317304845e-02
6.078246767242916071e-02
7.152357557027963497e-02
-8.091903068603127636e-03
8.452182097894160584e-02
6.850167315319083405e-02
7.838382917142783235e-02
4.207068780406331837e-02
3.637268702144495769e-02
6.270574109012938546e-02
4.104430779854657124e-02
3.006173499374133889e-02
3.795594174319849579e-02
2.399526391772835096e-02
3.078158737631285155e-02
1.542384773446006663e-02
5.563745705286570614e-02
1.763940069028854807e-02
1.073088709793872664e-01
4.168822008024240799e-02
-6.555451000327658373e-03
2.482277537505632112e-02
3.334475818578841455e-02
3.781295412532836853e-02
5.442625772240918675e-02
5.573496549815922657e-02
6.215320670405964643e-02
1.818383707723409543e-02
8.550793419134693207e-03
2.842692359814596656e-02
1.819123155159177441e-02
7.108666762771553849e-02
3.594631965456150657e-02
4.757546517677415515e-02
4.826496153427845687e-02
3.400967660430218725e-02
9.953254896873259261e-02
9.350640340479053625e-02
1.293750781407362882e-01
9.683832401603340023e-02
1.114530840193280470e-01
1.143003948766511679e-01
1.287280004292606639e-01
1.573160893933008009e-01
1.103333896502534661e-01
1.477665876817668700e-01
1.124291937361381610e-01
1.271060296644727083e-01
1.384885098722751784e-01
1.585743440302382901e-01
1.122063275686407680e-01
1.276234582767258596e-01
1.543372202953408601e-01
1.844765641156494440e-01
1.718155872926618033e-01
1.680130708450577881e-01
1.445205575361474537e-01
1.771232079159713590e-01
2.004916617270816881e-01
1.908587837274134946e-01
1.928951438574270094e-01
1.722833673919840214e-01
2.142791909480468437e-01
1.101513707711887641e-01
1.884856401669403048e-01
2.091991160219069390e-01
1.187835827697953373e-01
1.624779466631801617e-01
1.404475177520843610e-01
8.287663910294833236e-02
1.739392788539129708e-01
1.056594115184160965e-01
1.483546464336640558e-01
1.079585603281693895e-01
7.642623208606352803e-02
1.725489868728722620e-01
1.231072936562925685e-01
1.636531522205328659e-01
1.365451323435941111e-01
1.665585709471658626e-01
2.663307354616756273e-01
2.063793685521151389e-01
2.605741324358215594e-01
2.773895071517266109e-01
3.518889134225160475e-01
4.321763860717208749e-01
4.884500312598509808e-01
6.188286652358807594e-01
7.137396842729806234e-01
8.093296256308538661e-01
9.702811215301105907e-01
1.047276467133134492e+00
1.187227459086385828e+00
1.292449295109698859e+00
1.321683917295234600e+00
1.317408116677403429e+00
1.461114835136825718e+00
1.471610721097058816e+00
1.440516834860158468e+00
1.452193501677334853e+00
1.369839851867557634e+00
1.285655299643011062e+00
1.177385765751068458e+00
1.153761662274055633e+00
9.986871749947910937e-01
9.109014338368953689e-01
7.966471928561628113e-01
6.737542324151387652e-01
5.877306419772646562e-01
4.633816991403100771e-01
4.185171649698287699e-01
3.332396124740674703e-01
2.883929032157415695e-01
2.436336138177627175e-01
2.227941536786784416e-01
1.070045386637486912e-01
1.244340935723433073e-01
9.025441640130525689e-02
9.088751373492433283e-02
5.392256245020377731e-02
9.242527521113529099e-02
1.230701863751907238e-01
1.151643323069448249e-01
5.257662883805177406e-02
6.718306297978651753e-02
7.305073500413378218e-02
9.420863864256610876e-02
1.270389857261370326e-01
9.489260989436235083e-02
1.663141684521798058e-01
1.044948465072525617e-01
1.660534081168324738e-01
1.173384760701983998e-01
1.212924757999080394e-01
1.554481716699739058e-01
1.324975937208195675e-01
1.713990977461238852e-01
1.288007442946869363e-01
1.821213487975805734e-01
1.964583539952192148e-01
1.754205292779923153e-01
1.958556298123894646e-01
2.259708717269838518e-01
1.829870555918648167e-01
2.296415092141973480e-01
2.143578536318306027e-01
1.948443633685354448e-01
2.234155860272120653e-01
2.311688430351011292e-01
2.177755790159962013e-01
2.362188077832841626e-01
2.624521081887174478e-01
2.354736603472466494e-01
2.517762803574477015e-01
2.479309676570340126e-01
2.062448462749052192e-01
2.424093689452819500e-01
2.203465799333488573e-01
1.980021290854138138e-01
2.556110930244746560e-01
1.996525981772880598e-01
2.318719982159449522e-01
2.179222859280737223e-01
2.682170151529607027e-01
2.181280736714064639e-01
2.327286367451026072e-01
1.886766663398233568e-01
2.336296389813407315e-01
2.183390503226345924e-01
2.092260983658453255e-01
2.195781572436663054e-01
1.966006318218667392e-01
2.712608316562472588e-01
2.142603353482504525e-01
2.525687019864447658e-01
1.863487447370101580e-01
1.716827568096584156e-01
1.993946586216264749e-01
1.770222479937317572e-01
1.683191772006623899e-01
1.567836653361189547e-01
1.388625140849925887e-01
1.774445803465169724e-01
1.043257065880531242e-01
1.134140079563890902e-01
1.233354751837329039e-01
1.436740673927860701e-01
1.072449431900111827e-01
8.730832444082814447e-02
1.071714240942321233e-01
1.150664881934885669e-01
1.014562636048045169e-01
1.456064438504500458e-01
9.435331112402586817e-02
8.047063161315295976e-02
8.748246240721054001e-02
1.354710075057793117e-01
1.074972005377578810e-01
4.475487085945327459e-02
6.885763269250068375e-02
8.984280492310360577e-02
8.419599551151766420e-03
2.139398457806028150e-02
-5.376481056741410844e-03
4.599697563151690372e-02
7.635317698339010029e-02
-3.447058402259718657e-02
-1.508026825124257099e-02
8.011041285954911828e-02
-4.166836656702806868e-03
4.776946494696783507e-02
7.165479866600943382e-02
-3.578721578808734954e-02
9.581501655188401009e-03
7.724236534086647080e-03
-1.025662657336222708e-02
-9.870210618233392352e-04
1.046648560414810587e-02
-5.262561906121363507e-03
1.713218662114136467e-02
7.817970811656218405e-04
-3.324432172602022340e-02
-5.024326687954203119e-02
-7.784689967207769623e-03
-3.346839455836424920e-02
1.768927399202337852e-02
1.116120057551970440e-02
-6.520996876416808308e-02
2.270687892321311338e-02
2.202157195073655566e-02
8.802938576008010121e-03
1.382854849762882657e-02
1.680122141344611228e-02
-3.344967288418333393e-03
7.759377884603857467e-02
4.141723385970666471e-02
-2.706499905471376755e-02
-6.829499178460031461e-02
2.559464219500905136e-02
3.934495404229158139e-02
4.956287540064744507e-02
9.879267661966943670e-03
3.700488405123896624e-02
7.132313270478740641e-02
4.201169762739901531e-02
2.340418224745767495e-02
5.241518257470139525e-02
5.380988833562706797e-02
1.351002599177099639e-01
2.556882300523523679e-02
7.821351989972046004e-02
6.799792976192441107e-02
1.287593362024179455e-01
6.584551655191477060e-02
9.455927410839455594e-02
7.970411446919645204e-02
8.696812875370493745e-02
9.357372859845639046e-02
1.316081324862822255e-01
9.178345909934695901e-02
1.051432234930441967e-01
9.107019456035066185e-02
1.365794207882530253e-01
1.175072601769734104e-01
1.097750135787993325e-01
9.439160892773694467e-02
1.228847029242531030e-01
8.907981906338546807e-02
1.334162708347920723e-01
1.200136005309296455e-01
1.858721500021687512e-01
2.040444047631030933e-01
9.770757214696965121e-02
9.806438719805730952e-02
1.346109822480765217e-01
9.597526085667891504e-02
1.161047985896380974e-01
1.176274472857897074e-01
1.292427772314105605e-01
2.402915785112687275e-02
2.391077642168068507e-02
4.373735479895339562e-02
6.059885704681647334e-03
8.880020497182093686e-02
9.024118930153542106e-02
5.767449621857416442e-02
7.466437431850177220e-02
9.877915337938379670e-02
7.148455823867942704e-02
1.471572875587305596e-01
1.840178207659677878e-01
2.279292763969865687e-01
2.972312953432981741e-01
3.427324179688281958e-01
4.529585337048256388e-01
4.978577327135037534e-01
5.569400882517806517e-01
7.013579682533588322e-01
8.335641002481757322e-01
9.522923656991687524e-01
1.097721661356950040e+00
1.223724119471246263e+00
1.268570571955895065e+00
1.365221679259369880e+00
1.426894751107016468e+00
1.398383730662341673e+00
1.446753232378600984e+00
1.386913014686746770e+00
1.387893044243544205e+00
1.306530070688472156e+00
1.148618834529811394e+00
1.088871624301276597e+00
9.825304506530896376e-01
9.014172747159371335e-01
7.510601153135832986e-01
7.115251035679145408e-01
5.538017305596698581e-01
3.911835929351167862e-01
3.634397077891816097e-01
2.849595816359852818e-01
2.183648631577439214e-01
2.222408062790006134e-01
1.499142580176629491e-01
1.301922453241017852e-01
6.149956442451596367e-02
8.959974952546759241e-02
5.568959069278798385e-02
6.425291916615064047e-02
5.280702874933729946e-02
4.478172628549086098e-02
5.408402215508659877e-02
5.664138255305807557e-02
4.690722876097195432e-02
3.150940245660566186e-02
9.335184080191569200e-02
5.639240491134298733e-02
3.321148151415954930e-02
8.309074779438430092e-02
3.113740812742329250e-02
3.716196220445202453e-02
6.239582281944636849e-02
6.890683762367000309e-02
8.585538004781030630e-02
8.376505672998524332e-02
7.874448016436666475e-02
1.667969761412455287e-01
1.118102821898982469e-01
1.480201083596834888e-01
1.410328970139441418e-01
1.547435295869882543e-01
1.992963277278387013e-01
1.422354490366474211e-01
1.645198345419918995e-01
1.852551111296412145e-01
1.704838385332803075e-01
2.347466362244799987e-01
1.582621916165355691e-01
2.057295794227844699e-01
1.504349408095986829e-01
2.028673923562150927e-01
1.760388217600206140e-01
1.785088893585877468e-01
2.434567128560769789e-01
2.269023391428497127e-01
2.337394412197619231e-01
2.166144979771336132e-01
1.671400862998067838e-01
2.351219929889442062e-01
1.989008298270893427e-01
1.747172465117284579e-01
1.791820621656448898e-01
1.820783431849621048e-01
2.596484093194886267e-01
2.126377060927542306e-01
2.138296602016107051e-01
1.861576279113693611e-01
2.009730023319291903e-01
2.520240202848224031e-01
1.374963734675044014e-01
1.867775212386498240e-01
1.794701524408928994e-01
1.680578550734139753e-01
1.931806014520357495e-01
1.411349363407438939e-01
1.692819223699338071e-01
1.602234222446149714e-01
1.459478970686320654e-01
6.419678733042402663e-02
1.827687686495610697e-01
1.177960984340350598e-01
1.328670804179081233e-01
6.394225128240445255e-02
6.320946211669176140e-02
4.066975168596134727e-02
8.731651403972590098e-02
-1.032229242121966012e-02
6.350936038085031043e-02
6.741105106786982049e-02
8.806788149888777895e-02
7.092528491539955293e-02
4.309537571736143935e-02
6.657449459784961499e-02
5.103256966495268998e-02
1.546613559643826574e-03
5.845343222532806832e-02
8.079147309303438829e-04
6.625549197599475693e-02
6.276422816891667755e-02
-2.443947389563700529e-02
1.201626864731443478e-02
1.951827262535914265e-02
1.499399336900744673e-02
-2.173896253931510009e-02
2.966022800584285080e-03
1.156719947540488236e-02
-6.153880162676118870e-02
1.511060353187585609e-02
-4.633850098320650701e-02
-5.534296958897751140e-02
-1.044559479110134664e-02
9.245216447155688022e-03
-7.988499956454152284e-02
-3.694484698184738458e-02
-2.525443463729522275e-03
-3.874621436404467045e-02
-3.623050104228144053e-02
-3.867368973497732620e-02
-2.771836213599804255e-02
4.692475833560222354e-03
-4.480077269023561432e-02
-3.019704579577118728e-02
-3.393105506227521440e-02
-5.466896141051107161e-03
-1.176386902134004542e-01
-3.979998839802444816e-02
1.213625437698646198e-02
-6.991968486136647398e-02
-7.745863277265188640e-02
1.823594801512604113e-02
1.869756602609592283e-02
-1.083197289639349636e-02
-5.103968713663153273e-02
-5.487234672483860126e-02
-3.306530145501473950e-02
-3.529761291708980592e-02
-6.914612978448893277e-02
-6.360303388431026717e-02
-2.848555303319806262e-02
-4.366700315650962755e-02
-5.984516901328784666e-02
-5.395427228848136136e-02
-6.212565102249086035e-02
4.613739261682334170e-02
-5.065996173319534113e-02
-1.139307251713463781e-02
-3.517107043518223619e-02
3.306706682415615911e-02
-1.438018460657074921e-02
-4.692933657792192070e-03
5.957987791319400289e-02
1.025929565820277861e-02
4.784417959396275455e-02
5.104098760079270325e-02
7.154640491820632442e-02
3.094595821396996238e-02
7.120856812079562337e-02
2.292123964189010654e-02
1.786929399539323449e-02
2.236677258508820709e-02
3.363587316415885681e-02
7.808521907116663940e-02
1.063897162272957192e-01
6.522681396541417376e-02
1.132179770173628863e-01
1.074609914190502585e-01
9.609741393243101393e-02
5.765051684194152926e-02
7.522596905781543664e-02
1.192444641508267067e-01
6.700567442887886416e-02
9.001852117525174779e-02
1.004239802385404057e-01
5.153064372385626757e-02
5.084242821955856084e-02
6.382070623678678944e-02
7.428316047087263341e-02
5.026158161638315247e-02
7.538788057559694944e-02
9.107675506957232936e-02
4.970400461592165003e-02
8.677626483402196833e-02
5.864446422712470131e-02
8.277336983294204809e-02
1.321063759967198159e-01
8.776842242457416621e-02
1.385828834926298991e-01
5.729484626840783412e-02
9.703017143534223288e-02
1.349245581114743020e-01
2.264901715453648823e-01
2.288354829943924917e-01
3.599616253437502023e-01
3.998382686656913876e-01
4.713485864453706986e-01
6.266625608221187971e-01
6.903703025652251357e-01
7.765456665678207582e-01
9.356505426510821621e-01
9.836732212315560941e-01
1.105350537083113371e+00
1.202164548720571879e+00
1.310586594760238643e+00
1.328290323861376798e+00
1.398078912406918617e+00
1.365473959844385687e+00
1.344502886929251240e+00
1.340522103573445811e+00
1.285023325756545542e+00
1.230681919066785923e+00
1.127173787491071444e+00
1.069645364208283045e+00
9.595506035956037350e-01
7.723036195180602581e-01
6.364131598591903360e-01
6.024433106476113631e-01
4.364141047680626384e-01
3.721574616895108045e-01
2.819547077725760298e-01
2.456814994102022032e-01
1.934905559381681350e-01
1.609140335565697744e-01
5.965617815285641223e-02
4.386908773332512390e-02
2.912491982966299020e-02
3.049674708021197361e-02
-3.887233029380300631e-02
2.204780269518599040e-02
1.572299678107721976e-02
1.182506821876804642e-02
1.696905990917797757e-02
1.512749368489518798e-02
-1.848282217828872698e-02
3.266794053152864002e-02
1.774242165041321762e-02
5.033483391550101077e-02
5.763448937904669389e-02
5.893122581686123518e-02
7.239499824624467950e-02
6.000275832742157228e-02
1.172818132612869768e-02
3.597903616248736974e-02
7.381991124255597725e-02
2.437834207707200579e-02
1.082278136407914954e-01
1.141354212739900675e-01
1.339251733214657791e-01
1.505551173890330996e-01
1.287110418495059916e-01
9.484075619378518063e-02
1.124256480977024464e-01
2.134183910292528630e-01
1.406982584554554716e-01
1.382973673616227916e-01
1.638378611473105262e-01
1.696222979212355930e-01
2.254114386233614653e-01
2.153247266394916759e-01
1.338719635702090571e-01
1.767227929440190470e-01
1.910976172048487742e-01
1.466427722626195695e-01
2.016842440770788003e-01
1.762149510103511174e-01
2.284942123679219450e-01
2.096032407864444613e-01
2.101559652709782122e-01
1.655275236427403707e-01
1.420976554153230431e-01
2.032635861063303850e-01
2.093562596295011902e-01
1.778532076570956411e-01
2.136140649917534773e-01
1.934366936732895559e-01
1.711113703884212800e-01
2.405589212225670015e-01
1.866405137348730592e-01
1.962688396578094741e-01
1.557462414309839782e-01
1.245617543944461947e-01
1.762446674380343248e-01
1.333848681876860509e-01
1.761637930864799195e-01
1.902165933345499327e-01
1.030708746127182718e-01
1.658115131426537991e-01
1.061000683918507381e-01
7.429093940254777317e-02
1.201883162966127794e-01
1.409841756615835273e-01
7.573346580403955697e-02
1.588261111661336267e-01
9.680992426213141933e-02
9.434471814740233442e-02
6.321340182855515744e-02
8.517935028021084154e-02
6.874270399899748418e-02
6.413037009145586276e-02
3.146062926488483319e-02
8.014493143828366195e-02
7.384110231999671536e-02
2.386498952370718490e-02
3.704061466227517863e-02
6.212159408808049649e-02
2.404721238690403495e-02
7.868973424328151722e-02
8.328032981289888725e-03
-1.720440939497349872e-02
1.536072769427767465e-02
2.201941885979016855e-02
2.820282478022430317e-02
5.576677450411057779e-03
6.134245765675352957e-02
4.623870218176819036e-03
3.097917313746188089e-02
2.424065898952579290e-02
-1.515918915586991766e-02
-2.836166569905255314e-02
-5.718944148793564386e-05
-1.727092848286559609e-02
-1.663565380213076136e-02
-3.438374468962662744e-02
2.291042136433706772e-02
-3.383072030781984069e-02
-5.292633522336483154e-02
2.216761351568367899e-02
-1.078523759109433627e-02
-3.119490859865077514e-03
-5.032371931499379780e-02
8.981968827696328039e-03
-4.367056990027852470e-03
-1.772981176081554755e-02
-3.480268994877944860e-02
5.883808171812606597e-02
-3.782218986210543477e-02
-1.687289794140825125e-02
8.777401925779033942e-03
-3.711433220565817787e-02
2.522167442586564778e-02
-3.598468849482672205e-02
5.562098615322520062e-02
-4.347162261240950648e-02
-8.153488845005871233e-03
-3.577510343499431394e-02
2.031644684762868441e-02
-1.714545658919409965e-03
-5.834118641943650957e-02
-6.806299328319762032e-02
-2.143725663162079909e-03
-1.438520518300449857e-03
3.871691176954525360e-02
5.817045491231091076e-02
2.463937963299987766e-02
-3.911469561109527648e-03
-1.766778295436206847e-02
5.599386859531296778e-02
1.789083552264206234e-02
4.393199705514898301e-02
-1.433771474969507825e-02
3.315518026729245143e-02
1.319455257011336452e-02
4.487456644907182601e-02
7.048399555470116762e-02
6.087037907505035012e-02
5.100792641557250900e-02
1.024656894245670469e-01
4.207857273422509203e-02
5.779615644974926691e-02
7.708341726029684093e-02
8.010911698425356164e-02
1.178792683685590259e-01
1.007627962842688879e-01
9.982642897368781965e-02
1.705375654063286950e-01
9.766008399681025409e-02
1.635816417019739510e-01
8.469447940533508801e-02
8.387794195393956376e-02
9.399293404125683149e-02
9.962415117511297380e-02
1.026338764556169320e-01
1.126803420121032795e-01
1.927085384853067795e-01
6.857381655723188141e-02
5.337433646442087815e-02
1.201852592988922747e-01
1.288860980568997949e-01
1.031158850263054205e-01
8.682093292922957173e-02
2.892483497310296275e-02
4.233266206637545381e-02
1.070805031520217082e-01
1.055671131840672239e-01
8.040411012877832220e-02
8.916534856038373091e-02
8.634839395781401805e-02
1.494318668514904858e-01
1.878701649354198033e-01
1.841101288644697020e-01
2.430528479632535210e-01
3.327269449358489783e-01
4.297758178773523063e-01
4.861836616829990909e-01
5.961595412038326325e-01
6.439463346462058757e-01
7.039141408175870751e-01
8.604368034166860468e-01
1.020610958099064547e+00
1.118895636171402419e+00
1.185637204659284238e+00
1.239682636615291322e+00
1.334547208551244868e+00
1.409230529631839035e+00
1.402015003384583736e+00
1.400970215848695410e+00
1.430918628935833325e+00
1.404849171925039553e+00
1.265899237230149410e+00
1.159885051751749163e+00
1.082063794909796206e+00
9.645734132409051753e-01
8.316478940532144870e-01
7.334588814794718026e-01
6.261733607422192982e-01
4.970235532900829645e-01
4.271654444340114987e-01
3.882211394710800567e-01
2.810647035393417092e-01
2.044962052233667560e-01
1.330130614865778216e-01
1.557149930840712460e-01
1.498178064859558012e-01
4.645499902346509474e-02
4.631512612406575580e-02
1.430302396519249064e-01
7.722654004843440556e-02
1.013449718833979857e-01
7.311512365026831550e-02
4.079853787458792569e-02
-1.412298595928175582e-02
4.719949263320977195e-02
4.738769504567168223e-02
6.028107807342415053e-02
3.966848464167214983e-02
1.075306117553305879e-01
6.695898326856601634e-02
1.013979587497130935e-01
1.283781057629621580e-01
9.782600271949244697e-02
1.369196131083686430e-01
1.434719693678216945e-01
5.847737891738882809e-02
1.468477977598205975e-01
1.389012274869174668e-01
1.395156053612693070e-01
1.413124459873021932e-01
1.905431513095738327e-01
2.207464824280679638e-01
1.906050113739523322e-01
2.107119096737734565e-01
1.676203828733714429e-01
1.909356295889504673e-01
2.376186013142374820e-01
2.115269432441553854e-01
2.150718233085202602e-01
2.122884644559280831e-01
2.099630539682303954e-01
1.847348129191632438e-01
2.732948733312929313e-01
2.356618414956731522e-01
2.127864432865317901e-01
2.498836106673963942e-01
1.986387378768984802e-01
2.549085204371821511e-01
2.559057680125172984e-01
2.404005198589687919e-01
2.469097811013190591e-01
2.655938125339515898e-01
2.388805887397292271e-01
1.973552175468208381e-01
2.012320652022286382e-01
2.411374196664288205e-01
2.518273645892700752e-01
1.912327045883347731e-01
2.162739353240812346e-01
2.167204012256722656e-01
1.910219017481588344e-01
2.192353991595786811e-01
2.396783515270517473e-01
1.650530109119379973e-01
1.794240560648431293e-01
6.996427905944718750e-02
2.023462569382372678e-01
1.817351706034520120e-01
1.769638571284569695e-01
1.298335778933212559e-01
1.707442109214414860e-01
1.250867449225974704e-01
1.533352376369393755e-01
1.264117739573328847e-01
1.284597609746011004e-01
1.480087859382207549e-01
1.223986191287323305e-01
7.631962781045320554e-02
1.668756674662980333e-01
3.649620200751434174e-02
9.448586312852290392e-02
9.515938225019762720e-02
4.877367613708691318e-02
1.353689984468552376e-01
1.059956141994457396e-01
6.741394920948068359e-02
3.229556744031694682e-02
4.978094844311491823e-02
8.326445139888007108e-02
7.247724524710624783e-02
5.576080813998997299e-02
4.885841961570905334e-02
8.987235926137224218e-02
7.484645602047826363e-02
3.249704450320302362e-02
5.570006553766167212e-02
4.417292243073278613e-02
3.279654217019500884e-02
2.918264699977576870e-02
1.722185870125946677e-02
2.639502696245329787e-03
3.999610459257802592e-02
1.091824957180853768e-02
7.140936935217498394e-02
-3.925293361208889026e-03
3.216613501835117322e-02
3.446146707563458450e-02
1.115052768683097960e-02
4.059787787847127238e-02
-9.142900970432150248e-03
-2.279729768324498251e-02
4.317753536640410450e-02
1.085162929225409051e-02
6.064730357660662319e-02
-1.623800850282002689e-02
4.158556171930806455e-02
1.717768123784373102e-02
3.847701908710335350e-02
-8.247209027791666675e-04
-9.951943907037401338e-03
-1.060461207160949548e-02
9.941009753403999560e-04
-2.559719091348094250e-02
6.939362906040462409e-03
-1.388298719850538168e-03
-3.098119747255088235e-02
-8.809344767391707673e-03
2.522786573532602439e-04
9.125835351498337578e-02
8.369651305434792909e-02
3.098361693533108197e-02
8.273804608451564013e-02
2.833819538296898644e-02
6.804402145642204913e-02
2.874422808286273071e-02
1.065216139843866844e-01
1.057077846212756134e-01
5.362299390997867649e-02
1.313117430796756080e-01
6.397527604523417510e-02
4.235851872889951492e-02
1.091169331873319825e-01
3.710290180236058832e-02
6.177723259735834471e-02
9.837604523154105940e-02
1.753277965839029895e-01
8.873199967787301357e-02
6.978441716973465825e-02
1.151077561003125416e-01
1.253517167303804247e-01
2.188577199411548269e-01
1.693120426683122626e-01
1.657862589730781655e-01
1.808527061079472920e-01
1.527623247440572374e-01
1.948729383446787256e-01
2.316952557196385321e-01
1.661199734577369913e-01
1.892754537859842323e-01
2.205274552777262420e-01
1.591871284973657430e-01
1.545828937017769966e-01
1.595358717222765399e-01
1.713732604467801124e-01
1.864881992344943895e-01
1.648067652937168781e-01
2.151808466474043890e-01
2.002646759294435808e-01
1.599736873350767474e-01
1.570379813299576377e-01
1.733167300008822131e-01
1.461999269706901472e-01
1.198001560454261261e-01
1.445335724130184796e-01
1.009575385921496760e-01
1.442725164043444919e-01
1.280316401791877778e-01
1.749313797361410350e-01
1.425343658005361891e-01
2.039518098002847113e-01
2.410928314495070501e-01
2.776353353396586177e-01
3.170726965644266593e-01
4.343293910631051413e-01
4.478239786246692722e-01
5.988853964508958905e-01
6.643080625498810621e-01
7.413041328770079152e-01
8.515115217319770835e-01
9.701635447518155431e-01
1.074789751702526441e+00
1.198736202232221215e+00
1.309788100055429005e+00
1.367059477173498516e+00
1.412967771814039430e+00
1.460732202237065902e+00
1.449957107616987928e+00
1.493289590237938835e+00
1.446253967962838116e+00
1.326118401108998146e+00
1.297953216163484358e+00
1.174175643206563757e+00
1.016273132379905686e+00
9.438320530924422247e-01
8.715464686181201293e-01
7.984913167513847387e-01
5.938577516164574854e-01
4.912947539337623737e-01
3.932306153159811357e-01
3.887849968268828338e-01
3.112058418233871193e-01
2.932561516159163384e-01
1.877791013342965942e-01
2.229101091388603351e-01
1.397760864462309349e-01
1.258686989841863724e-01
1.621922372192316497e-01
1.467995776846279521e-01
1.392998573007288576e-01
4.452847486942167893e-02
9.080348429925955145e-02
1.560056088011555209e-01
1.103932257446877951e-01
9.310535858619362060e-02
8.589715809286026238e-02
1.249575326543418963e-01
1.104100491305463339e-01
1.411994769373427772e-01
1.097593278232800867e-01
1.367443302399766747e-01
1.302058506609434230e-01
1.357173898302072024e-01
1.933637182488947004e-01
2.212935378851638712e-01
1.990706359225002386e-01
1.634609228270041958e-01
1.819418998351723382e-01
2.570657908716332818e-01
1.954591576542124287e-01
2.301128647465530974e-01
1.934421787588156139e-01
2.286982473272415328e-01
2.558343049798283975e-01
2.509149739989955386e-01
2.847228804320441897e-01
2.711608717567564053e-01
2.156852894172892887e-01
2.550124125455012214e-01
2.638323305034182553e-01
2.757960325800647428e-01
2.201518601135432907e-01
2.545151569595666685e-01
3.280091266587255028e-01
2.646280138282955385e-01
3.181812544011607402e-01
3.239976314242399291e-01
2.770060324047347589e-01
2.546058464164391855e-01
3.498436169329012801e-01
2.972446419143434659e-01
2.184141159064844906e-01
2.271883417731323240e-01
3.091928262294395546e-01
3.305741742668238947e-01
3.006135161888875418e-01
3.353985152173645234e-01
3.038433154046682461e-01
3.333929707546970378e-01
2.418574002635958675e-01
2.615941255799417720e-01
3.697023562002991204e-01
2.694907170846237432e-01
2.254381981528060519e-01
2.246136212802912202e-01
2.338002189625199845e-01
2.938660159724034715e-01
2.526440269784550052e-01
2.290291105932946436e-01
2.179859339233691795e-01
2.102885946174789522e-01
1.951934863870972703e-01
1.846432386433604633e-01
2.107036138975919570e-01
1.830618090276451837e-01
2.131041799387355384e-01
1.363849556586653466e-01
1.699890915885445275e-01
1.767841892038063412e-01
1.133177932410035227e-01
1.317792528452207956e-01
1.279556590501746971e-01
1.247845829284464081e-01
6.685150795546040969e-02
1.624531673365977591e-01
1.235270439772280515e-01
1.335534597674044033e-01
9.570589440387287927e-02
1.300597281127321425e-01
1.349804958127805710e-01
8.918648574623508352e-02
1.045434741790062377e-01
7.577377191235598608e-02
1.025551487788252669e-01
9.821328350243960226e-02
5.424674190637428228e-02
6.644789767426040328e-02
7.061476419005403848e-02
2.292449921857402789e-02
4.295089284257622153e-02
5.292669763981697889e-02
8.661455574815865588e-02
-1.276562303565434431e-02
4.881307523002983290e-02
2.853401150456667118e-02
4.613370123199683759e-02
8.277166887140466334e-02
1.023169511199617798e-01
1.093575127371001210e-01
5.540949868943868817e-02
4.644333596985917439e-02
5.785947966264890635e-02
2.795048132806954300e-02
5.407720179064050281e-02
5.964964719548011135e-02
8.165907507214176242e-02
1.164454721317195462e-01
8.666256487616950943e-03
2.455287729741666841e-02
3.717645986978568295e-02
6.431430695438840328e-02
7.125879130738466127e-02
8.794400561887977252e-02
5.843366228155442987e-02
2.806040116720556060e-02
5.227673967902368712e-02
1.017817183137859627e-01
7.557296532239823894e-02
1.145454561983709624e-01
5.164047407065429363e-02
5.548502042571895609e-02
5.543234635808781674e-02
7.141887309109978821e-02
7.594131819663384186e-02
8.428291394560247229e-02
4.284161605223529845e-02
1.283051875891036420e-01
6.031071711723744178e-02
1.034068249048064048e-01
1.480184809781644462e-01
1.466826185696320228e-01
1.209093651267680036e-01
1.163113045201466800e-01
1.073468951147268924e-01
1.468151628183585189e-01
1.596962961802170233e-01
1.629615225724628802e-01
2.074018771859893473e-01
2.044090084844391586e-01
1.765692805302178647e-01
1.683493775859037922e-01
2.093855541688224020e-01
1.937159802224797389e-01
2.088511175713235191e-01
2.316736437727497933e-01
2.164412145610460358e-01
2.353030151825897809e-01
2.176698832506964165e-01
2.014374350480820919e-01
2.137733986294388100e-01
2.323019100683894889e-01
2.250694896783367871e-01
1.864729210017845307e-01
2.139429444939981440e-01
1.934536501307162204e-01
1.596951263949832889e-01
1.685369920007297739e-01
1.622502173628074251e-01
1.402017869384112325e-01
1.639465737033530268e-01
2.155605982647960384e-01
1.869162241621902254e-01
1.208886410221977487e-01
1.453866616107996890e-01
2.044451657588004512e-01
1.525809848398080870e-01
1.367979678088742101e-01
1.871377066315060844e-01
2.076261207305678536e-01
2.269932171074286187e-01
2.531442005642049464e-01
2.753570292912413398e-01
3.802181219673325119e-01
4.739614148430316698e-01
5.548470920205571533e-01
6.433038078702176810e-01
7.256607338515349559e-01
8.912916732413322940e-01
1.002798728268434081e+00
1.103882261236288187e+00
1.207023605627690399e+00
1.294518152624691609e+00
1.320518882366796376e+00
1.431511956201131808e+00
1.493780134532992188e+00
1.476278045839426456e+00
1.495511189129935081e+00
1.490262906783816454e+00
1.388398634495892736e+00
1.239851993816012854e+00
1.237877887873749971e+00
1.091269133397831270e+00
1.055421626823868975e+00
8.936290084623256247e-01
7.907616700933979281e-01
6.710538196688664581e-01
5.572247373574131801e-01
5.040617175084329826e-01
4.020002995189764228e-01
3.728467940950680459e-01
2.683805292452599578e-01
2.444561588306787547e-01
1.651179635260111300e-01
1.682105589162611325e-01
1.829369251410473129e-01
1.270245334624273970e-01
1.443526772403680158e-01
1.269720528332805576e-01
9.175372976690510107e-02
1.532402280765134961e-01
8.895873246775942711e-02
1.605261496274062172e-01
8.965551956306905268e-02
1.504220615104910064e-01
1.140433510292218344e-01
1.740734568051841014e-01
1.338619422838841500e-01
1.302509161657616210e-01
1.283668614389697482e-01
1.833694683413979731e-01
1.693278469710635115e-01
1.521871461956907645e-01
1.705667769944597123e-01
1.700591883968336770e-01
1.807947552857922524e-01
1.845776587213202591e-01
2.120627548307386090e-01
1.851551539723256257e-01
2.246881107831951441e-01
2.280680106554337228e-01
1.978603206185052810e-01
2.191489301463269979e-01
2.321168559369619078e-01
2.353071365192277720e-01
2.644057160167361253e-01
2.369812137403385921e-01
2.231598761054061908e-01
1.855085557234842919e-01
3.075879049308823943e-01
2.990294941715738730e-01
2.839780432058861548e-01
3.188311199478747193e-01
3.500359763234319743e-01
2.776016931250980813e-01
2.533402445244357093e-01
2.904358053217077074e-01
3.218080473624924664e-01
3.075029740266741474e-01
2.375481863123676818e-01
3.672979495038981024e-01
2.231812897335709867e-01
2.729161110675751289e-01
3.884809412294416564e-01
2.989113209407618377e-01
2.670122173003929844e-01
2.901088412703037855e-01
2.346497478960253569e-01
2.811630255081842833e-01
2.721570251113625827e-01
2.417031643239911654e-01
2.509317628523409782e-01
2.827673165478330475e-01
2.669571534826493120e-01
2.519673883071636422e-01
2.051202970928274194e-01
1.736745063717489435e-01
2.526192697471235094e-01
1.881262492433135591e-01
1.768322152503241373e-01
1.454893141084664110e-01
2.229316262148426653e-01
2.202070487731601911e-01
2.486317987726177903e-01
1.374131392036807564e-01
1.230500430984326765e-01
1.687724558490232007e-01
1.391545361656147950e-01
1.903076564942091653e-01
1.405532798484208368e-01
1.525749488485670657e-01
1.431465624976412387e-01
1.014250568387315560e-01
1.536914033269924929e-01
1.676900739677015806e-01
7.994822837842716079e-02
9.829303125213721681e-02
1.028107499576644268e-01
1.017182336250045949e-01
9.803415319123805205e-02
1.075021600506906455e-01
1.038204622619816608e-01
9.454080045689644551e-02
9.170910999196799085e-02
6.386340759576383808e-02
6.229842311289191664e-02
3.612236237389310212e-02
6.189178186499956491e-02
5.391140881328962409e-02
4.335565461422231925e-02
6.451876987093937976e-02
7.012694810908537413e-02
6.465268676770757894e-02
4.307117465135028994e-02
7.143245093977457216e-02
9.844596215663946326e-02
4.658140270844465108e-02
5.080330743321243708e-02
4.942279291632181021e-02
6.816716719335852437e-02
5.137958763685805674e-02
1.541266103990645772e-02
1.064957366117194326e-01
6.256879711449707393e-02
7.261064832820933457e-02
5.332005577988344069e-02
4.093657655333399203e-04
3.460798477663282191e-02
5.136188583725154883e-02
1.633028181720191235e-02
3.839942932096536421e-02
-4.188085534729352188e-03
2.359357152669847024e-02
1.999152883512373552e-02
2.103026647044980990e-03
1.449146058261691419e-02
4.631783673222497622e-02
6.858090493681499866e-02
6.337291009978744671e-02
1.562807853351987422e-02
1.364995621366472955e-03
3.996247323839059035e-02
7.188653817925372280e-02
2.518388023199120973e-02
3.217411832355566992e-02
8.106507583570544961e-02
5.582028738048135791e-02
4.162555179014219842e-02
3.394892565326247669e-02
1.038065619147776203e-01
-3.658368460376926201e-04
-1.856520376373453629e-02
3.477478752717402810e-02
1.293622340228111831e-02
2.091237427370027518e-03
1.056234824496455130e-02
3.019719864954207439e-02
5.645454023391615478e-02
4.230579700562469431e-02
-4.293295231846454285e-03
7.321826138552832430e-02
9.243946674521479751e-03
4.714741327090879452e-02
4.812474807769921703e-02
4.224577388651468840e-02
2.953419065138934013e-02
-3.150763667077444152e-02
2.236911545224914283e-02
-2.139735910036990457e-03
5.559645567918927722e-02
2.128334816741977650e-02
5.777669724278136631e-02
2.536991208875036957e-02
-1.019731374971604571e-02
2.692100758639585575e-02
6.027579664661921605e-02
7.389433672289739963e-02
-1.267893024781995698e-02
4.352126799077392361e-02
1.741933118500144789e-02
-3.727384347053427915e-02
5.372930837028233597e-02
1.539028267955416113e-03
-1.778188119396679687e-02
-3.076165597863997347e-02
-4.507075478959322867e-03
7.099634305162555448e-02
2.920422812413836500e-04
2.796009596481446174e-02
1.461560108948126331e-02
-5.292664349796739193e-03
6.725003633630803612e-02
7.274708500560913421e-03
-1.887348277213823922e-02
4.224379916078907504e-02
5.524879089491022133e-02
1.499436087407698959e-02
-4.185966455722313351e-03
3.247340353717434458e-02
-7.463257075027443510e-03
6.704765557260244924e-02
6.297325421600196912e-03
8.557266059265981883e-03
5.770856767336013382e-02
