1.386982957969638885e+00
1.393085201062663314e+00
1.381280696320939416e+00
1.293859246232820892e+00
1.174984711552904182e+00
1.084151727124339049e+00
1.062155669948263492e+00
9.187869670349477769e-01
8.068668925387322277e-01
7.110228069152330077e-01
5.788693362619491412e-01
4.546395968507925822e-01
4.127312331763793862e-01
3.795497713645073490e-01
3.085945930295412865e-01
2.710468786276546416e-01
2.389890875443966833e-01
1.829115855169129168e-01
6.442959841694688439e-02
1.299270226623245039e-01
6.109535068133541136e-02
1.428428378934947784e-01
6.625217787240457457e-02
8.962584948772650550e-02
1.028441978936723566e-01
3.484137349552760693e-02
7.353890649019223513e-02
9.672595978079362444e-02
6.059497906984773891e-02
1.433645735840374524e-01
4.493872820890899150e-02
1.005777591639061830e-01
7.940857646518510726e-02
1.398292097567803149e-01
8.155605068267909874e-02
9.787869016386385734e-02
1.199314178059998209e-01
1.259627390239406730e-01
1.859458969192598898e-01
1.707165895082299045e-01
1.816057381747831490e-01
2.089548736481844915e-01
1.849732872590575394e-01
1.692462262088682834e-01
1.706253492524713866e-01
2.193066083186420434e-01
1.811107561741375771e-01
1.899752481955362116e-01
1.832065896448160369e-01
2.134922040936877430e-01
2.200226018829327668e-01
2.568131547144575366e-01
2.417055102750609308e-01
2.178040342082686043e-01
3.079655525347026468e-01
2.655916738017248813e-01
2.588310194409866316e-01
2.302973594506723676e-01
2.576473473918984292e-01
3.211071037488043012e-01
2.851327956873829228e-01
2.864513834053955543e-01
2.657941782059617397e-01
2.982736991315310671e-01
2.397884671265469447e-01
2.767870208432450241e-01
2.679425792708375331e-01
2.553255275906425870e-01
1.989853535965912523e-01
3.043259165616130080e-01
2.378535141401036113e-01
2.636524097100909625e-01
1.924616946140380591e-01
2.529456244807677390e-01
2.269502301991088433e-01
2.578720530395743893e-01
1.474253545227109385e-01
2.420966803217418639e-01
1.394720629927303501e-01
1.112345535907999505e-01
2.256835112400626120e-01
2.237213842180424128e-01
1.740953938531841216e-01
1.465380653077924533e-01
1.683301517767564759e-01
1.453677993485497089e-01
1.275968955451609321e-01
9.984476652400391117e-02
1.470804275486831125e-01
6.595930118185787394e-02
1.391837456717707200e-01
1.072017823315174895e-01
7.229916109568583493e-02
1.128678120130476026e-01
1.180756276933236787e-01
9.785936167361479476e-02
1.095640747490939093e-01
1.113701402679576763e-01
8.323080292204480812e-02
4.862978120382248359e-02
7.534877446396232026e-02
5.142208881429289474e-02
4.789618311282850538e-02
6.497034271087526180e-02
2.162770465780836440e-02
4.510180896945421847e-02
1.041932736770783893e-02
2.906136503934830112e-02
2.521191334955740285e-02
-8.727938147192864857e-03
2.915484810273881455e-02
6.087759890898879894e-02
6.330141839119120609e-03
1.297167600550020242e-02
2.849226789827542100e-02
-6.932769911364274062e-03
5.020298385475575886e-02
1.023553171862159016e-02
-1.120518272938626422e-02
-2.943542565136744033e-02
7.072006563166761961e-04
-9.204612720916391724e-03
-3.148751658314457441e-02
2.817169017529060071e-02
-2.002054035225347972e-02
6.780613939814772451e-03
-5.202361090364882208e-03
1.151876595389170199e-02
-3.893031297822460712e-02
-4.862973994993992355e-02
5.356485309966282915e-04
3.651361393676413186e-02
1.170729746924087725e-02
-2.082390892434655277e-02
2.060775503111748896e-02
-2.251054744110065828e-02
-2.340720631009904698e-02
-1.262961468183099352e-02
-2.345049988521685780e-02
2.001180446281681721e-03
-1.206881897031934769e-03
-3.495916267936984706e-02
1.948346554477585479e-02
1.861094069226806175e-02
3.052281507232698296e-02
1.447419771148711343e-02
3.837316861153564074e-02
1.902844307083858405e-02
3.456021898123025349e-02
1.000286977313912321e-02
5.821708387439203380e-02
1.854403986907454324e-02
4.762634293904342148e-02
7.519060749070419214e-02
7.133174556508788122e-02
4.453979836664599679e-02
4.329555575881364332e-02
2.121924478165998149e-02
1.024326115033001999e-01
7.554232917887546139e-02
5.026793452497289871e-02
7.736513949374591859e-02
8.117392300836495656e-02
6.653507892308777039e-02
8.121271770755261743e-02
8.902875432890243468e-02
5.193168339896510333e-02
8.910267471664932992e-02
8.731687513603142436e-02
1.256992841271060979e-01
7.939477930439782505e-02
8.580007819001397862e-02
7.985137847463433247e-02
1.148166007832656238e-01
1.039768981800810871e-01
1.296310766535331838e-01
1.401649926250294609e-01
1.324006887279228772e-01
9.409844792751091702e-02
1.206954393916936097e-01
9.741972804195761504e-02
1.010579082435179299e-01
1.075276883271596706e-01
1.235052592430904844e-01
8.595034624769826159e-02
9.453980717249030330e-02
6.073788781656290492e-02
6.732570729588693847e-02
3.931718064389412570e-02
3.610502021964435287e-02
4.655336258743465738e-02
1.138095265055779209e-01
9.198617822993770954e-02
8.018946096010375058e-02
9.013902971113973983e-02
1.299971457579709444e-01
2.278448775374741497e-01
2.548469969134948832e-01
3.210750304141790079e-01
4.306510259754504077e-01
5.110846188640959520e-01
5.569550980402521168e-01
7.381189796817324567e-01
7.733998025184769531e-01
8.787542230588696324e-01
9.997284260297227831e-01
1.018919984107988341e+00
1.184124020485739726e+00
1.241720372965829711e+00
1.291970763916403309e+00
1.397842305231189686e+00
1.364410972729983129e+00
1.292472731939716013e+00
1.270655034461248389e+00
1.161677072708976688e+00
1.221143033185769555e+00
1.037282748837633273e+00
9.354397706352096664e-01
8.509334554816898599e-01
7.115969585054484625e-01
6.226598195450987472e-01
5.193559155228741897e-01
4.788743068904975364e-01
3.356667709200479854e-01
3.363850977359879035e-01
2.409508236233287581e-01
1.547933285390263314e-01
1.345446655724265028e-01
8.537016551769220640e-02
5.067657548659506433e-02
2.199872642572601317e-02
3.714548721942131926e-02
7.216928159263238940e-02
1.616389391494215538e-02
1.110589541850646317e-02
-8.444799494955933239e-03
3.584207309677520104e-02
1.346023390824042237e-02
3.624063639050837532e-02
7.444030801416406939e-02
3.323829675991449989e-02
4.610075299154157979e-02
4.357238276518461684e-02
1.044336074553768312e-01
9.785869808174843532e-02
7.605587578943656668e-02
1.039300148224752141e-01
7.356641334345276340e-02
1.014342820750169794e-01
5.970631364335523411e-02
9.565778827239281024e-02
1.190151977371070313e-01
1.593245516403565265e-01
1.014082762176811703e-01
1.595061938692825809e-01
1.503349753528037680e-01
1.799895624863233901e-01
1.614843066238904334e-01
1.577399208956964394e-01
1.368323817538912857e-01
1.926480542911821747e-01
1.862513189717839857e-01
1.830333823804643489e-01
2.483594874808347508e-01
1.639180581158374839e-01
1.632919974388780393e-01
1.899130164924391351e-01
1.886994641240477277e-01
2.364739205248975740e-01
2.494284018188336061e-01
2.214539820669260139e-01
2.442168744502157818e-01
2.301927285815938973e-01
2.049905593536958670e-01
2.107891475007631077e-01
2.345130366519207754e-01
1.867419385182547409e-01
1.803203363599999443e-01
2.009440676009535687e-01
1.512735262586680784e-01
1.702147164883270614e-01
1.998369934656425706e-01
1.360750715579829573e-01
1.695489988972189166e-01
1.543953744748469137e-01
1.340825216328217773e-01
1.397007982618882482e-01
9.735033033762498234e-02
1.232460195329297958e-01
1.157405035339809513e-01
1.030581022843459482e-01
1.451071051537858314e-01
1.721443845241974746e-01
1.570061718487760494e-01
1.540467653859178554e-01
9.731398640837196634e-02
1.205776267084478354e-01
1.346415169876319373e-01
5.971456530782821848e-02
5.659462313533794586e-02
4.845178546802028641e-02
5.498049241495261280e-02
5.944243843754584006e-02
5.343567017276180248e-02
9.001056425005789230e-02
5.666557282430788323e-02
-7.775278101975896528e-04
7.939960356997950719e-02
1.354673234430535389e-02
4.460233215874666313e-03
-8.662811671998345286e-03
1.782618454533081015e-02
3.951492992589990955e-02
-8.117806779863005751e-03
5.776877264693744407e-02
6.847422536563431417e-02
8.884442296627700908e-04
-1.350972035981932301e-02
-5.478331118113660692e-03
-2.020227558788035074e-02
-9.438912117262041046e-03
1.084047287075221716e-02
-2.986234528756905038e-02
9.593475876324981944e-03
3.348935948102406412e-03
-2.825461257208535318e-02
-1.031973388985772677e-01
-2.621791930109213659e-02
-2.622596012791164610e-02
-1.910785621132271572e-02
-6.903028985576234455e-02
-2.058961334199945273e-02
-1.650161734816663062e-03
-5.135309259684518735e-02
-5.098455827128800522e-02
-4.736641468905283120e-02
-5.520986638970969834e-02
-6.815093885459574952e-02
-2.296450854202728917e-02
-7.588711559463921785e-02
-3.074177034595721933e-02
2.946800542650424015e-03
-9.953702765374494721e-03
-1.745780465271594070e-02
1.337989049040295975e-02
-4.307730723513687049e-02
-2.190971001034521318e-02
-4.429116621215816590e-02
-1.620960528944569157e-02
-4.152668755468032213e-02
-7.294339538615370044e-02
-2.682102629806027566e-02
-1.116537609721160451e-02
4.738827059815051146e-02
2.808875476358054651e-02
-8.257450333788343699e-03
-5.964266821350191344e-02
-2.330137863926942665e-02
-1.683270611117394788e-02
8.154053864874118152e-03
-9.441009510029893526e-03
1.225953157980406993e-02
-6.917088693392858811e-03
-2.547524157205870859e-02
-2.724193446676390074e-03
3.278112708014060961e-02
3.784278600070439813e-02
2.211657261918956868e-02
9.662659339075632681e-04
8.639246729813662706e-02
1.984888329687696518e-02
1.206945453252834533e-01
2.847190500128746193e-02
1.271081231665744937e-01
9.088119319778001359e-02
4.273116441368531027e-02
7.024381382761346604e-02
9.277403293607572321e-02
1.220918943487907526e-01
1.028326877150315954e-01
7.845818145587696302e-02
1.176677247100162971e-01
1.237504958746653838e-01
7.809045796666280737e-02
1.214211681084718664e-01
1.121867933406359569e-01
1.223515639463449711e-01
7.324433912638933508e-02
1.039304494850520066e-01
1.493453384122016281e-01
8.404529830439969040e-02
7.885410313627699841e-02
9.076267689697320451e-02
6.072190023536695735e-02
7.908119483134590233e-02
5.128166031921287116e-02
7.131651529063909312e-02
3.656494121421342836e-02
-4.826652854530598391e-02
3.203934304503913699e-02
4.187389349827358442e-02
9.332849576416651916e-02
3.777342640001590812e-02
6.975580275138207331e-02
1.364253371984791019e-01
1.881535231449444345e-01
9.741461665538803105e-02
1.899747082761381323e-01
3.013812218268835941e-01
3.859765485132781171e-01
3.865008559516182052e-01
4.563884803445952265e-01
5.229673550393320047e-01
6.853065840130396769e-01
7.541763264425352942e-01
8.547312325085053564e-01
1.023082474754518856e+00
1.132354292447209199e+00
1.190697217310753953e+00
1.222257385462987234e+00
1.291736910577026887e+00
1.271944270989536774e+00
1.303600754144853324e+00
1.325786635030270277e+00
1.274063880222069400e+00
1.213537166438636294e+00
1.098940663909838245e+00
1.044667532254802911e+00
9.087878537839567672e-01
7.718813638498932539e-01
6.742958688206827089e-01
6.423690186313502082e-01
4.887268292687680926e-01
3.690997250984862088e-01
3.131415491268747520e-01
2.929196536084014424e-01
1.986830684306462591e-01
1.095072961528360811e-01
1.282631036559640503e-01
1.120155028861497676e-02
6.371156818038688219e-02
3.513682352239098222e-02
4.316331452729239848e-02
3.655605375961408499e-02
2.262602828702516000e-02
3.125595033591721528e-03
3.100359525673095085e-02
4.044916407804956260e-02
2.907093696951779105e-02
-4.870740579240737111e-03
5.661163447519364234e-02
6.189084845051999462e-02
1.840898970976237448e-04
6.426022997221882138e-02
5.186038167365995821e-02
8.625370583555307114e-02
7.671398730457205939e-02
8.113792460874605372e-02
9.883052347885186439e-02
7.171336533532862711e-02
7.857832932397330883e-02
1.011052403611397144e-01
1.091839459368798004e-01
7.077358361482635751e-02
1.540570989730885576e-01
1.021971596941491506e-01
1.264700289246547815e-01
1.344464892129000610e-01
1.745774814729948443e-01
1.851135523574396757e-01
1.393543894503657121e-01
2.139254807425287896e-01
1.919077611126312755e-01
2.119729731728688393e-01
1.757788761752920592e-01
1.954225185495335471e-01
2.308468689245314065e-01
2.206444597883065462e-01
1.838257288237658549e-01
1.947088116135857472e-01
1.876339447343834677e-01
2.136791767159418876e-01
1.652980816934946362e-01
2.241043962154151414e-01
1.969768752434729597e-01
2.687334063024120479e-01
1.656609456404332104e-01
2.158823452925033304e-01
1.869225319940442664e-01
2.140489451605293580e-01
2.047393672083732685e-01
1.558402138760544564e-01
2.222673455182093416e-01
2.230188834118779773e-01
2.326356482814499194e-01
1.909777700515201126e-01
1.760099412883529002e-01
2.020261093711828160e-01
2.062128125456227368e-01
1.552102082506920944e-01
1.252485881535271295e-01
1.364534298291643077e-01
1.328836593180742764e-01
1.736896486105874993e-01
8.952689781060212126e-02
1.227283159528207435e-01
1.130522153631484950e-01
1.145290998123920517e-01
8.638698586758256082e-02
1.399529994476128303e-01
7.540842292597764451e-02
8.776810809332849517e-02
1.030011559444582170e-01
-2.446631209441704757e-03
7.349589190315641840e-02
6.195519956711041665e-02
2.492954158368572426e-02
4.460298446865720162e-02
-3.241587600324211116e-02
4.250567587591712326e-02
6.646744892836224661e-02
4.869704818765712567e-02
1.499742561060440210e-02
-6.239561837998462701e-02
6.183912198932499382e-02
-3.391260906066597552e-02
3.439006611024458815e-02
4.417163121764461353e-03
8.912973373436682001e-03
-3.990955677906470045e-02
5.349642606359369251e-02
-3.914663453742850407e-02
-6.407798690964704169e-02
2.227449499101383235e-02
-4.945363166671247479e-02
-6.411984732281092447e-02
-3.898906321050862878e-02
-1.174894999777392410e-02
1.730472946503593124e-02
-3.627492328772809194e-02
-3.733702109293676741e-03
-4.775202913640113483e-02
-2.965830748737646738e-02
-2.910235816380443014e-02
-2.627867319137981716e-02
-5.117702780961509712e-02
3.521169778544756823e-02
-3.436031826223241714e-02
-4.258879445677216796e-02
-2.065253192460002676e-02
-8.570177491506933420e-02
-6.688003646979287509e-03
-1.848182662103148299e-02
2.782704496476898215e-03
-5.011222557908998759e-02
-6.405251153898572358e-02
-3.879843407442215564e-02
-3.839271009827240760e-02
-5.477212899412872704e-04
-6.033978501808499872e-03
-8.976766396983482110e-02
7.063084188344143088e-03
1.052248778645140104e-02
-4.950550193536996935e-03
2.052740705724254155e-03
3.168333920929029129e-02
-5.709542687753382806e-02
-2.984785063467371852e-02
4.962445899313972647e-02
1.176468269501267094e-02
-8.665779350816849719e-03
4.676333488285262796e-02
2.327996430503301295e-02
-7.443927267041874213e-03
4.566398914977014972e-02
1.975556735935111302e-02
-2.942052222688239238e-02
-6.262715568676156808e-04
7.889475448239548216e-02
6.215990115335089106e-02
4.042322667830443306e-02
2.101923951915562333e-02
8.102749413462929928e-02
1.026409157504685477e-01
6.656738787000757163e-02
1.213778689911181180e-01
1.030545426471331932e-01
1.080554310393707224e-01
8.961852714423876320e-02
6.716283101685759094e-02
1.323398607058339504e-01
1.488879242781485090e-01
1.208530215813357483e-01
1.344754324173175475e-01
1.567911347413877832e-01
1.472839309237919392e-01
1.096876019829272630e-01
1.594501586704622775e-01
1.012965531158641352e-01
1.713589316137685559e-01
1.093256317283608225e-01
1.150561516138441931e-01
6.900768823935492235e-02
3.517333072817513395e-02
1.026970029470923584e-01
8.312853567799034782e-02
5.788383796213061872e-02
1.038322857030579832e-01
1.199768481080678156e-01
7.764365223536184857e-02
9.959497077053443281e-02
1.322952677227589580e-01
1.151136502405871315e-01
1.308885421901043733e-01
8.924850833818750995e-02
1.213886653019338596e-01
1.913019231374858409e-01
2.083950227736134087e-01
2.799382624922704954e-01
2.839197585719002159e-01
3.476844525732292190e-01
4.548765232019366667e-01
5.080594206774659005e-01
6.607354798863406264e-01
7.030987488066124946e-01
8.636568030975871890e-01
9.631415363953055309e-01
1.070775378275203416e+00
1.139661378789676327e+00
1.182769792322126312e+00
1.300814922836895260e+00
1.315247245869591852e+00
1.372748593715754195e+00
1.268069616942777200e+00
1.349342546968852918e+00
1.307145947486162640e+00
1.197258570842184566e+00
1.123204756707660401e+00
1.010214348101877047e+00
8.823366939514883933e-01
7.860725227603583276e-01
7.154310226517509586e-01
6.292999050453581544e-01
5.069465530531336306e-01
3.990648689261988014e-01
3.161715386728923827e-01
3.110617467879078224e-01
2.380382891688463121e-01
2.427514611219367957e-01
1.715511262699556394e-01
1.088084545566219141e-01
5.520199000142582413e-02
3.779388243145195836e-02
8.978402798424223175e-02
-1.513434849971460536e-03
6.621407769172837909e-02
1.507756593902484683e-02
6.257685148489833260e-02
3.969199252519202414e-02
4.840235983481509796e-02
9.043973590449277955e-02
8.014113593933280821e-02
1.942971248348498645e-02
3.908282350426272450e-02
9.000637744207928836e-02
6.514645721740870699e-02
1.376070246596651503e-01
1.094125646187593531e-01
1.520934507779134748e-01
9.623619959957319114e-02
1.652790522612891111e-01
1.490248847357058537e-01
1.752272446574077158e-01
1.781042538785342078e-01
1.945554132316752449e-01
1.657143958944710949e-01
2.178097651873237284e-01
1.949431367437038931e-01
1.988924588479795696e-01
2.192030680450743896e-01
2.169211605493979456e-01
1.972979569379512133e-01
2.252364709874338788e-01
1.964971206746926047e-01
2.787547247282359253e-01
2.608562617205119616e-01
2.551990695093374617e-01
2.610479400689950658e-01
2.400893253039296238e-01
2.916280810734855899e-01
2.575724630694061212e-01
2.202618164497432973e-01
1.963897367539838013e-01
2.152223494753963129e-01
2.231936963157575837e-01
2.600796725371997686e-01
2.920730343767753978e-01
2.805616166627554198e-01
2.614991575879292984e-01
1.868222781106241848e-01
2.953863237067294034e-01
2.267125843216430958e-01
2.760188158658801183e-01
1.906265377956168350e-01
2.174177897860040953e-01
2.184263569937172911e-01
2.194746490298898345e-01
1.879055726046442720e-01
2.918437019065517890e-01
1.426353402345009180e-01
1.549887168310829233e-01
1.696852808583295402e-01
1.605861971354521078e-01
1.886427771701258138e-01
1.669069075907180233e-01
1.330642024516472122e-01
1.217700651503967751e-01
1.349082327766959188e-01
1.293189171317637720e-01
1.571280425601107311e-01
1.745747266403525622e-01
1.277174981353229044e-01
1.752762704267604721e-01
8.017233797249728733e-02
9.567205567308055547e-02
1.129710597059747357e-01
8.071066021959055758e-02
5.689459746129402196e-02
9.771162317163102629e-02
7.826062501481260980e-02
1.315026266982980141e-01
5.839368382023091275e-02
8.230086080103179991e-02
9.210351547588627175e-02
1.335632280384523585e-01
7.153247707678500600e-02
6.353259195407565119e-02
3.244834249923059938e-02
-3.722100597612579102e-03
4.481861631761107495e-02
-4.151894339834996672e-03
5.410556355848945842e-02
5.576166109179462455e-02
2.013844369940391218e-02
3.634129612805903770e-02
8.756154861510608012e-03
3.149301842896469472e-02
3.892655154678863888e-02
3.018127633035745661e-02
2.579663681607990283e-02
1.676871166640220637e-02
7.076751196612494910e-02
4.478825407566994904e-02
-3.370087390671810956e-02
1.550213815024198589e-02
8.665025926617355573e-04
2.508430831029989649e-02
-3.219152759996911362e-02
-3.796888927623032206e-02
5.735830291136886222e-03
4.507615891744740783e-02
1.360006923551128517e-02
-3.150534934656831071e-02
-1.331485051880976558e-02
3.972296120406143549e-02
-2.692459331398738831e-02
-1.101837096440592967e-03
-1.094632616662105477e-02
2.425347774412727267e-02
4.103781834063043379e-03
4.309606133356527757e-02
2.588326270442734001e-02
1.927875340048335398e-02
-5.812965498205476672e-03
1.462989900869804752e-02
3.421173914643686753e-02
2.302264506551924758e-02
2.914685512206300830e-02
2.846542701349984161e-02
6.555327198678233269e-02
6.615117395920001864e-03
1.133503391835276736e-01
3.258732103277314773e-02
-4.437818946256319452e-03
1.328741234690768158e-01
8.899053552004743128e-02
9.053636109593558856e-02
9.143251783545473799e-02
1.041420151825343116e-01
1.262418835528139049e-01
9.444220153549721941e-02
9.600648530194819119e-02
1.264604461496712795e-01
1.579837868757121844e-01
1.238263757959872091e-01
9.532801180071512337e-02
1.271355630405903714e-01
1.308661546106745510e-01
1.718514479186775690e-01
1.420041294761084094e-01
2.250701308248863053e-01
1.596774424902386302e-01
1.288242915278598189e-01
2.489189803677282209e-01
1.489086121300027266e-01
1.892936461846251583e-01
1.618308677991949773e-01
1.400691484841400380e-01
1.791168298298962125e-01
1.700729295171355127e-01
1.456237750049569624e-01
1.420140103782467633e-01
1.944522651398872537e-01
1.736981445992771822e-01
1.591616658636035853e-01
1.526182677538313603e-01
1.615863085195413662e-01
1.374971171090108857e-01
1.170184338764769655e-01
1.512602272586666685e-01
1.053586268200429332e-01
7.669983719518684573e-02
1.459957177052879640e-01
9.726479202535792679e-02
1.143920316836039425e-01
1.194084783304244224e-01
1.878148185793538927e-01
2.467558821616270825e-01
2.635368661607238039e-01
2.680757615832754515e-01
3.667801375712747003e-01
3.707825762337088049e-01
5.431435284524492868e-01
5.400136754115062443e-01
7.114526137162213715e-01
7.645972367538869108e-01
8.938260099171912998e-01
1.086385463234780469e+00
1.106979788045120872e+00
1.198047966419561794e+00
1.290948800242479821e+00
1.363832939148031942e+00
1.375178485897577962e+00
1.379914618347949373e+00
1.332089582452446130e+00
1.371849101625225886e+00
1.325001509891298168e+00
1.220867731117488031e+00
1.163830081582919007e+00
1.082014047329684647e+00
9.665908557592866046e-01
8.367569220357413684e-01
7.277856853601387677e-01
6.948222500208719454e-01
5.725232721544746273e-01
4.632014859627279213e-01
3.605084231526204386e-01
3.759665378360028676e-01
2.484258826997354785e-01
1.981211232913812348e-01
1.535547712545931587e-01
1.036787619215722711e-01
8.412529101655703834e-02
1.164443980647691390e-01
1.354625622397208073e-01
1.045993303482789516e-01
3.777443018276675085e-02
8.531039028518161427e-02
1.443822451627861936e-01
1.253983515403288562e-01
1.164192085344770422e-01
1.086936005109462589e-01
1.020593312514961049e-01
8.981953755763459613e-02
1.427676476591338561e-01
1.126186670385322663e-01
1.263868099406066647e-01
1.849165555519022563e-01
1.708678307988621969e-01
2.132671756244379213e-01
1.903220287531990074e-01
2.031114313065237320e-01
1.332600178624787080e-01
1.535297846522039600e-01
2.236771916137240968e-01
1.941270507417253155e-01
2.003806422328436587e-01
2.476473618642933139e-01
2.109587930684132806e-01
2.080462757854008027e-01
1.996263032573049323e-01
2.734584678068892050e-01
2.894004658327393176e-01
2.746430904598332612e-01
2.584500725205330918e-01
2.711854614172310440e-01
3.128958806623861055e-01
2.946430288737343917e-01
2.910787800456602348e-01
2.523932487195247876e-01
2.286166377827116569e-01
3.664147072810824968e-01
3.019183900150274602e-01
3.028624937440873577e-01
3.120596190415586557e-01
2.782775404853515266e-01
2.784825625222100975e-01
2.837955863379276744e-01
2.741434197607454659e-01
2.829334242186173354e-01
2.989174417855973154e-01
3.202848830066477026e-01
2.438538167906749710e-01
2.551697887992501745e-01
2.406255895229428010e-01
2.808342939522692205e-01
2.318076626251116268e-01
2.562999983946123161e-01
2.418934509155721002e-01
2.175333264826574409e-01
2.587091203103271675e-01
2.266392514348946341e-01
2.527204683561388721e-01
2.528792378315928291e-01
2.330910804581350360e-01
2.057776021477412398e-01
1.716399152458721877e-01
2.084929575047943795e-01
2.131863722990290644e-01
2.112035119152114171e-01
1.639363064850857810e-01
2.127265272554789977e-01
1.590711322238158865e-01
2.038065850159704873e-01
1.511753670106643632e-01
1.374390572943162969e-01
1.302934651312502579e-01
1.324600248708277805e-01
1.265276827099612866e-01
1.015693642944844460e-01
1.092474960980085313e-01
1.489305439360925631e-01
9.596830141187506769e-02
6.624451915256995838e-02
9.324296892387570757e-02
7.600274827106606734e-02
1.259673800531065646e-01
7.623688521044819089e-02
1.220641871917244325e-01
3.277978458425882813e-02
6.218830126827708249e-02
1.069652338738234787e-01
1.225649938051969479e-01
7.054054689985131410e-02
1.037375474306607703e-01
1.978230315745430762e-02
2.513154987026120293e-02
8.244041401386134615e-02
8.787996723539356902e-02
2.061262800097315301e-02
3.642058567333973651e-02
9.082309589317114074e-02
1.976227923226607508e-02
4.320428103286833021e-02
5.022382392491495789e-02
1.949297238068246202e-02
9.456511714579307615e-02
1.191298788806162412e-02
6.933007694542497878e-02
5.016490551508864804e-02
4.114747125652030990e-02
4.820040876521254625e-02
5.206814419756968654e-02
6.871436663553248669e-02
8.116575655924621047e-02
6.707601633673172803e-02
1.617502953095645984e-02
7.128911841644368363e-02
3.699504651071119227e-02
5.460162049319852717e-02
1.068104593812892189e-01
5.764394003864038718e-02
6.093318232025436709e-02
5.813937930187751402e-02
6.577421062381835770e-02
5.575087019219746726e-02
6.356935854158976551e-02
9.388663302528177379e-02
1.152075061015907648e-01
4.456177950892720174e-02
1.056677328096823493e-01
5.176419732725980744e-02
7.429021727718376766e-02
4.885378690868987656e-02
1.278085987561288772e-01
1.235956969197236494e-01
1.342810676553409244e-01
1.554540195027070415e-01
9.865578615466551182e-02
1.642803886834400817e-01
1.488338572207451027e-01
1.701768783223472914e-01
1.267127917141258608e-01
1.030088568148301992e-01
1.063636109920444578e-01
1.808055856863883815e-01
1.411286125263081503e-01
1.541063029584910093e-01
2.026248542008275144e-01
1.985652702496179811e-01
1.619365015666964225e-01
1.875366518603020505e-01
1.843666675033373281e-01
2.272954752542519774e-01
2.256185205893706802e-01
2.038037400186294423e-01
2.413760417710160144e-01
2.378044763721155752e-01
2.003177133612436545e-01
1.808602787302843462e-01
1.704684979611226225e-01
2.050321381293915002e-01
2.058448126400785894e-01
2.251522286748514068e-01
2.422780159580203430e-01
2.234605741363826781e-01
2.135424403127945958e-01
1.687191599450041934e-01
1.749522207895167214e-01
1.017129701962326827e-01
1.129675193854346449e-01
2.026792332162715704e-01
1.995622076690498348e-01
1.176489320774159464e-01
1.604758875255377637e-01
1.688691148249130691e-01
2.012548894499817664e-01
1.776970937637916692e-01
2.192922457171367356e-01
2.924854618373300408e-01
2.885939360319279556e-01
3.811794257406485587e-01
4.414287874665988598e-01
6.010016341538950702e-01
5.918390747370366745e-01
7.168937720400934133e-01
8.741097109206715787e-01
9.177568099041686356e-01
1.027708327601974725e+00
1.123993934960139107e+00
1.218513813739731555e+00
1.310179242848164005e+00
1.332391973616684488e+00
1.413652116816519921e+00
1.403338823253567291e+00
1.473429462596707262e+00
1.414458024976771089e+00
1.369630600376772867e+00
1.212351001779663040e+00
1.168543608134509970e+00
1.035464110371738577e+00
9.907939064036687116e-01
8.259990275635228363e-01
7.468081849734220512e-01
6.470058256976992661e-01
4.982482422818224066e-01
4.275128435803099425e-01
3.342382113418772005e-01
2.566820472821466081e-01
3.049740575931879638e-01
2.036029111673080538e-01
2.072774524007699459e-01
2.052927671106775653e-01
1.621736327224415630e-01
1.609976324732858566e-01
9.085986754219893546e-02
9.654157195843704464e-02
9.992156519938855119e-02
1.250142635243280675e-01
6.962154760946175081e-02
1.091064231177209798e-01
1.383706198274762822e-01
1.145197253018485628e-01
1.243816132319411627e-01
1.484190046396044460e-01
1.656525333206164685e-01
1.147048179487931696e-01
1.656299761049129238e-01
1.373732083294345319e-01
1.561712675331906885e-01
1.776469474504350221e-01
1.715584954932984352e-01
1.596040531179062361e-01
1.702400794756994962e-01
1.780215805918304028e-01
2.040093635595522370e-01
1.610449459286443508e-01
2.049661248044168382e-01
2.208788630533446984e-01
2.297626484154694504e-01
2.117985960473084961e-01
2.908570386561586396e-01
2.091290013808205228e-01
2.442310336400508597e-01
2.673040976626350762e-01
2.672728022154142180e-01
2.688143018726816269e-01
3.019124306176350081e-01
2.381674707360410537e-01
2.866265746456984065e-01
2.800473074255918071e-01
2.551176769290356416e-01
3.095089550523230648e-01
2.529329867312645752e-01
3.273591027590797009e-01
2.797753148071240314e-01
2.396763018086311148e-01
3.042915990560124406e-01
2.786164889881048712e-01
2.631464308693024501e-01
2.872795148853060088e-01
2.964376967031279730e-01
2.712134333457911217e-01
2.921681773734887133e-01
2.943186221031496297e-01
3.000365106198195075e-01
2.892569114517794526e-01
2.643636137838239475e-01
2.018858063426200722e-01
2.642896028419127741e-01
2.515258651829824776e-01
2.291083053944288905e-01
2.321996959649046677e-01
2.204479418101256138e-01
2.297950707342673038e-01
1.903337424491677865e-01
2.349803556407527860e-01
2.067818218069489566e-01
1.631563965493366686e-01
2.311786289470935118e-01
2.002203549156868767e-01
2.090917433161633698e-01
1.778973993710846191e-01
1.358830802355342204e-01
1.246481570343782319e-01
1.677640568499536022e-01
2.021477669764986940e-01
1.037202671286784339e-01
1.392901599599798146e-01
1.220201442824268151e-01
1.319777388158152598e-01
9.861131614977768078e-02
7.751654012363078106e-02
1.048937156804542054e-01
1.344243138269669013e-01
1.050945041320160284e-01
1.361435024623749157e-01
8.683551137302296385e-02
9.164507783973707689e-02
8.775649599469817486e-02
1.216053073484753555e-01
6.131885577395670278e-02
1.468147618449262004e-01
7.161584371147525219e-02
5.137096930321974342e-02
7.289823936979773766e-02
3.755387755453768600e-02
3.840910074430589627e-02
6.288119015012404167e-02
6.690729565015991753e-02
1.141772458527741813e-01
-1.297305017704748764e-02
3.319139298740057115e-02
6.245908058035916366e-02
5.166237477747388784e-02
3.605364735323206282e-02
2.078544358344920975e-02
3.238077953776045959e-02
1.341003652568921456e-02
8.093905109046596602e-02
4.211403670928578341e-02
1.510576880791369286e-02
4.932668872119480574e-02
2.474561507669740396e-02
2.508015113450785469e-02
5.416098266477752110e-02
4.679530434464990174e-02
4.132796432475155379e-02
5.495607414180485317e-02
4.066695710590256807e-02
7.855843947251783810e-02
8.752085179385969693e-02
4.068089232811315792e-02
5.053479119952197784e-02
3.382928299673931827e-02
2.914073499817844415e-02
8.661481458133626909e-02
2.008657252826679881e-02
2.646366918734028087e-02
5.431456212204741063e-02
5.515343782774950743e-02
6.986240998040310624e-02
1.393246573431786844e-02
1.769870279059915924e-02
7.478696135701214109e-02
5.632262659524329973e-02
7.167532779619990857e-02
2.430977157105035369e-02
1.434686499156929695e-01
1.541730778129019319e-01
8.883673011096417105e-02
1.220684079694011881e-01
4.727320792487255119e-02
1.383204077745540383e-01
1.454657144215074083e-01
8.019622004512592939e-02
1.140894342624428903e-01
1.167987556881094763e-01
1.553045054420297832e-01
1.164965231669386897e-01
1.844939970564668241e-01
1.760844771797024921e-01
1.867894235646404000e-01
1.931922785617757599e-01
1.535335309968768602e-01
1.826016622331873562e-01
1.592387334654626063e-01
1.678118638980717614e-01
1.597973888528560205e-01
1.712505054010601824e-01
1.154014416628330458e-01
1.466163391275966399e-01
2.005733281261983247e-01
1.120744134253988250e-01
1.174744830700542170e-01
1.968468262017110948e-01
1.159204651092149430e-01
1.968729199108485706e-01
1.139267579663075097e-01
1.648513880726542036e-01
1.724410516184885223e-01
1.012218890796913462e-01
1.610263534257556639e-01
1.051915130507728308e-01
9.733080615147056414e-02
1.269844486087077784e-01
1.423800570345060412e-01
1.508144978852707929e-01
2.010741315598197354e-01
1.976599468070252275e-01
2.212872510915468438e-01
2.904413962088183698e-01
4.231878459823377736e-01
4.182965044754041184e-01
5.321963855326725668e-01
6.400911980668227974e-01
7.461577892051831640e-01
8.648721091771657266e-01
9.763636190084075128e-01
1.040444120231882819e+00
1.212649105867080968e+00
1.169577800265102496e+00
1.296486439848065109e+00
1.365361355171854196e+00
1.382592136699408503e+00
1.357495489154791457e+00
1.399098098291167380e+00
1.357469473113698921e+00
1.289474645598489122e+00
1.203311783238955712e+00
1.125746261808258986e+00
1.005093447179366439e+00
8.922276629796748182e-01
8.058083653672802882e-01
6.115678301183159471e-01
5.992953809211908345e-01
4.997252625747581334e-01
3.960670864873380714e-01
3.573429883315833999e-01
2.909767649527384981e-01
2.394909511848500316e-01
1.555716662377149284e-01
1.312636159557729609e-01
1.136920206162965602e-01
1.350671413746011573e-01
5.951214492743166218e-02
8.219558610054214509e-02
1.237172121064026714e-01
6.769125575319376309e-02
7.329925447887200574e-02
9.664579026102480819e-02
7.494553872018529239e-02
2.321886940942691560e-02
7.035671248246921916e-02
7.744809878811068082e-02
7.064345206877359340e-02
1.259782344571684920e-01
1.108471090756954769e-01
1.126342884787153442e-01
9.550288337934383087e-02
1.226625301032496784e-01
1.374804241027362539e-01
1.753709238184198160e-01
1.174121323072600531e-01
2.100423868182461906e-01
1.008411491856151809e-01
1.586058770758293213e-01
1.525371186321670403e-01
1.510664049812676657e-01
2.029423172566423295e-01
1.846009568194214301e-01
1.846041312923777933e-01
1.954193232500859856e-01
2.038355604646984731e-01
2.251233222256678324e-01
2.279382204932475509e-01
2.667946266391305055e-01
1.851627278528818199e-01
2.391792857199299682e-01
2.506136229680119842e-01
2.860314857904370789e-01
2.111678799387321226e-01
2.446322609402291626e-01
3.135418269731374830e-01
2.709327325652288176e-01
2.246011875216802900e-01
2.515590673887727058e-01
3.339881008037888788e-01
2.320076464401930605e-01
2.497326331103885133e-01
2.725748978560979530e-01
2.569770582776235157e-01
1.945334927680374970e-01
2.040360798316587787e-01
2.427591640364140380e-01
2.115465993864206473e-01
2.427012622623000715e-01
2.412354813223686056e-01
2.122533992392356406e-01
2.949560287890292676e-01
2.301797531357032689e-01
1.996368440869206728e-01
2.578465275862555917e-01
2.316906941411680798e-01
1.751029640283865985e-01
1.946592385176474649e-01
1.761543440015230222e-01
1.675825756243434217e-01
8.803361255248913497e-02
1.680361019458544158e-01
1.395616588723514739e-01
1.503259131072203769e-01
9.695964649924176948e-02
9.956104366882244372e-02
5.258760765790072844e-02
9.309324815274055975e-02
7.750491806404916084e-02
1.307653930876366832e-01
8.486981078096680897e-02
4.762465489057515072e-02
8.422270790977112731e-02
8.301833370450253935e-02
8.832263498819913072e-02
5.643563345245782015e-02
9.859310092648508606e-02
7.620041416628847708e-02
9.026398362452318913e-02
2.699577629408732304e-02
1.526100159509521242e-02
6.395090721428997593e-02
3.507447525944263483e-02
3.144160970243588260e-02
-5.612726132596557171e-03
-1.919868540579383609e-02
-2.307942748372260322e-02
3.871804225101845021e-02
2.515270032027892844e-02
2.530337661442581820e-03
-4.287462342588595210e-04
-2.405209028458346956e-02
1.633089202308019017e-02
4.384344582637555998e-02
-1.173378227819150271e-02
-2.138663939087683333e-03
1.720671595446016458e-02
2.789544596575844332e-02
-1.380068039914122795e-02
2.316849499156773545e-02
1.700777350657177445e-02
3.995648519264077825e-02
-1.003878669506779592e-01
-5.976991249562080277e-03
2.737271058766956033e-03
-1.344343037952238848e-02
1.158426076350066794e-02
-2.725743056763942768e-02
-1.618585516906685673e-02
-9.108317807112614045e-03
-1.970946000242456211e-02
-3.842663726211935360e-02
2.046416789340465420e-02
4.897076654340193347e-03
-1.688403397025872027e-02
-2.672957249540381525e-02
-1.411928857789434763e-02
-2.030305943193455587e-02
9.973261365665488098e-02
-2.917243556668100424e-03
5.775121234504874967e-03
-6.643456710775371560e-03
-4.466228621848834790e-02
2.650217591387437482e-02
5.241812713217214315e-02
-4.848480616592674985e-03
1.693320580918599924e-02
5.332362892746579652e-02
4.550472754029816214e-02
5.576277946826876941e-02
3.326781673331586503e-02
5.040150748130461933e-02
5.880547621655303481e-02
5.671633946321606723e-03
6.814647757491125446e-02
3.961335440719100653e-02
5.308864362030912831e-02
9.874376319687942771e-02
1.084757649818695463e-01
1.147400252827036338e-01
9.494442481582415078e-03
9.948876852964946838e-02
7.903704268111931552e-02
1.104389305122470688e-01
8.705739480144861209e-02
1.161612239751114162e-01
1.574320875557471966e-01
1.647508165424826365e-01
1.078155775486394075e-01
1.559537793846700326e-01
1.016707569179602089e-01
2.001022431748073482e-01
1.045812435951120334e-01
1.293838031043971770e-01
1.252586522850590578e-01
1.348318888776330882e-01
1.180420340596816803e-01
1.294236535411407707e-01
9.158995539789549500e-02
1.144452490739600592e-01
9.412479410140535407e-02
1.099284644946828815e-01
6.641198982073225066e-02
8.289940796918741917e-02
9.137118162728793958e-02
7.917549059074079076e-02
1.162416443766501190e-01
7.317532576127092070e-02
1.157110476592955184e-01
3.076172943372047427e-02
6.233051262065961162e-02
1.881349928594647780e-01
2.080763132459753639e-01
2.093655242900408497e-01
3.004274898578777608e-01
3.306538898827431350e-01
3.717668196805964387e-01
5.642284957279541935e-01
5.630594281759674358e-01
7.328482457422839103e-01
7.400185296368383403e-01
8.933660897645260279e-01
1.022458664111672411e+00
1.088376990398596700e+00
1.149433596398923063e+00
1.216384731405595776e+00
1.332916575080074661e+00
1.340887626388189702e+00
1.315209963812818961e+00
1.292591975715638775e+00
1.264837211270812167e+00
1.220453717020088202e+00
1.170179684629045980e+00
1.073087574966743674e+00
9.171797243963943913e-01
7.691915714428781969e-01
7.177515459451162538e-01
6.354286928304031523e-01
5.507229363765013819e-01
3.942652455263411793e-01
3.186461607291167786e-01
2.367170523905050006e-01
1.807338400727942496e-01
2.293206908443023717e-01
1.947590336003304778e-01
4.481567364258551983e-02
2.846489518955320347e-02
9.763144074059640354e-02
8.774216608935882233e-03
2.301732174415401649e-02
6.819747466008596604e-02
4.210499482746953015e-03
-5.146338678731904315e-04
2.986876117051406182e-02
2.198875685995534818e-02
5.318513390025195881e-02
7.618328764435691736e-02
3.984454765079509242e-02
7.187332129814275050e-02
3.822621452761145594e-02
9.057568026176296416e-02
6.394525682297313995e-02
9.613822624835163810e-02
7.286940318162353492e-02
6.991255803810261793e-02
1.427474201430417866e-01
5.676392200832633406e-02
5.937360176399245765e-02
1.268162644196997035e-01
8.590861759997639457e-02
9.402086456681599258e-02
1.676811961623453362e-01
1.134910485222025145e-01
1.529005460227262914e-01
1.326962066409509422e-01
1.097993878781400034e-01
1.788806964532148880e-01
1.318242532285821556e-01
1.868575802098552674e-01
1.580334840389410744e-01
1.981946458618860651e-01
1.672581166201769498e-01
1.652303001094703738e-01
2.034187229892843729e-01
1.944859573905143302e-01
2.351503243468140159e-01
2.118690446666031957e-01
2.326429012540675301e-01
2.027948649814744486e-01
1.943849190753377532e-01
2.112694271563257398e-01
2.185406625599952413e-01
2.186332420397095744e-01
2.031277067201033293e-01
1.690141286736313586e-01
2.267546703958995269e-01
2.010875107733114953e-01
1.560319041115415528e-01
1.805332382196548624e-01
2.209307189769446622e-01
2.745100418355993499e-01
1.811461067628724608e-01
1.965846177164719544e-01
1.881285668548993706e-01
2.029214054759267971e-01
1.409513485669656174e-01
1.060237307601407108e-01
1.000044366373600280e-01
1.454443922035134062e-01
1.366396413037475888e-01
1.081791887382745621e-01
1.297827657775860177e-01
1.495361740766729952e-01
1.024990700717813702e-01
1.152781426358220757e-01
6.821934476172700212e-02
4.685033382327994517e-02
7.080358085182131278e-02
1.194554155109894544e-01
1.500767052784175021e-02
7.973009947861948998e-02
8.863829481092866391e-02
2.406176586096184927e-02
3.641525216766608453e-02
5.613993265625401297e-03
1.240896924504590604e-02
4.804144632339944765e-02
2.829125426544518151e-02
-2.496153415547828353e-02
1.067114919260294531e-02
-5.476936391163609447e-02
1.062541819132665349e-02
5.226223327419959874e-02
1.767095091378625971e-02
-4.836677202162787542e-02
-3.021122877668708240e-02
-1.022427180295494564e-02
2.603344884043959362e-02
-1.443739441657126282e-02
-5.112181709310945066e-02
-2.907042561912949810e-02
-3.635477600388117153e-02
-3.056418886557674477e-02
-7.644711400296225201e-02
-2.699767085513441606e-02
-4.241810008874007110e-02
-1.759211352808650805e-02
-4.506209754475510448e-02
-2.039153439603652584e-02
-8.919950697845090148e-03
-1.274788361700175676e-02
-1.862872875042208623e-02
-3.499820092969843643e-02
-5.234077882746113880e-02
-2.792051269301732211e-02
-8.557359727262026095e-02
-1.727845523307014464e-02
-5.781830971962224203e-02
-7.444893062345127321e-02
-1.009899603370306154e-01
-5.650929370643125588e-02
1.403808356156329568e-02
-2.816082176124877143e-02
-2.132718790069818363e-02
-4.199924418011486554e-02
-7.131032782512723711e-03
-2.707496719647753403e-02
-4.067338303384995107e-02
-1.807344844347185536e-02
-3.489453635038725077e-02
-3.575069572713991672e-02
-4.567977502484731056e-02
-6.516576875239751820e-03
-3.242030578137929109e-02
-7.590213511170006144e-02
-9.054186816934241266e-02
-5.174564384685459428e-02
4.924362970074099011e-02
1.608591714015779328e-02
-2.345475402938709819e-03
-7.640951790579546266e-03
-3.946569528493027584e-02
1.829259652029298355e-02
2.392171420479635713e-02
-6.931696339488230274e-03
3.843104947147812922e-02
6.863456685367452792e-02
1.065798587417021853e-01
3.292024586654414275e-02
5.934416011540151470e-02
4.503263640389021383e-02
5.729429707809875760e-02
9.171858369161542401e-02
6.354236893317802282e-02
5.616446144020034031e-02
1.037833563336036796e-01
1.307542747385089799e-01
1.163965752729337194e-01
4.991262923302818705e-02
8.459155882336508170e-02
9.049063332526147141e-02
1.427678958204968984e-01
7.150108965222191915e-02
7.925233913053833512e-02
5.784878594456840939e-02
7.876936102334790302e-02
9.711219058949162319e-02
7.652425694780101706e-02
5.358249042004219198e-02
8.694992226881934072e-02
1.795170458636095867e-02
8.445062900291641639e-02
1.003670220881693331e-01
4.812597170290427301e-02
3.344166355011474190e-02
1.014866852863005320e-01
9.190353534741688146e-02
5.149141885798610291e-02
8.184223427086173563e-02
8.606205303347741475e-02
1.114777848529556747e-01
9.367095637151234833e-02
1.049107577410316045e-01
1.622116801743294090e-01
2.393781542756244218e-01
3.041760493358202089e-01
3.229670821532523717e-01
4.102628990965198064e-01
4.822199111913385017e-01
6.293399519947185938e-01
7.525720834069291598e-01
8.196710270277509647e-01
8.750622868706566804e-01
1.015183975790169724e+00
1.027815209525397844e+00
1.148917331370434614e+00
1.248328324102200959e+00
1.281743742914216888e+00
1.305089775619871828e+00
1.332410163842158379e+00
1.267263571863483262e+00
1.205693428998235062e+00
1.146512497345823167e+00
1.123820148903502014e+00
9.948176880402999078e-01
8.791609186590375602e-01
7.873201144817182362e-01
6.902763812815099209e-01
5.935258415478309457e-01
4.357107639391136211e-01
3.823529333884510550e-01
3.018621444467891601e-01
2.197944384970364762e-01
1.906475344030654218e-01
1.193853660457376009e-01
1.226599788880191333e-01
4.288824951232737825e-02
7.237182008522827226e-02
1.908766680033334440e-02
6.728047567828090991e-03
-1.244579001947197783e-02
6.559965008931131769e-02
-6.311263162024335904e-02
-1.086839373363141653e-02
4.351525504324434135e-02
4.337204132590311012e-02
6.517707319724019843e-02
2.947113572968339951e-02
8.077826003121307830e-02
2.713322632886952523e-02
4.712694470678585601e-02
5.601946013808744435e-02
4.538959010656162807e-02
9.771482296322432648e-02
3.256674270728156934e-02
6.022555558699482781e-02
8.980832928763467227e-02
8.685514231987281897e-02
1.108558233454145225e-01
6.803689919529112839e-02
1.287204884286230200e-01
1.184358634504907026e-01
1.631455334810355817e-01
9.136886362987903243e-02
1.942220966831452733e-01
1.392783885897671825e-01
1.192391619409373660e-01
2.031704248550887104e-01
1.203629971528359099e-01
1.493801118169980624e-01
1.796176960259410482e-01
2.289666936967620636e-01
1.460046596766195193e-01
1.675459585101975457e-01
2.202467704313370300e-01
1.982111418025671867e-01
2.264073298449103822e-01
1.986182028759842511e-01
2.101320604510800161e-01
2.439338230352471881e-01
2.266502243369467595e-01
1.918319815992053645e-01
2.795874881684518032e-01
2.273336752998903199e-01
2.019977353690609601e-01
2.067334638338045871e-01
1.830202159268901063e-01
1.776227691901608452e-01
2.266370282253921675e-01
2.325581551198563635e-01
1.945027940734460892e-01
1.960131715232031890e-01
1.375851211572054478e-01
1.224712717193993383e-01
1.512844106889935925e-01
1.652064493755505126e-01
1.533726145266801622e-01
1.107199618151537557e-01
1.612751141244000708e-01
1.321227597680429411e-01
7.386063600600423218e-02
8.638789191906348641e-02
1.195420661652845107e-01
1.028266935073935406e-01
5.181839905214480346e-02
8.705843825000922354e-02
1.200449888136597976e-01
9.287541162667163619e-02
7.523706184719694545e-02
6.409929189886631740e-02
7.161369621693726428e-02
3.759617758373030166e-02
5.961261059450860544e-02
8.207083316243947435e-02
5.209188964995564719e-02
3.480116896237211294e-02
2.955488706800127319e-02
5.766138836162132408e-02
3.196144725728077701e-02
4.661174564074652138e-02
4.531426849016471914e-02
-1.779807490430981853e-03
-2.127587160479213479e-03
5.444027114890193780e-02
6.494987582532651960e-02
-3.565081175209683373e-02
-4.173089669219725434e-02
2.833422683156632677e-02
-7.522060963616308826e-02
-3.291900181390334384e-02
-6.008107499527055861e-02
-8.107467882052701857e-03
6.126856039063745263e-03
-5.876892992513721437e-02
-7.827270596918501494e-03
7.761138823941249321e-03
-3.081279426246845421e-02
-5.682487686268451743e-03
-5.625243543979883964e-02
3.030823248993697733e-02
-2.413940444755683853e-02
-1.661613998734081526e-02
5.609880271165674365e-02
-6.597710858225100394e-02
2.350536665464140335e-02
-3.137161526173409820e-04
-4.357741263364967033e-02
-1.562505820728815609e-02
-4.507164454378867480e-02
-1.934565665013786642e-02
-3.622298394312942205e-02
-5.235407158555484275e-02
-5.692688834888320892e-02
-5.907532167843878440e-02
-4.390853452616447911e-02
-5.205195216126948243e-02
-3.471123595494902958e-02
-2.987149906881000211e-02
5.178525723500693179e-04
-3.908349273194274692e-02
-4.781410608711988974e-02
-5.721393481910475726e-02
-3.487463403027726144e-02
-1.502982584369101475e-02
5.059950795580872573e-02
-9.188285083904550871e-03
-1.982145337434994270e-02
-3.834091132659452061e-02
3.106699717894893450e-02
7.972501550097334244e-02
8.237547246234275256e-02
2.907501830731947998e-02
6.259575714080428677e-02
6.746988786377400293e-02
5.086385833282812408e-02
1.622441522872666853e-02
3.272665288094488145e-02
9.282027876628703988e-02
1.044264976498282815e-01
5.885202537205751205e-02
9.783567255462743972e-02
1.253421850853367880e-01
6.918167227885105297e-02
5.944023168910125832e-02
1.237996420255466634e-01
1.139053975228633137e-01
9.395682606949545823e-02
1.335688197031118518e-01
1.567668377841627547e-01
1.119236155732020871e-01
1.199331067100012360e-01
1.586579467620339579e-01
1.552298823676195871e-01
1.668469185970761770e-01
1.106341624430759452e-01
7.193436456734184081e-02
1.316259070845448020e-01
1.332379266660363437e-01
1.079047157603490181e-01
1.300835506756103377e-01
8.566246154351662978e-02
8.089767383560757252e-02
9.429880667009564454e-02
1.210531138127136641e-01
1.003361897997082780e-01
7.666708933083682398e-02
7.604080395476119081e-02
7.716436820466203439e-02
9.981627616314939222e-02
1.035778712265633950e-01
1.051167265024101349e-01
1.491547232067648998e-01
1.529177846847435684e-01
1.748592843233577887e-01
2.781631708127048630e-01
2.414096696881261050e-01
2.933092567669029482e-01
3.869873763697201374e-01
4.577113711199041202e-01
5.322963358842554005e-01
6.604487891101805674e-01
7.539325777910210746e-01
8.397549149123514356e-01
9.404907640275949054e-01
1.054882858521114297e+00
1.172887436633648806e+00
1.226875731974329087e+00
1.280629338396850780e+00
1.340094601447047618e+00
1.361172400613767319e+00
1.356574486901670040e+00
1.301756978021903599e+00
1.257239039539327363e+00
1.197581108106159808e+00
1.116436281500863048e+00
1.010246705610962970e+00
9.212236528790636036e-01
7.958607672517722387e-01
6.832219081062714805e-01
6.057304381052608377e-01
4.967604358394026032e-01
4.154393629007024358e-01
3.776113686196675978e-01
3.018286727621791177e-01
2.476520319827212324e-01
2.527016628251018138e-01
1.701171368135823148e-01
1.147599320326936484e-01
8.412337105457545761e-02
3.967642496450182743e-02
1.232675187716719412e-01
7.627111484119583618e-02
-8.927035693230663677e-03
5.297766144852863318e-02
3.989633213392863864e-02
3.958882856300050684e-02
5.102413949372199692e-02
7.731570538594316477e-02
5.792847928724141615e-02
1.065430086378924140e-01
7.787657576895705425e-02
3.899684010948595292e-02
8.416692309910153713e-02
9.997525569848197957e-02
1.048621964996714340e-01
1.195619550035632167e-01
1.329600162007572028e-01
1.443166196160892978e-01
8.769161229996177975e-02
1.483103770353103590e-01
2.084867937501445612e-01
1.987341637917664772e-01
1.803413238343731795e-01
1.926233716836690535e-01
1.251506904431319012e-01
2.303803980408758723e-01
1.551052307864747293e-01
1.907089907347225555e-01
2.114039483409599074e-01
1.766740894579089116e-01
2.296851519553161636e-01
1.768264129215631753e-01
2.368396266463375921e-01
2.819313873309967078e-01
2.230534036075420834e-01
2.149616452309488501e-01
2.481996163460615246e-01
2.321905666346495423e-01
2.495098562560924549e-01
2.566229870523675793e-01
2.600694974534781267e-01
2.340528969445710705e-01
3.011794417970794502e-01
2.989953830193572415e-01
2.559899065898939563e-01
2.111212531497975997e-01
2.218835856813287377e-01
2.133072597950776417e-01
2.514936284074960615e-01
2.358072264483321301e-01
2.093566777873389073e-01
2.327930796908624922e-01
1.757913393266006541e-01
2.493101254053952942e-01
1.764156074061801194e-01
2.097305208036888691e-01
2.473322180083734612e-01
2.078805609784948882e-01
1.779650848212078473e-01
1.704561771269333670e-01
1.515941229645652866e-01
1.547385103844064469e-01
1.546581250994327750e-01
1.932629210062600245e-01
1.767979105939223583e-01
1.883046867192394447e-01
1.513196326797783542e-01
1.176785784331116635e-01
8.166467474275923566e-02
1.269390515944930076e-01
9.837903927527297254e-02
9.849320900491316533e-02
1.634410219100284334e-01
1.694957571204656344e-01
7.477994026712274367e-02
6.673723819462179518e-02
1.081542472101370556e-01
7.058124104785687414e-02
7.607000356242268890e-02
9.040241451986298638e-02
5.577353665401692251e-02
6.019290129708751436e-02
1.444341326222934041e-01
3.465479757396291993e-02
8.771639881241047321e-02
5.890019765465346474e-02
4.932072036905089246e-02
2.347941886022763408e-02
4.568754593583997797e-02
1.929501733725604365e-02
1.851694395110535865e-02
8.423523055177613295e-02
6.393396494547717857e-02
3.041116777042029290e-02
8.468173200737444742e-03
4.660093426760438667e-02
1.810023558611227601e-02
1.048093846511062299e-01
3.739734705329167408e-02
4.622938551841203336e-02
3.002813695559059665e-02
-9.782336530100389782e-03
3.573246332055742686e-02
2.282417957904924258e-02
-1.576895011279210931e-02
3.495536693321714405e-02
-1.427570393983377053e-02
5.304162732331266228e-02
-2.901832585554453905e-02
-4.377786093720208160e-02
-2.247858006627574678e-02
-2.136193677364412943e-02
-7.590013924140232709e-03
2.806288468054328467e-04
1.267446793939551279e-02
6.417454524772572833e-02
2.534973752458827626e-02
4.687274512780321631e-03
6.295740470227251251e-02
3.570165509209950738e-02
-3.200955213582531989e-03
3.526959987600848667e-02
3.925109524620062212e-03
9.415339062157854211e-02
6.149386712940043548e-03
3.199410078938839247e-02
4.891945658568449401e-02
6.494740926882164311e-02
5.935996735033757798e-02
5.972536970991964428e-02
4.631743644970198054e-02
9.792117891780398320e-02
7.074416354322907163e-02
7.221541941158146627e-02
6.143365096475108394e-02
8.775184145728118223e-02
1.241523952505682177e-01
1.067897314237063050e-01
9.946132649496748634e-02
1.628076572309145043e-01
1.048869393110040404e-01
1.204311148462792191e-01
1.785530259721142821e-01
2.211222273158458540e-01
1.340990370145930810e-01
1.596662359598483016e-01
1.918166801788580567e-01
1.807768832117044866e-01
1.813213918725049834e-01
1.724674760444177002e-01
1.748803038544325950e-01
1.532857911303045773e-01
2.120937235323581971e-01
1.441850223023986577e-01
1.809132933199908977e-01
1.973507465899148605e-01
1.301688234275620581e-01
1.764471507878286605e-01
1.605153960224025012e-01
1.869949978385673228e-01
1.987308372782128907e-01
1.476362500712120607e-01
1.470132324154252712e-01
1.233432468742664545e-01
1.602771296211308871e-01
1.501602542821895980e-01
1.044852269905487546e-01
1.333720959924661609e-01
1.734374454280084299e-01
7.152181735932434947e-02
1.891708161893438933e-01
1.856244250369052384e-01
2.073737115547904519e-01
2.063523000964353482e-01
2.105095105232059338e-01
2.417924580537002544e-01
2.901269906745891358e-01
3.806851594805922279e-01
4.459421944860472165e-01
5.146806122958860197e-01
5.371843152046087422e-01
7.419831783437741413e-01
8.517432035386801603e-01
8.869604146728731209e-01
1.020740733623382468e+00
1.103432258672587096e+00
1.194861875103727211e+00
1.316982423293955762e+00
1.364630622864018816e+00
1.334220938772135323e+00
1.367290207214721054e+00
1.398193993312608185e+00
1.355136193671141243e+00
1.266625771136142609e+00
1.294576183047897677e+00
1.136715174655936522e+00
1.078300455139745040e+00
8.970697003635382805e-01
8.673256592526868980e-01
7.499731632615465049e-01
6.265068707241424617e-01
4.838464882674422540e-01
3.953832502380909553e-01
4.175992971830181921e-01
3.415001154645805892e-01
2.310498856546893132e-01
2.104887342572624442e-01
1.603806494846474751e-01
1.400620759977974084e-01
1.262095488405009791e-01
1.088749529382734837e-01
1.176410446976459967e-01
9.900058034328770851e-02
1.623060093946334659e-01
6.625693551479121257e-02
7.402297753384834422e-02
1.177112157159515976e-01
9.219005261704750487e-02
9.949285726329076818e-02
1.409223189194400150e-01
1.467811043646973512e-01
1.094181521633762061e-01
1.903333941010536545e-01
9.629401892575965849e-02
1.210438386502036417e-01
1.216912694680993140e-01
1.325486838599155281e-01
1.717750486569857293e-01
1.650836018249879911e-01
1.487678601780479115e-01
2.151848980197137162e-01
2.176577360058114807e-01
1.591616621028225376e-01
2.195441129573997840e-01
2.437208194842150066e-01
2.159710890151310403e-01
2.664200161046917925e-01
2.455841899440236453e-01
2.745065270402071711e-01
2.110228907413659871e-01
2.674209578185667846e-01
2.568999233330095944e-01
2.727781480348773768e-01
2.381179378671670899e-01
2.220108121115226540e-01
2.783184887669380991e-01
2.742076444369561661e-01
2.692727875757416900e-01
2.389498261203210905e-01
3.158744422182286349e-01
3.018485727117365958e-01
2.801327198627637238e-01
3.083121517687253954e-01
2.581270299191024686e-01
2.893955241352753061e-01
2.924039817994975587e-01
2.945263127795165747e-01
2.354140701158948801e-01
2.365745885181607111e-01
2.218862748327951884e-01
2.610377902316623477e-01
2.700489614446510700e-01
2.778023948654504971e-01
3.010377755699139568e-01
2.669843970603372196e-01
2.538094128517622838e-01
2.697326603732267403e-01
2.456910576630919885e-01
2.547382893015279204e-01
2.514944023596026867e-01
2.814641718669253501e-01
2.474213250962381816e-01
2.258649864983961197e-01
2.396721300518008801e-01
1.961260450593937943e-01
1.901303006914948357e-01
2.301144068146120658e-01
1.944773537995141965e-01
1.413655587399475499e-01
2.011968314323461793e-01
1.689543538308284076e-01
1.796764225543958093e-01
1.302746689442536576e-01
8.600502648849944753e-02
1.603520102675817793e-01
1.824488882424450398e-01
1.654472860556576719e-01
1.337792728754841065e-01
1.301169118769390232e-01
1.467975281078923444e-01
1.277682817324385656e-01
1.396011076391778516e-01
1.305913202222970249e-01
7.265577685767590776e-02
7.360400774431272164e-02
9.714334986242470493e-02
8.823014616198200655e-02
1.239465850298227534e-01
3.808679224911706851e-02
8.334095843469342679e-02
1.114598915184788069e-01
9.716635564185872875e-02
1.153986672909875499e-01
7.083932992708473486e-02
1.043283623568618951e-01
4.477112977996944299e-02
6.168632449069544332e-02
6.229692834441402649e-02
8.860778801164791163e-02
6.976882769792169814e-02
6.373580498104380876e-02
8.016225049607712816e-02
5.306079835758946428e-02
9.571103032289927925e-02
2.622512493893019297e-02
8.418234743784044904e-02
5.475352244585129924e-02
6.965064885381860860e-02
8.323064467170364356e-02
7.013496417263460903e-02
1.705241531559501672e-02
4.417698236985765498e-02
8.822942333764270673e-02
4.409281509253068498e-02
1.148481209379900170e-01
3.321569450686288200e-02
5.362738774974441791e-02
8.869678635481598183e-02
1.343420640955137468e-01
1.095138819479528347e-01
3.067410005498164005e-02
8.908016951070113487e-02
1.902159142222643873e-02
5.962550216595086106e-02
6.132128687953200541e-02
6.067353878064830897e-02
7.845732540724911774e-02
2.287026456457569301e-02
3.065260696783724675e-02
1.446272691995470761e-01
5.266399955409635514e-02
1.145363488058832313e-01
9.139737408166456745e-02
1.123723058768676952e-01
1.240722761729699253e-01
1.391050795709848353e-01
1.356024603013287755e-01
1.873268043407451677e-01
1.345778340730037492e-01
2.152841448040576644e-01
8.915291749666523491e-02
1.597742522519631780e-01
1.878781501654232522e-01
1.821002699276866588e-01
1.779783577028787311e-01
1.798643524552732131e-01
1.958942232666135985e-01
1.563335246779111454e-01
1.721310295417708414e-01
2.284163040975563108e-01
2.068195927834458325e-01
1.747863983962636147e-01
1.881662869862114340e-01
2.310114371825455759e-01
2.026555134825133719e-01
2.254368271789547462e-01
1.781069119687669344e-01
1.261212089209921561e-01
2.160781022687464636e-01
1.506040277363716040e-01
2.258867627950473522e-01
1.893445427079565313e-01
1.789185989393269338e-01
1.452738214397317762e-01
1.511728157352333068e-01
1.684711590553241156e-01
1.440799127869279439e-01
1.792239052076716743e-01
1.215104426143422123e-01
1.580072327193934867e-01
1.551731662871249917e-01
1.636811645069751742e-01
1.921787579909779720e-01
1.985931067444517972e-01
2.619558277328287166e-01
2.874610315971580232e-01
3.074087788263781262e-01
3.814739024808261325e-01
4.543814991685444782e-01
5.208728817977383851e-01
5.320039629354192945e-01
6.691033071191786474e-01
7.208279932536274526e-01
9.364943970401917728e-01
9.389013420306919766e-01
1.038020792990311136e+00
1.156661036345901339e+00
1.265681961692651347e+00
1.300598235526525981e+00
1.388067226017839273e+00
1.385723937739425038e+00
1.389683842244485934e+00
1.367762703025607429e+00
1.371052962134752695e+00
1.284619126856383131e+00
1.271787661546125214e+00
1.159127755036678309e+00
1.057372386227892536e+00
9.345663037118940863e-01
8.157767684839204447e-01
7.404237612377522204e-01
6.428226165042850715e-01
4.667135876676848927e-01
4.970247856711570433e-01
3.343282273828290796e-01
2.951738231263758561e-01
2.270593956597629082e-01
2.374306947290851233e-01
1.773238931720739486e-01
1.838833436786136699e-01
1.598114617765994672e-01
1.172542423331509598e-01
1.119428159944966250e-01
1.148954472390851522e-01
5.089626896633243219e-02
1.074156640856257505e-01
1.038096434141958235e-01
8.284273895055019321e-02
1.274986800320791203e-01
9.836344356048894177e-02
1.450962589126282287e-01
1.103580270967885607e-01
1.855549975945630925e-01
1.111844906125357135e-01
1.426425059801255668e-01
1.772191994727031206e-01
2.204942608403051840e-01
2.035835623223458402e-01
1.949969158095586352e-01
1.574126945347062156e-01
1.728595196187374672e-01
1.959779800699541774e-01
1.684610733812961225e-01
2.259977238988899184e-01
1.917087300854399268e-01
2.146632038622387773e-01
2.318024843457344997e-01
2.356062600136846208e-01
1.977680040476536283e-01
2.245270251370509729e-01
2.975169852044761698e-01
2.291669256649342123e-01
2.803609044475491308e-01
2.979215605318472626e-01
3.002939000117206270e-01
3.606693572166450035e-01
2.586672121326596407e-01
2.660388436516454846e-01
3.095045324562902822e-01
2.931275761975027372e-01
3.173963293116226492e-01
2.750181045609481068e-01
2.917777281716963933e-01
3.195048406693838938e-01
3.087667468544870175e-01
2.806220793261454682e-01
2.382309121377154948e-01
3.207636238991062316e-01
3.056454892036267745e-01
3.257497415900580950e-01
2.381692940751905518e-01
2.856620732640793858e-01
3.125681904408921241e-01
2.291721901895818481e-01
2.353795556011822887e-01
2.840394855244594563e-01
2.325147569006015824e-01
2.954837182250253935e-01
2.407392300061608481e-01
2.410680735285457843e-01
2.354752560833781039e-01
2.608788183728311116e-01
2.073444823111494917e-01
1.820984670149522755e-01
2.011307779717214639e-01
1.845553351000512599e-01
1.355650903398218643e-01
1.576233066221463808e-01
1.505888282439856174e-01
1.485308511785424779e-01
1.288742611216494582e-01
1.765198358207198392e-01
1.413971060440140093e-01
1.212094706488031082e-01
7.408513870870016282e-02
1.460745992769723611e-01
1.605199725934566002e-01
1.058779382292314442e-01
1.488448395250005218e-01
1.289008842267932997e-01
9.165964621359973252e-02
9.177776666913495252e-02
8.141635194510288276e-02
8.992854398803978855e-02
8.517504221425159505e-02
1.035976674604834336e-01
4.446450831873764026e-02
3.781821675038892633e-02
9.152002948044821173e-02
7.630908959187315821e-02
1.112581362605207513e-01
5.653343567592439278e-02
4.930856951172573471e-02
1.734933051294933193e-02
3.849255613754556937e-02
3.613811911550957046e-02
2.201428332046291222e-02
5.956884155691802296e-02
6.308007465490214627e-02
8.012885823557203135e-02
7.105159366190869075e-02
3.157468920467831897e-02
-1.813463525571239188e-02
-3.709086984097028500e-02
-2.158333071597696995e-02
3.668023511546263798e-02
2.961184560746649153e-03
5.851615839442733669e-02
8.035059885382828115e-02
8.194896707508680239e-03
7.220120016331785240e-02
1.745174958412651009e-02
7.298858363909976887e-02
-7.643025503239544993e-03
8.798762119868755449e-02
1.006130171555641162e-01
2.187144872398630313e-02
5.881061732468328973e-02
1.188880198940839295e-02
2.392700137409484520e-02
2.792348643449170387e-02
6.831226564614015229e-02
-1.661565077041112989e-02
4.859945144181805621e-02
3.236593684415069172e-02
-1.935563424466891363e-02
8.222731801079943836e-02
3.980897283408204451e-02
5.797857954197811747e-02
7.688189589939577184e-02
3.105099988406274242e-02
6.060418853939299189e-04
6.298761689295866162e-02
1.926988493219586665e-02
1.204101395160563082e-01
3.141402807860937257e-02
-6.546083975249533671e-02
5.481638812079873968e-02
7.741285565128477875e-02
7.587024806462523002e-03
5.499851678659874177e-02
2.282886959555684506e-02
7.822365735862715774e-03
-1.013115929628378986e-02
3.218093852088819290e-02
-7.594178256884492884e-03
-3.037696762738842718e-02
-3.338237925153163255e-02
3.353731721080820821e-02
-2.401080559476141685e-02
5.370639186754127409e-02
1.931207622659393552e-03
4.467193651554018236e-02
6.803536214450464636e-02
-3.943124370048825544e-02
4.879410746387195796e-03
-2.002121671318245547e-02
2.373549793405723557e-02
-2.817410335069521835e-02
3.234042039775396338e-02
-4.928323014633684968e-03
2.992133628212457347e-02
