1.160733092518707155e+00
1.222530499056207365e+00
1.249877190256555748e+00
1.180890063991731687e+00
1.133035406871571338e+00
1.013573508059169015e+00
1.015216323442879043e+00
9.508628903162216206e-01
8.492848899879652524e-01
7.448960725389037751e-01
6.998495988456715500e-01
5.800508690768735320e-01
5.048948824744354802e-01
4.982910142583478752e-01
4.475951161112970977e-01
3.397081244960049595e-01
2.812519610495739508e-01
2.509747161134654458e-01
2.509058824911077346e-01
1.838168318505711274e-01
2.365482156834969596e-01
1.682649006672531644e-01
1.816151040518985127e-01
1.403439068775387821e-01
1.751769658142267039e-01
1.751121398855495781e-01
1.042686735463036196e-01
1.352614361944625143e-01
1.532408870622710695e-01
1.454321436833573844e-01
1.913160800351517976e-01
1.517880169342854801e-01
1.960971824425507548e-01
1.944420841812033451e-01
1.821316191960759001e-01
2.136787923253185284e-01
1.505669052363942106e-01
2.006263060262170328e-01
1.850434487082964485e-01
2.108478371004933183e-01
2.057233013804219968e-01
2.272967210999916887e-01
2.313928396184302405e-01
2.407801159582070860e-01
2.473559647590424238e-01
2.644500147765362907e-01
2.145703191565256074e-01
2.725155081144823854e-01
2.165584892781567961e-01
1.825922101321944546e-01
3.298477855011821003e-01
2.465079790417279426e-01
2.649638435143970572e-01
2.259425295565620773e-01
2.713738259126753372e-01
2.940551037083419250e-01
2.976573955838943131e-01
2.563620920415675131e-01
2.811069461358971511e-01
3.069820299011504772e-01
3.042244226886159364e-01
3.017052170677858580e-01
3.210978674402358291e-01
2.950791567223918777e-01
3.398164110156134399e-01
2.885924949789930305e-01
3.172014190646338938e-01
3.168941126708467726e-01
2.440924808910713562e-01
3.044302587607224941e-01
2.696036132069880575e-01
2.558259639445952804e-01
2.703330119163201983e-01
2.845943753050996228e-01
2.291922164002911932e-01
2.730735587667302289e-01
2.616160009677468423e-01
2.949299338475577237e-01
2.402019995868227009e-01
2.901268523820291767e-01
2.610787409858639219e-01
2.433500062898565075e-01
2.773008787565800493e-01
2.913786693052367593e-01
2.218922697820996659e-01
2.004255106530409281e-01
2.298491115106365834e-01
1.685905034178452888e-01
1.665209816934001275e-01
2.390143586419632982e-01
2.112231585848356186e-01
1.626006019043075290e-01
2.767100370210205940e-01
1.355569588362279254e-01
1.900383700729124659e-01
1.420537808949017267e-01
2.139714283501297498e-01
1.393017248537501696e-01
1.414913579677747335e-01
9.068638322534987306e-02
2.024752870447927844e-01
1.166389927003074478e-01
1.449058547016859599e-01
1.261111940708674328e-01
1.050459569951099070e-01
5.053363249587346229e-02
1.064474322153899505e-01
1.012372336681133661e-01
1.152022810333161451e-01
1.664153685602958732e-01
1.179584177900138697e-01
1.211509800751070093e-01
8.308908807483536552e-02
4.989051519156370573e-02
7.810800355338395895e-02
6.179813916546621211e-02
7.982344394089721518e-02
6.413550325544009612e-02
2.640256853555317251e-02
1.126491035283263276e-01
6.845123843713635248e-02
6.093279559712000415e-02
3.596849285179562483e-02
5.324172556162277969e-02
4.010516684807895194e-02
2.878894638349329890e-02
6.819310899065923748e-02
4.804304234136345247e-02
8.345046479789644533e-02
4.914994312332930659e-02
6.245140643380066303e-02
6.071760776053569675e-02
6.886440974523443115e-02
3.134178513786758935e-02
8.286811221993026222e-02
1.987010778672173780e-02
5.597309265716948062e-02
1.803275801243538201e-02
5.008694789120114732e-02
8.000730714337678240e-02
6.956230049669634430e-02
8.431097971406781300e-02
4.315263981396312565e-02
7.924962952145442330e-02
3.098397722853621361e-02
3.780210479839777454e-02
5.529687270169308944e-02
7.677225478594139341e-02
3.476521242825632990e-02
7.199095216727832702e-02
5.806379969256883489e-02
6.126833169552307196e-02
2.560225011558702954e-02
3.982802815985810041e-02
4.874164808489322986e-02
6.191504159000705415e-02
2.787080473170054987e-02
1.370661523489328376e-02
-1.106789520518949160e-02
7.582265865845011499e-02
8.239604112169773842e-02
-5.491723336474393924e-03
5.790382195404541327e-02
4.527347270717393957e-02
9.418088828206497287e-02
5.258324234068852826e-02
7.662654708416263838e-02
4.903310299064291000e-02
4.287526881763400327e-02
8.838150902125593844e-02
9.977903571908396108e-02
3.162022290261323754e-02
1.064234072870997166e-01
4.557789205238826913e-02
7.745174776192458033e-03
8.113361155188741902e-02
9.934410006650246094e-02
4.219386627398865469e-02
3.193323688905024688e-02
8.053065338264325801e-02
8.067509426207383760e-02
1.449661356437679516e-01
1.087600783940372573e-01
1.351102282521932652e-01
1.241780981507051990e-01
1.698756890034127942e-01
1.010796705912105908e-01
1.302676233794587968e-01
9.093872091304344707e-02
1.674532426832676668e-01
1.815936372056856096e-01
1.793421928408848454e-01
1.542915124272096761e-01
1.180704133364585268e-01
1.646932969739301755e-01
1.512576381278796234e-01
2.033072820691307903e-01
1.665637799554556819e-01
1.693258844987494682e-01
2.510232285698348886e-01
2.124247303411995746e-01
2.229452817497143968e-01
1.770864838657693341e-01
1.607662090079051698e-01
2.266433613488845478e-01
2.397968626981876183e-01
1.563695061143305365e-01
1.789195535943654547e-01
1.660699671150390189e-01
2.066040481851259270e-01
2.230789972551544820e-01
1.775021798444185450e-01
1.753103094233692816e-01
1.255976365684225715e-01
1.536466000558610601e-01
2.257927121677622828e-01
1.942333528595903969e-01
2.070159816423012833e-01
1.693162571820298334e-01
1.748373494520821525e-01
1.885731116139374441e-01
2.055324783200734862e-01
2.483159162161511779e-01
2.021912292865214733e-01
2.383638292071422748e-01
2.442965631136369553e-01
2.406883091240962502e-01
3.655091754425810469e-01
4.353436774404657039e-01
4.578264652578235561e-01
5.004454694076494459e-01
6.140252479285202014e-01
6.424090770130913564e-01
7.270385318628812543e-01
7.839936284535051758e-01
8.659644796637228081e-01
9.289687211521749921e-01
1.029825806549717226e+00
1.037710347855840043e+00
1.140032083458751622e+00
1.148172207359461128e+00
1.222898483855846763e+00
1.299457490286962669e+00
1.254034575234497018e+00
1.258791496681359368e+00
1.226655805169974967e+00
1.092198862385394653e+00
1.108211042923729739e+00
1.065424186248873584e+00
9.209261023697142834e-01
9.007837903376991751e-01
8.291076981308098670e-01
7.155063956236635825e-01
6.452447568225768704e-01
6.391150053496202910e-01
4.205482892079290269e-01
4.706018752027009144e-01
4.381777311895029836e-01
3.500716438523958085e-01
3.477214354357987536e-01
2.540719005603834790e-01
2.077030543705762622e-01
2.085850472144283596e-01
1.769020233743424930e-01
1.555033087276400106e-01
1.557298486417298677e-01
1.294124580558831950e-01
1.230149957961054752e-01
1.118881776243644544e-01
1.573881024059371470e-01
1.158142807593120494e-01
1.106256843184320326e-01
1.187162745332777380e-01
1.608526130848912938e-01
1.790605098120960914e-01
1.862074050667577030e-01
1.750969776648133025e-01
1.899362780693778785e-01
1.775742110319358247e-01
1.983276419584324990e-01
2.033609293530776463e-01
1.737783787328421869e-01
1.689004988114579942e-01
2.472003630692439780e-01
2.158018952602386853e-01
2.489182553965745281e-01
1.895848316494671837e-01
2.155140324828606624e-01
1.913343750006506472e-01
2.568124881518748515e-01
2.235953963234690312e-01
2.298083980796136461e-01
3.092990038387975482e-01
2.745654886811115247e-01
2.778992485659772527e-01
2.256444989936027545e-01
2.091292724258823343e-01
2.968254148218411603e-01
2.030356500628891503e-01
2.574189543141415237e-01
2.500044628613482534e-01
2.481460948757267249e-01
2.638703435904444783e-01
2.462711783285110589e-01
2.419477677737646992e-01
2.862039558142638329e-01
3.103011584709696180e-01
2.256207157390934248e-01
2.826108151023464798e-01
2.916641613396299682e-01
2.871413579880331968e-01
2.650865372283597865e-01
2.514492829919112715e-01
2.894271558944999656e-01
2.737172401407789168e-01
2.035104683951267923e-01
2.500940879758422608e-01
2.544965218864138623e-01
2.158605474812342051e-01
2.369598088713482931e-01
2.543672707333916039e-01
2.099437176434851837e-01
2.366985535547456998e-01
1.947890995133274294e-01
1.819805061091671894e-01
2.320131985531062591e-01
2.431077456724548003e-01
1.666151123701359593e-01
2.248724653294568165e-01
1.899802347416139903e-01
1.180094610435392238e-01
1.353772928221445571e-01
1.906746023011226532e-01
1.177142008180847299e-01
1.419032170224425182e-01
1.520832696783105675e-01
1.620800090495425061e-01
1.483605695265031721e-01
1.841358109021487555e-01
1.069541801744753884e-01
1.288370062115638814e-01
1.340196761967314409e-01
1.364969164325354756e-01
1.414738065691676927e-01
9.186156732672293157e-02
1.195184293066162418e-01
6.743644581100621815e-02
8.827129865314090051e-02
1.011854536170370272e-01
1.111138344136623074e-01
9.482300197303548950e-02
7.645800118927408018e-02
6.754367647426173793e-02
8.273959628042767966e-02
1.284597734501611577e-01
8.508675361974957219e-02
6.771727436349703200e-02
1.217667620382542268e-02
2.503653911929793613e-02
3.792022689562511706e-02
7.235738499365142185e-02
1.450648721546874895e-02
5.956940890235454256e-02
4.170253028252262489e-02
4.669954539793047532e-02
2.763238874967605813e-02
1.438585993812264117e-02
1.354742866690024361e-03
4.730237671840176183e-02
2.513876968499543021e-02
-6.297006839762357699e-03
3.138731633020452882e-02
1.261406154712793326e-01
1.622949355448511863e-02
7.080356698998935272e-02
-5.740099105772133309e-02
1.108647698239921889e-02
4.694936566771817227e-02
1.793580985102391154e-02
-2.591677039878857725e-03
1.516406246672548017e-02
4.482817807261735288e-02
7.894196905444024470e-02
4.601098378957665241e-02
-1.647538255584456851e-03
5.996045265981456672e-03
5.745446845455628657e-03
-1.394528801144057084e-02
7.020613826640374408e-03
3.095502811848815580e-03
-2.503283130858843103e-02
3.583983616121643595e-02
2.307514119740289305e-02
-8.988340351460266317e-03
1.451036382394749365e-02
-1.897710076777574598e-02
-6.674572144072065186e-03
3.051141922256383338e-02
2.406030030622107255e-02
-5.353756893376167628e-03
1.957015288626680685e-02
8.257504334227762366e-03
-1.908084293267267584e-02
6.261803431581693807e-03
2.478423316550946651e-02
2.166370861522898955e-02
-3.752313340513015183e-02
1.914557485176559062e-02
1.597338357297059530e-02
-4.053890624633579853e-02
-6.471893795102381768e-03
3.404897483507748207e-02
6.255527199511452807e-02
-2.630379029318053938e-02
5.438887591338582156e-02
-2.909860697184871517e-02
7.175163294822990701e-02
2.539485730171645375e-02
1.406000715279221748e-02
4.930364776977091967e-02
1.317634492503632661e-02
6.112691997618361489e-02
4.573655645730244357e-02
-6.083899542417806061e-02
3.333423494273279192e-02
6.775631895503692048e-02
9.854169316888443386e-02
8.115279853705538449e-02
1.074963371920003574e-01
5.402238485462505790e-02
1.075891548741530063e-01
1.130379770673014816e-01
4.671610443968374216e-02
1.335295035568996314e-01
1.151862237677705597e-01
1.016264280268865949e-01
1.056620163187032974e-01
8.784198519967920116e-02
1.420364410497985952e-01
1.360359145676325598e-01
1.480214849048887560e-01
1.361258460051890384e-01
1.427844076230859183e-01
1.301925465940909077e-01
1.734120371623086021e-01
1.608978629064666543e-01
1.490359340072743288e-01
1.404927785104274351e-01
9.170393305845352117e-02
8.495433162169606367e-02
1.327477170136998619e-01
1.807383974601558807e-01
1.200285111752569939e-01
1.193752876852337969e-01
1.080827840450663546e-01
9.629723006641342786e-02
1.053176732636676993e-01
1.389636495598281229e-01
1.140647974202849135e-01
1.115272188356027649e-01
1.086058198441324230e-01
1.355632945660347755e-01
1.429816790654213909e-01
8.030098674587970997e-02
1.215245574538829504e-01
1.531118580844575694e-01
1.845960186953942705e-01
1.957517404620993662e-01
2.426133026895404554e-01
2.076814289526104917e-01
3.011721017723240634e-01
3.957979180748665282e-01
3.881563305108482465e-01
4.485438517031572481e-01
5.267796534940708542e-01
5.653919155688836851e-01
6.278584594419499565e-01
7.348497907154479813e-01
7.607265979310818826e-01
8.976711989381075396e-01
9.740441077899226752e-01
9.738037068537104268e-01
1.082822289937702465e+00
1.116578382805527347e+00
1.199938198284395074e+00
1.213521834367140562e+00
1.203428776970934866e+00
1.203592131673087984e+00
1.130941301649702302e+00
1.110816641949053052e+00
1.044518871619233957e+00
9.610749667546459873e-01
9.243545958541181662e-01
8.445836964169649574e-01
7.629136201111496041e-01
6.880977310652199863e-01
6.136874844474500268e-01
5.634232486619825675e-01
4.486209881013904499e-01
3.627325311914825212e-01
3.628150038511956943e-01
3.163566460463895225e-01
2.565458804420522876e-01
1.736250558635628882e-01
1.723200018483261597e-01
1.592945027769325506e-01
9.858320003605720860e-02
9.236065155834051466e-02
9.967628845832589290e-02
1.318287841836075225e-01
9.826308872746500334e-02
7.187245097069576427e-02
8.244853618742681300e-02
6.947559539720113420e-02
7.925463663668222414e-02
1.163499677604878657e-01
4.084795651802813898e-02
1.421891812980883296e-01
1.731013601644276756e-01
1.172749025284810787e-01
9.264331956928803513e-02
1.577919642752383111e-01
1.366440930824426581e-01
1.179883825953672583e-01
1.100891289437612025e-01
1.325375683754961287e-01
1.559195124947915234e-01
1.823758095144684677e-01
1.693222214444491946e-01
1.796017908330002633e-01
1.610237914830701667e-01
2.015976622133687779e-01
1.744985259479686079e-01
2.404079174232708893e-01
1.700520331700040577e-01
2.056335029245671964e-01
2.633776617972529155e-01
2.326142641477882134e-01
2.271093590727439049e-01
2.167599463379072389e-01
2.122511756275503869e-01
2.079516877393174368e-01
1.984939443589099906e-01
1.711255228744845425e-01
2.379250504009101930e-01
1.737274236420865425e-01
2.402182774615663208e-01
2.118499075804487763e-01
1.925532679408043790e-01
2.631162328721172727e-01
1.768394400117103138e-01
1.993351446277066286e-01
2.007903085168060431e-01
2.207564392347452775e-01
1.958433173267340455e-01
2.556927417193491370e-01
1.679924133528296892e-01
3.286668423527339122e-01
1.710091244876588146e-01
2.878244437150715984e-01
2.280378602057837878e-01
1.877735261117329801e-01
1.934701313095281983e-01
1.706676066343785492e-01
1.875890294170373396e-01
1.500195105073497404e-01
1.881762741473883560e-01
1.669860445537695026e-01
1.263222243735469819e-01
1.631843641622977015e-01
1.555949526511682113e-01
1.172994908223172761e-01
1.201011642447643718e-01
1.423816068906871291e-01
1.537776756042696924e-01
1.108276408666835078e-01
1.370626078139272064e-01
1.382266535970692323e-01
1.364241846749458253e-01
1.040013189859445575e-01
5.867282474909032292e-02
1.067785115812121544e-01
6.870466897412996765e-02
8.415267877348428516e-02
4.471209850561042726e-02
4.032475155249438253e-02
3.216675881332373144e-02
8.476177217589864199e-03
2.578419034083992423e-02
7.708600385405446620e-03
5.115011705194878050e-02
-2.162191912637383140e-03
5.483144459601498044e-03
2.160503647787553883e-02
7.198847186422480116e-02
-6.878561183561154174e-03
-3.115089651338631693e-02
-3.244767330388310944e-02
-2.215927497091723861e-02
-1.913608079106227100e-02
6.677038852184873086e-02
2.384913158863456034e-02
-1.724161205412065231e-02
4.530027224928750290e-02
-3.101763142438411502e-02
-2.719783778317756695e-02
-3.108721903777720771e-02
1.189073707431061167e-02
-2.285821008031238208e-02
2.273166862513743836e-02
-1.108701797140293488e-02
1.648103456312721704e-03
-8.151921988656191109e-02
-7.932907325698818068e-02
-7.957132403902048012e-02
-4.357216230381597694e-02
-7.795864018347084534e-02
4.427680505134853894e-03
-3.967502121600598175e-02
-1.608946138919180313e-02
-5.010518900921237528e-02
-1.132105392680507472e-02
-9.569003825157933185e-02
-3.882389885666881479e-02
-2.290584190334312570e-02
-2.090076587162225871e-02
-4.846014464731265847e-02
-9.069614135693371271e-02
-9.423001945701364734e-03
-5.188620141858139856e-02
-4.959711064226743349e-02
2.586121529124905255e-02
-3.805847422784437717e-02
-5.672684621850634934e-02
-5.868761776924046741e-02
-2.209084133722820711e-02
-6.615231028468882002e-02
-2.620979580302842601e-02
-8.507181914084643859e-03
-4.413076730582199403e-02
-1.172509658214195005e-02
-4.324183869935604996e-02
-6.154981582936015772e-02
-9.053983236925616795e-02
-3.194540693795950431e-02
-3.082470202707642687e-02
-9.680485731446177022e-03
-1.187964890396821932e-02
2.439774552926710777e-02
-5.412597024563141346e-02
-2.495674161056177232e-02
-5.505832131315577249e-02
-5.170981182591155578e-03
-5.935988997565553454e-02
-2.448201310943178000e-03
-5.007979917576699247e-02
-2.921133966273636862e-03
1.254412132282060888e-02
-6.779954517063642438e-02
-5.890675836676843857e-02
-8.541257750822595085e-03
-8.612921572835302575e-03
-1.788935072800364179e-02
-1.985125427578573326e-02
-2.744328962688680554e-02
1.212961566281950399e-02
-2.255032068827060240e-02
2.173825763836426117e-02
-1.929772532283685615e-03
7.323233595515878103e-03
6.131466690758917426e-02
5.842514800741900605e-02
4.918616565089399539e-03
1.372969252453564576e-02
6.836945196291455140e-02
7.127978277400283391e-03
9.882956363357750518e-02
6.425024578793085694e-02
4.771750634647216327e-02
7.009108623426107965e-02
1.151265220283228807e-01
1.464550048312759922e-02
1.133840760132871495e-01
1.221419169531790250e-01
8.005040935509707967e-02
9.053248137343533619e-02
9.937878070138789210e-02
1.194756503615654886e-01
7.732160325231840492e-02
1.000670390209435212e-01
9.833112593791899780e-02
1.220526443543663020e-01
1.818498294976640117e-01
7.902623495843993928e-02
1.024443731420193043e-01
7.591313968260002265e-02
8.240756378059502230e-02
6.288299549565724844e-02
4.719177945722013989e-02
1.265239039047782454e-01
9.980974621360810817e-02
9.037354754181894934e-02
6.046449074989100614e-02
8.449011540564868583e-02
5.345301666268238022e-02
9.053633434822802584e-02
1.069073831642489425e-01
8.908199738292177372e-02
9.467622992274585259e-02
1.188724961815970371e-01
1.792672594013437481e-01
1.876256403156711661e-01
1.662759675744496790e-01
2.757001921822374579e-01
3.166866881436317671e-01
3.593108408004734300e-01
4.630391419847250667e-01
4.804383846217180065e-01
5.638354697893930290e-01
6.400130305431959155e-01
7.294385341777674947e-01
7.738175789334766908e-01
8.365446806939487168e-01
9.561218545118790324e-01
1.018889071506782207e+00
1.084815705861224444e+00
1.103312063805692356e+00
1.072907646261402448e+00
1.144821218641733251e+00
1.143725707285966564e+00
1.167565500566757342e+00
1.136002978840027655e+00
1.082811431551801151e+00
9.505252892652897856e-01
9.262707067267584859e-01
8.705844393783300772e-01
7.963100416417890903e-01
7.335077589358017791e-01
6.940509625809991867e-01
5.954444984437126109e-01
4.700072191253142351e-01
4.027945419941028060e-01
3.358482915162137594e-01
3.021190109761630049e-01
2.788530197428263913e-01
2.396321445877117318e-01
1.622612043061448239e-01
1.419350473194607443e-01
1.683087975143816306e-01
5.413705930713715725e-02
1.031322023171411528e-01
8.926250538889993202e-02
5.726777577134085223e-02
6.126731264763974477e-02
7.240886012128966431e-02
5.081882800175471088e-02
4.186351514000154206e-02
4.209969931077146843e-02
1.227424019828153301e-01
5.774092222400296903e-02
8.157648966019576120e-02
1.040617454130581820e-01
7.940689812300780193e-02
9.227274028034304632e-02
1.118659847577203603e-01
7.701825473669371425e-02
6.208330045916872486e-02
9.199434891659462321e-02
1.714884622124879798e-01
1.080626254661450625e-01
1.348575522554071315e-01
9.670030513452096410e-02
1.821704396254568425e-01
1.381796476800276896e-01
1.387247953728260041e-01
1.533664953208540849e-01
2.375734609723074431e-01
1.800391215805831058e-01
1.664806148836570354e-01
8.885401218246737065e-02
2.198289336031997998e-01
1.620237173189673918e-01
1.606383025348431248e-01
1.663702117230997368e-01
2.359579837798067570e-01
1.931604896761432155e-01
1.508500812325414830e-01
1.921341938489264933e-01
1.747109246733442034e-01
2.114887347898373737e-01
1.897978889097675093e-01
1.546392074386099269e-01
1.992096515516824651e-01
1.995856991350321852e-01
1.629310534614003825e-01
1.406245265705874659e-01
2.064456531854405863e-01
1.877447610510287745e-01
1.875697766116724008e-01
2.139350919477076007e-01
1.306191358830680049e-01
1.875046777587836555e-01
2.021986728294077607e-01
1.731916159379855713e-01
1.322754436261886213e-01
1.507792843778529290e-01
1.526766437154587763e-01
1.142572977346469898e-01
1.679816955995759309e-01
1.519765937224458463e-01
1.274776129845404116e-01
1.710802552171969415e-01
1.204870612186602491e-01
1.750778330649787884e-01
1.170678912052918463e-01
9.089413706210215660e-02
8.615230152013228504e-02
1.109435987357957620e-01
7.041796658125161479e-02
1.011957343523610109e-01
7.920518974555224023e-02
7.291552537436316039e-02
7.882415976172130190e-02
1.047370273996933721e-01
5.291234056571023081e-02
6.942576417261234201e-02
7.203560236944621387e-02
1.733102453979729063e-02
6.435285440808613533e-02
6.830701520251074299e-02
6.814456047361074076e-02
1.357487444149471645e-03
-9.359884394130602026e-04
2.436390452663175776e-02
1.857922446833606966e-02
1.857848094143223217e-02
3.545148693813379714e-03
1.622555481285902629e-02
-6.940147021887112244e-02
2.369569029065260457e-02
4.500353315397312426e-02
-1.869147512551595086e-02
1.180898703512331394e-03
4.289471682844583217e-02
-9.006021909503073020e-03
-3.184394527984156509e-03
4.070998614122683934e-02
4.449696561631698299e-02
-5.033913465950365373e-02
-3.265146485369302409e-02
4.835415718839386479e-03
-8.604505269180953708e-03
-3.767588996094639597e-03
-1.049169869101497510e-01
-8.610307160643299040e-02
2.492250035906688754e-02
-6.410592639976647744e-03
-1.995098698043224622e-02
-6.867782424225116200e-02
-4.462783201905513170e-02
-1.578243479139252239e-02
-7.498740333862302654e-02
-5.520885077585123424e-02
-2.328281634433935696e-02
-1.728724223160595444e-02
-5.105023420951439878e-02
-6.217816588770769259e-03
-7.470375081419698693e-03
-8.997756852623409185e-02
1.275697303027787527e-02
-1.534336119838095036e-03
-3.043396698353584978e-02
-4.081492748323448105e-02
-1.304211643488552980e-02
-2.069934865746870384e-02
-4.480803671024653767e-02
1.161453901381530318e-02
-9.958742508054732601e-02
-5.622513273431060943e-02
-2.263416565949165349e-02
-3.737443275403659615e-02
-1.451886156985958756e-02
-7.698874190282561925e-02
-4.236909421204447523e-02
2.506541338063300595e-04
-7.852878843715263568e-02
-4.031512874556267972e-02
-4.832850599740731029e-02
-2.071771711308409425e-02
-1.894412860128094275e-02
-2.683732771785749677e-02
-3.734510281087034811e-02
-2.552693436043654285e-02
-3.100640136734843927e-02
-2.553907171324301673e-02
2.079928607126021317e-02
-5.715818033542897220e-02
-8.847801232264695948e-03
-4.518484651214222519e-02
4.409622487581554146e-02
-9.313345012377814702e-03
-4.724717645550381706e-02
-1.318107673451853618e-02
-4.678708513274477260e-02
-1.859306126848565832e-02
2.251976276242648872e-02
4.874590089786548508e-02
4.440523082830406809e-02
1.312201786344807664e-02
3.785220753389571119e-02
4.967449418198306710e-02
9.775146920940534778e-02
1.713447935803026623e-02
8.566243100978382374e-02
1.285566881343622875e-02
8.633376411422116758e-02
3.768840311389989178e-02
4.119059451492006196e-02
5.854598214652687038e-02
4.914163523238226916e-02
9.045527118037219316e-02
1.196004021558754321e-01
2.442781479534899408e-02
8.730865132803436457e-02
6.448552699535753385e-02
1.284971384936912098e-01
1.479102894574162719e-01
1.036704551899388232e-01
9.104949564977052323e-02
6.653142344559519195e-02
1.758666773420169971e-01
1.589437501963813781e-01
6.153693051954180204e-02
1.416081191154274221e-01
8.916564314257113821e-02
1.074004205593356159e-01
8.488520994270058739e-02
6.158290103311100938e-02
1.191315364882471334e-01
1.759367010623144045e-01
8.962991260309867425e-02
1.423527311758090164e-01
1.452651506520022673e-01
1.338460928180957299e-01
1.708567663255981528e-01
1.390513431575427505e-01
1.649592388736090542e-01
7.821923347760030565e-02
1.386540439444599038e-01
1.676643175119019724e-01
1.081977599442157933e-01
3.941570645939856954e-02
1.229230098020124978e-01
1.611237068587851873e-01
2.272553230400012059e-01
2.271792725795498402e-01
2.846575842414656443e-01
3.137187752848185629e-01
3.821824644362767365e-01
4.448658702533370146e-01
4.947031673311341748e-01
6.101653989576327763e-01
7.024792338526275604e-01
7.041445743492771303e-01
8.226787622855834536e-01
8.486092658864807792e-01
9.096834571897378652e-01
1.057195166828470700e+00
1.140957188820022061e+00
1.114299526892490011e+00
1.209680273187782040e+00
1.151679788441179797e+00
1.165785637293709209e+00
1.209713638473203456e+00
1.104833276704923595e+00
1.118972021782580928e+00
1.028551261966155428e+00
9.551082530767456280e-01
8.916023394158034687e-01
7.667125565457831859e-01
7.916155286454514828e-01
6.819861367635816629e-01
5.936279033123357252e-01
5.033880655903201218e-01
4.643221789726976190e-01
4.180345521339885462e-01
3.263504502030885601e-01
3.134274384960201165e-01
2.496636413830617962e-01
2.022853065702820419e-01
2.025474490694275376e-01
1.359289342322528293e-01
9.490680065679649169e-02
1.167968280808476672e-01
1.093848061886764783e-01
9.496971362227632496e-02
1.334481448944831727e-01
1.111602951840470477e-01
9.292011015644677241e-02
9.788302086814046343e-02
1.032751539541169189e-01
1.203180162795907115e-01
1.104566901620178121e-01
1.090904126482387521e-01
7.891231440525373064e-02
1.031289562568015877e-01
1.384095881556407781e-01
1.415477275997743534e-01
9.723872792970425505e-02
1.308760452623539683e-01
1.257869986429239750e-01
2.005475722316159004e-01
1.730293170260093494e-01
1.842271985603278761e-01
1.750494867471834304e-01
1.638876577500977816e-01
1.748123918450586733e-01
2.083074155705942343e-01
1.909055712979600417e-01
2.187976237094559073e-01
2.127861660664625287e-01
2.219328079598587300e-01
2.277929823856908453e-01
2.056853614017033482e-01
2.159445078724903655e-01
2.560533290133734097e-01
2.867946704775589106e-01
2.624472018267248741e-01
1.538195373834575774e-01
2.169940237244055437e-01
2.450799062061786993e-01
2.102471302101415473e-01
2.100414248022743624e-01
2.326739616423428858e-01
2.560750172625858578e-01
2.643587462887191375e-01
2.345675758821704759e-01
2.316597186025489696e-01
2.187123708032347180e-01
2.579241866881428202e-01
2.542522601934611437e-01
2.662752185514734582e-01
2.406382778990128479e-01
1.947758437436956924e-01
2.207081650122665606e-01
2.536550997919795880e-01
1.723799755957518831e-01
2.181358571899521537e-01
2.252272076334831952e-01
2.725478829378286116e-01
1.899585313295116817e-01
1.997046015277269548e-01
2.491726474860661844e-01
1.759301443408590182e-01
2.207207598216067435e-01
1.950427573175567697e-01
1.713185188153213134e-01
1.861048066485916919e-01
1.626784138973333960e-01
2.293439989910030785e-01
9.412482167632714447e-02
1.420928951020381248e-01
1.374576781658616853e-01
1.355441537273179564e-01
1.665295882472596078e-01
1.153144507195064117e-01
1.381648543741198221e-01
1.251078339136493245e-01
1.381721934438675803e-01
1.038611931288121321e-01
1.127162355568124413e-01
9.454363976684027060e-02
6.399343256631108423e-02
1.370126833441494274e-01
6.178695240507665887e-02
6.605810440181265897e-02
5.062185852969804112e-02
8.445772775753172812e-02
5.428198779824346121e-02
1.104745368602768757e-01
7.758780166585477200e-02
4.997753463363431570e-02
2.786501716195428913e-02
4.887070355933295640e-02
6.498510038615520901e-02
4.535545406197332569e-02
4.002182876780832621e-02
1.126821024456437469e-02
1.069722269701103845e-01
3.158163342034581156e-02
-5.546059785011926008e-03
1.645331313576053889e-03
2.190895022467125725e-02
8.903372005702665792e-02
2.415487768999014656e-02
1.671241119866640618e-02
5.209460914237642321e-02
5.318449278072411024e-02
4.442431029169512796e-02
2.973826209541364021e-02
-1.021019084994985449e-02
-3.499311989130834272e-04
-2.620854752654346378e-02
1.421260489088663898e-02
7.672997596494085006e-03
4.105622417685734701e-03
2.794410686705087882e-02
-4.850721076179488611e-04
8.734834020136507393e-03
4.127505678421818786e-03
1.757826267211105853e-02
2.933412808017312606e-02
-2.203707640087099184e-02
3.183997554746371972e-02
2.615474776609625143e-02
3.080744743011878950e-02
2.230407229500971228e-02
2.924908776268744445e-02
6.063810081972133281e-03
3.200353919649730206e-02
5.324627245515664575e-02
4.294177703733569398e-03
5.670721512698208636e-03
3.869091187017770217e-02
3.535167149444311610e-03
-9.908332948630506343e-04
3.373809031407951076e-02
8.706321555078964936e-03
5.888667917184974010e-02
8.934770968069306873e-03
-8.856287525585114506e-04
2.439848723437222644e-02
3.855487886601881992e-02
3.615579646857675078e-02
4.388157135933914293e-02
1.241058643599854752e-02
6.449420477486908498e-02
-1.766378042247403191e-02
1.029149579827676186e-02
3.675205828740915615e-02
1.674444317108525135e-02
3.060644051079636913e-02
1.287833588292497389e-02
3.871327900661131194e-02
6.168617749903800018e-02
3.477484314251800407e-02
2.773549794778150737e-02
4.375816253381945020e-02
9.440131219729626377e-02
9.806863079225970614e-02
5.498664004534782601e-02
8.891267106266120823e-02
7.764429383779904159e-02
1.214298994439669405e-01
9.353818159733250093e-02
8.677779937672233657e-02
1.459833660062828942e-01
7.554104190026578181e-02
1.181779114475479814e-01
1.549800090683418619e-01
1.393963243982578593e-01
1.019237945391968103e-01
1.056547243831098826e-01
9.315726352672874799e-02
1.850300504550574932e-01
1.115210997397683701e-01
1.716720321790497217e-01
1.119954346828721803e-01
2.357461661712678680e-01
1.223758388239953449e-01
1.678213166688543034e-01
2.061136548699451509e-01
1.514621069941237408e-01
1.918429877267849581e-01
1.684049278724318310e-01
1.899766981219393469e-01
2.117586179677967417e-01
1.670218874630180206e-01
2.248580966993678487e-01
1.901587460491582227e-01
2.372606811889868828e-01
1.526972877973844511e-01
1.569300514888094522e-01
1.675294467114002428e-01
1.362980789748351740e-01
1.986481002080445202e-01
1.669810045271599985e-01
1.336703651843859919e-01
1.428570906444719402e-01
1.419530722845073201e-01
1.976983085815647578e-01
1.875352936681377869e-01
1.761070902993449039e-01
1.784215418768790862e-01
1.951970234235776147e-01
2.731320231492262440e-01
2.350624546159870709e-01
2.958710883127426139e-01
2.945750356156041083e-01
3.959086597101790228e-01
3.567410578380967867e-01
4.723016793807216507e-01
4.866633448001762008e-01
6.431307091252361774e-01
6.698606741329136138e-01
6.735812040674559187e-01
7.743321280946694474e-01
9.002225138295032458e-01
9.743673640690321269e-01
1.042307099365552325e+00
1.092538817174290688e+00
1.131905032301641745e+00
1.216315083213701298e+00
1.187011005643069383e+00
1.229589660824165653e+00
1.209649692911073160e+00
1.192711274131000421e+00
1.171137242233190046e+00
1.120895734196230009e+00
1.105922231591967453e+00
9.820183465342330331e-01
9.687199600512169662e-01
8.612245731950538552e-01
8.029661142736895796e-01
7.184418190331316456e-01
6.314944808246641950e-01
6.092723969151401242e-01
4.929572900738821151e-01
4.622434271347547474e-01
4.062257491690544065e-01
3.270475067304908778e-01
2.549297166820013172e-01
2.304005256963689852e-01
2.657976795353486077e-01
2.186252794661580623e-01
1.896664535811750096e-01
1.547309689765086205e-01
2.138775232803671600e-01
1.293801655573836307e-01
1.558627391214698066e-01
1.652105544303735241e-01
1.112630596992673637e-01
1.293743656741547787e-01
1.412010897703797063e-01
1.844331648405043156e-01
1.497349888381953598e-01
1.245636332499145960e-01
1.268188617626272163e-01
1.551763016668365469e-01
1.390666980342334935e-01
2.125380357434645540e-01
2.195004568375318321e-01
2.013026642289665324e-01
1.990303855265131983e-01
2.349837418884269669e-01
2.395075206742743323e-01
1.945993300229882927e-01
2.043515390624036920e-01
2.564993016964127182e-01
2.487842835848633194e-01
2.641282221221270543e-01
2.241065885898375631e-01
2.332283934678822113e-01
2.743411652577910642e-01
2.443866616868149710e-01
2.234256950978271428e-01
2.529391715531407736e-01
2.704346526217218383e-01
3.309856947099953928e-01
2.578458929117188880e-01
2.838880567083413298e-01
3.494400144238236638e-01
2.574278745077007158e-01
3.117786512962719137e-01
2.720174922961904884e-01
3.064238401084978802e-01
3.650780365807502759e-01
3.190880313292580039e-01
2.998362332836208566e-01
2.663226041538302447e-01
2.888087036663226082e-01
2.759686645889873891e-01
2.479192370065611550e-01
2.257300545013130877e-01
2.625090209993740653e-01
2.839752426268229990e-01
3.156841124934823828e-01
2.568383128291534256e-01
2.813217486843578863e-01
2.208511731367773789e-01
2.439282674271788243e-01
1.903297942908837304e-01
3.263557169475646003e-01
2.606446525462197683e-01
2.548788545565809915e-01
2.609519975274369741e-01
3.157211196571474976e-01
2.214122751674310330e-01
1.996515250927752838e-01
2.835876258579245190e-01
1.810850404533029812e-01
2.513254739160247775e-01
2.044959368619098661e-01
2.140164029611548169e-01
1.522138931302498555e-01
2.674323389464310363e-01
1.724942618188688992e-01
1.572982991103598072e-01
1.892236750499945441e-01
1.479267515508977948e-01
1.745946861296105435e-01
1.187104507760803340e-01
1.556917010379040844e-01
1.281263630673095122e-01
1.177428461463213838e-01
1.081545737166926396e-01
1.582600676678066476e-01
1.166057962196907494e-01
1.171834477750046954e-01
1.312470606550939778e-01
1.485308249398017422e-01
8.267778991416058210e-02
1.132037561158054650e-01
7.566446860307754485e-02
9.322879095574662656e-02
1.281268223772890069e-01
2.264117102617849153e-02
6.234163236796134988e-02
8.024771188830406854e-02
9.591701686467629662e-02
1.185497326111241423e-01
2.864188453573227391e-02
1.197681009869745739e-01
9.080676113531821469e-02
6.597485033856875791e-02
2.725988347892787170e-02
5.241676944666003729e-02
9.872121289475302430e-02
6.724526022934040892e-02
5.962186366254940834e-02
3.459647120739082343e-02
8.457102530667685858e-02
5.692278636333091002e-02
5.328378811865668030e-02
5.657516312801832981e-02
3.920114960236061041e-02
3.329822255827594168e-02
1.143775063080074150e-02
3.776937060230618065e-02
1.738329423038934007e-03
6.975981235453374008e-02
3.465792484139990776e-02
4.246539536699293210e-02
5.271434734418242729e-02
2.940043787337955766e-02
1.789544593529179828e-02
5.951936653224582097e-02
1.092919557682556359e-01
7.971970088250202036e-02
9.064170653490180585e-02
1.315819665659215959e-02
4.626886722588767487e-02
4.601040068605634359e-02
9.477835602484060984e-02
7.944442141758192855e-02
4.707053088029955479e-02
-1.655753886603989616e-02
1.747477272013905902e-02
7.142391924370139478e-02
4.306514766786891102e-02
4.969335155596767833e-02
7.178724465185104542e-02
8.778386425826886774e-02
3.099599639965933823e-02
7.272898198011339133e-02
1.040371577342814741e-01
9.935160603047049621e-02
4.152032479839078138e-02
6.734691864613055745e-02
8.221218763109489069e-02
6.162648686123625708e-02
5.503197682091176546e-02
1.224329326463684947e-02
4.002734743192236377e-02
4.712500351177843771e-02
3.234003848563938438e-02
7.586192087315220267e-02
1.011752437006385175e-01
6.541464981199171524e-02
1.490850456427670473e-02
8.071408399343120432e-02
9.594817892082761757e-02
9.759853397488557625e-02
7.366333009890806138e-02
6.324218296160297181e-02
1.302728490183585053e-01
1.187034989419959718e-01
9.235192047980275709e-02
7.253867619005215095e-02
1.291643974224591096e-01
1.005742924707971608e-01
1.440713699501295353e-01
1.424615795082951331e-01
2.051836454541069443e-01
1.456692912575928422e-01
2.131034424569389629e-01
1.605196779317196731e-01
1.429054433970460003e-01
1.359306503957691259e-01
1.457586312533507844e-01
1.891710388659165742e-01
1.841205946072788369e-01
1.287167698237485780e-01
2.177612045363321314e-01
2.343639536161767623e-01
1.370870002079935812e-01
2.249760429798121908e-01
2.467252429806427449e-01
1.435073250144834334e-01
1.840607740706387829e-01
1.728144034654782168e-01
2.272808460785382123e-01
1.849453927704157452e-01
1.826598264430378815e-01
2.074777285192823395e-01
2.398650944347737457e-01
1.892405377931778709e-01
1.748672716747479150e-01
1.783859120175062540e-01
2.047967294345086342e-01
1.436826592660018220e-01
1.824194218641582155e-01
1.551269060965226043e-01
1.489806731531684858e-01
1.304829935761236404e-01
1.796111770446087996e-01
2.367500995675790865e-01
1.579572958910806235e-01
2.512345223054955889e-01
2.380842127746079229e-01
2.539832815729471394e-01
3.308269498677658405e-01
4.011529092720985679e-01
4.550142460702146785e-01
4.736991490932251359e-01
5.247285919726354386e-01
6.060872020315426489e-01
7.409634284658036529e-01
7.335900141704496669e-01
8.537869316453979840e-01
8.789491082348379614e-01
9.461433733595367990e-01
1.093466305141908013e+00
1.102451006101726971e+00
1.161488132844767929e+00
1.211981491328307348e+00
1.196471419549921977e+00
1.223528594860954000e+00
1.216030192979197233e+00
1.229086089819265259e+00
1.199771579694778767e+00
1.127383394781374948e+00
1.151454559393968236e+00
1.025611344972640504e+00
9.581573377010457193e-01
9.192133330679330694e-01
7.740469827047382623e-01
7.058430090987560801e-01
6.530135598699332578e-01
5.266859337919171935e-01
4.952482602349203011e-01
5.012421444848932373e-01
4.385165574848098879e-01
3.614064575321640493e-01
3.277577289801119065e-01
2.715905018268017224e-01
2.146846240396677596e-01
2.535713888106376213e-01
1.576118193953106594e-01
2.014717720708817383e-01
1.473651380418128098e-01
1.426591424334243685e-01
1.684737114238567812e-01
2.117119086644059511e-01
1.936869031769551663e-01
1.625096690950797729e-01
1.568313095412015024e-01
1.818167344520164874e-01
2.033841469463122387e-01
1.141412588733401595e-01
1.680252810456133450e-01
1.453932954870474636e-01
1.757153317498237333e-01
1.499683670442952532e-01
1.390271696022294390e-01
1.591715308262977024e-01
1.876880883786318233e-01
2.274108214746417833e-01
1.908708008893884589e-01
1.947193397689018779e-01
2.378724553969274180e-01
2.398021541576143834e-01
2.873284945797291989e-01
2.692151581328174337e-01
2.151372193414060885e-01
2.303460171813507262e-01
2.771971599438983747e-01
2.323191321505456985e-01
2.530544976378547584e-01
2.150801122484959083e-01
2.305283382352201205e-01
3.105518799289282428e-01
2.805263095144428509e-01
2.590647325846403559e-01
2.653779050271371509e-01
3.332536074075163612e-01
2.635073017129056505e-01
2.984784838195915779e-01
3.111302928539111945e-01
3.286840267661504389e-01
2.597885595426479011e-01
2.429591427957343841e-01
2.510914876809494101e-01
3.050316526876132306e-01
3.414006660753263200e-01
3.028093294470392549e-01
2.578989722018670827e-01
3.108316752071161315e-01
2.583115920730972292e-01
2.443065302072494893e-01
2.558860344661076369e-01
2.446780141786236984e-01
2.370635963925481760e-01
2.905235287545261391e-01
2.339057243038964173e-01
1.970433065081645396e-01
2.573137811650135220e-01
2.059851228853113447e-01
2.016680292093626370e-01
2.449411242251738896e-01
1.965723430048154918e-01
1.990673141259411694e-01
2.081408803751502445e-01
1.924323459599486530e-01
1.822357973709264889e-01
1.188746931912437743e-01
1.780062976932156316e-01
2.256208920181707323e-01
1.901440365035627078e-01
1.540554038640576107e-01
1.735349506194304170e-01
1.724171801190494957e-01
1.225724523580174474e-01
1.798711377092196972e-01
1.414650496343137498e-01
1.217258149757381447e-01
1.734473834866525621e-01
5.844731925235381598e-02
8.011808454940266833e-02
1.296745016041244425e-01
1.258277783796171723e-01
1.503374510113902052e-01
2.873644760007433921e-02
1.178157575647849065e-01
5.049219890937702709e-02
9.637799344858086203e-02
7.797994104827243866e-02
1.017079717159156821e-01
6.559061715324075725e-02
9.958218948717416363e-02
4.116611820763012297e-02
6.047685893907525645e-02
6.576694224000390054e-02
1.074959385908996895e-01
7.953943529835535986e-02
5.817833792864735010e-02
6.887442962969547722e-02
8.002915419306592948e-02
5.657165193902233269e-02
1.259116199638674743e-02
6.032946785009013491e-02
3.887027822076760675e-02
2.747814956204784609e-02
1.296030230661486884e-02
5.244343529315786262e-02
4.906090757974376770e-02
3.757771394669977283e-03
-1.953111519746784236e-03
8.686144227964215370e-02
5.488648358813917605e-02
3.069239229145179909e-02
4.536505501561477471e-02
1.229279042657329540e-02
2.035634733394739437e-02
2.542876248814430334e-02
5.302007644888685756e-02
-1.895556872542496565e-02
-7.765899514440427476e-03
-1.446062251836741780e-02
4.735519192312973025e-02
1.825301472404332673e-02
-6.654574154924937368e-03
1.378426025692117141e-02
1.105342029110785440e-03
-2.331031600787175986e-02
5.723965986866272337e-02
1.469053359321723096e-02
5.745589598249996321e-02
-2.468727959790032248e-02
3.377280634763403511e-02
-2.471401282005434435e-02
9.189124661571461405e-02
-3.332863089202302287e-02
7.252256750018437614e-02
1.820246534982796968e-02
1.354402641608860001e-02
3.701701010045697904e-02
-8.404372948333163965e-03
4.378648483860431151e-02
4.658652226952970932e-02
2.191229757878830967e-02
2.990021795852012415e-02
8.126678689683515533e-02
4.403671785578332221e-02
2.314484494389895675e-03
4.974125863117293683e-02
1.270696177339208401e-02
8.702539436287232491e-03
4.802561280170267871e-02
4.563242022603768155e-03
3.864116355147481641e-02
6.007994862601468561e-02
9.999328169952442780e-02
6.490512658544714264e-02
4.927707399891019524e-03
1.310110732095653464e-02
1.080047266272194939e-01
4.109083203011770768e-02
1.872302939830515142e-02
3.835409990548614007e-02
9.676718933756249530e-02
8.092179593665516091e-02
1.016755763638440974e-01
8.608543692490561172e-02
5.888398427223846820e-02
4.329021527670710856e-02
7.682024222700474525e-02
1.104389374880033609e-01
7.614945932726814581e-02
1.459180793396065989e-01
9.107085673719153562e-02
7.598414015798747589e-02
1.298235519790433556e-01
1.566382072480149434e-01
1.823220092876176590e-01
9.260090030184303656e-02
1.867235245924585840e-01
1.522494744527732313e-01
1.303282874438262684e-01
1.712216872697627512e-01
1.928499623106121330e-01
1.027472667991360111e-01
1.406557794795062488e-01
1.372421664953133447e-01
1.719040837641789277e-01
1.960296129834261936e-01
1.531280981872837899e-01
1.404961911972539834e-01
1.606599347692641289e-01
1.380886736396241543e-01
7.775908637829688497e-02
1.561228719535259213e-01
1.681774300701405489e-01
1.692736068434318175e-01
1.015849911577541148e-01
1.547754065272195778e-01
1.843466985858411844e-01
2.180746490405510718e-01
1.628556600732190829e-01
1.874842724321005016e-01
1.414764853670288369e-01
1.553278513482501400e-01
2.415885264878674110e-01
1.796264244263038601e-01
2.804330292816450410e-01
3.604896758496228815e-01
3.876707944264687344e-01
4.430552510078125672e-01
4.824576819514107551e-01
5.394891161483517106e-01
6.889703692070133778e-01
7.371340559774650636e-01
8.027878047978528331e-01
8.549259554023512786e-01
9.104051761568100476e-01
1.028933642311242291e+00
1.048378224760075694e+00
1.111201973650186359e+00
1.166847930972829239e+00
1.180931811884085247e+00
1.233092665306730229e+00
1.144107074654565182e+00
1.168086254678508018e+00
1.198476328656478573e+00
1.116620597485490585e+00
1.027939237067812650e+00
9.927435676059541692e-01
8.953203191528481542e-01
8.641303954825295675e-01
7.659284803007676556e-01
6.364319510094064158e-01
5.926923755348125766e-01
5.248850600789070064e-01
4.581734833513119720e-01
3.915009224056948400e-01
3.433206854758562021e-01
2.903165440478508996e-01
2.144108528328708407e-01
1.873531339210422475e-01
1.647073905280009298e-01
1.522238467119252370e-01
1.239774833033019386e-01
1.512077326146524514e-01
7.975893260862158829e-02
5.017705176069885836e-02
1.575246679906062153e-01
7.244927643281656726e-02
1.301610033396902177e-01
1.169386635099461114e-01
7.779908504408104830e-02
1.006739387808260749e-01
1.002152908263542475e-01
1.238368694174181717e-01
9.493460617681481750e-02
1.177207643145771615e-01
1.271316332437702756e-01
1.666537870192278115e-01
1.266872730591699081e-01
1.152069728499899581e-01
1.335941405670401649e-01
1.663813550914417516e-01
1.076091106360329286e-01
2.019912992207421876e-01
1.718836892521908855e-01
1.893994992942731326e-01
1.879538936269432858e-01
1.661796937153978138e-01
1.583844048215298228e-01
1.742947178444849143e-01
1.543775598591661247e-01
2.140283964919677540e-01
2.024765985981343275e-01
1.648477482071026845e-01
1.956249696151479700e-01
2.366371103511429042e-01
2.585135114564522940e-01
1.835408764233446566e-01
2.889075171663906816e-01
1.969562732872832123e-01
1.759247992946797179e-01
2.807698713287631320e-01
1.974438380624683187e-01
2.746472117689411907e-01
2.088870825069387427e-01
2.195804376977527061e-01
1.883986779860857830e-01
2.646952180515171893e-01
2.590398360276522927e-01
2.031398465687891397e-01
2.184832454672941127e-01
2.380349292369390302e-01
2.011489688374948903e-01
2.530254475240948375e-01
2.054313326891801794e-01
1.892447652696684912e-01
1.532952659752537805e-01
1.576645103328573050e-01
2.095887729866584281e-01
1.942300744792244682e-01
2.066679691913608230e-01
1.601551689904707754e-01
1.224779673808890218e-01
1.513555908447223319e-01
2.217809957619478745e-01
1.259863414731730302e-01
1.480345249035593946e-01
7.084388336722628743e-02
1.217241699925511317e-01
1.189357602669556951e-01
1.353243213346049523e-01
1.098444422951327104e-01
6.785461168712193791e-02
8.755526673037648810e-02
9.545988256053405951e-02
6.586100392942369208e-02
6.446086920894948669e-02
1.144692223298723610e-01
5.999216232773610380e-02
8.647025544853403911e-02
6.261386279260422461e-02
2.580140140421981892e-02
4.762331955188676968e-02
6.139474587990965959e-02
9.996821908570031889e-02
2.004857244553191406e-02
3.616500656354504351e-02
6.165987147057815088e-02
6.802868064539042969e-02
6.733125125105730857e-03
1.767690067747734392e-02
5.204419476632991814e-02
3.048117795537268193e-02
4.277558632000629663e-02
4.370787345189749984e-02
2.212557581643529586e-02
6.921847878915456109e-03
-2.026283896214987890e-02
-1.006339719832370985e-02
-1.053467307924925780e-02
2.844634620511037049e-02
-4.425380088658781297e-03
-6.205669033815461311e-03
-4.354254629756489081e-02
2.058930013912758927e-02
-4.027612459865717587e-02
-2.740121404174353237e-02
1.892179358475164219e-02
4.834290754674772095e-03
-4.856846199389011631e-02
-5.666359818510495472e-02
-3.155187707366943761e-02
-4.379538136100115386e-02
-7.151504033153149864e-02
-5.101209223981340718e-02
-1.117101496034935415e-01
-2.943807006497940748e-03
-5.568767928901534325e-03
1.080812935515058915e-02
-2.151720166745501456e-02
-4.614704811804663798e-02
-2.533989203362875531e-03
-5.477461078088471935e-02
-7.397965796919742099e-02
-3.901385053696476701e-02
-2.263983753176720265e-02
-5.966617781459689074e-02
-6.703077994207259915e-02
-4.837103014279121871e-02
-2.372994769397286652e-02
-4.063175426795762046e-02
4.268584844614418256e-02
-4.058767197984967240e-02
-1.403624311995255516e-02
-8.001830354586493554e-02
-1.889528679308872736e-02
-5.026038019288273789e-02
-3.649053849725843873e-02
1.463581857730412994e-02
-4.681438059427012882e-02
-7.448164441400080549e-02
-6.930778262985828886e-02
-2.896190108839568830e-02
-2.988439330526889565e-02
-3.030922538309963055e-02
-7.023839669344747461e-02
3.020476680855502249e-02
1.458393375310472473e-02
-2.404970789808434303e-02
-7.203368285216096845e-02
2.287073109273747573e-02
1.136523414640545210e-02
-1.753643460378633695e-02
1.766354454060204554e-02
-3.059850862389022763e-02
-4.183143740203724287e-02
-5.339242259809584557e-03
-5.345925891892277376e-02
-3.677785502547654961e-02
1.646270979092749609e-02
1.117880123833202288e-02
-3.343274385763236184e-02
-2.024200009038967796e-05
-2.347823763301485483e-02
6.586594460630097736e-03
8.033813737219411277e-03
6.058835541400424407e-02
3.106892086216583859e-02
3.349909956226892332e-02
3.409027989625826316e-02
-6.785558944429753714e-04
5.303367585227924952e-02
7.547057472536702893e-02
7.282906343955437845e-02
9.141977709277548936e-02
9.746650630488075395e-02
1.455446401193647987e-01
4.986446646215137585e-02
9.460655298306250294e-02
1.014859362478346266e-01
8.465274225512672834e-02
7.805340652907513666e-02
1.143643688711470929e-01
1.134273969133632043e-01
7.124563174480558203e-02
4.994466446216957317e-02
8.969368873506948503e-02
8.434381953542674504e-02
1.222796687226001267e-01
7.569516799463867074e-02
9.690071727831738035e-02
4.948108361815227452e-02
5.231249728277862637e-02
7.373824735232867300e-02
8.718436041281985016e-02
6.804352846077932337e-02
9.510685999454557282e-02
3.845920532568078420e-02
8.249551358217696584e-02
8.342194253033879958e-02
4.821941132314457729e-02
1.026738798468790070e-01
3.751276421997976757e-02
9.199769123529948078e-02
1.500178969285069497e-01
7.803272199522995334e-02
1.885318521613401910e-01
1.628910961981635819e-01
2.160033772727841250e-01
3.185186160530447119e-01
3.070480086130457087e-01
4.306422801310912374e-01
4.358836461811610441e-01
5.110084511347454672e-01
6.119011839283328147e-01
6.791495241588364484e-01
7.449448089316923483e-01
8.031321019429161767e-01
8.441495209878616679e-01
9.138138719396527998e-01
1.058692897902782537e+00
1.120725929230051099e+00
1.112196522135863397e+00
1.080281458879026824e+00
1.121112072497795875e+00
1.115563354066679169e+00
1.104771954377488985e+00
1.062126900179164446e+00
1.058750206869751187e+00
9.939587999158617793e-01
9.683306103837111545e-01
8.369067464470690831e-01
7.778720978641731065e-01
7.153624659944286535e-01
6.452203258070801084e-01
5.011118635423538192e-01
4.777034729744361607e-01
4.024828569635338638e-01
3.457694569749805158e-01
2.837502537358812527e-01
2.855633297690760575e-01
1.665900368112795682e-01
1.306228719904435065e-01
1.065412735364956176e-01
1.001991010024306794e-01
1.005021322783782589e-01
6.522719207997432211e-02
1.000773006922909547e-01
6.391811458680339564e-02
5.786987301613170237e-02
1.970201270882724481e-02
1.147751344023034414e-01
6.057877369140050178e-02
1.140062794439588578e-01
4.990719563827785560e-02
9.777574884401049604e-02
6.070957590024232686e-02
1.372224411008728107e-01
1.215775628779349471e-01
1.189129743699992858e-01
7.727110881695736788e-02
1.618668289316674280e-01
1.714929537614729993e-01
1.046523557207693633e-01
1.265539316606505704e-01
1.551209241334743361e-01
7.369131369368875362e-02
1.726790763104544268e-01
1.743450262337251089e-01
1.319378145615602016e-01
8.810591963414649008e-02
1.687407755235213469e-01
1.294133982383899040e-01
1.202449197997136343e-01
1.832523130317473548e-01
2.156650560643798009e-01
1.732929110032846720e-01
2.188734856947439078e-01
2.064114739839306156e-01
1.481563716770647188e-01
1.752775298140049620e-01
2.265021242607772878e-01
1.791433739025362903e-01
2.221279104311044694e-01
1.864433658928634496e-01
2.212232287744816672e-01
2.129374702766196614e-01
1.927333797069132881e-01
2.207302254574129985e-01
1.345385790256037051e-01
1.658033824068995965e-01
1.831501532852357339e-01
2.305781418712480324e-01
1.500097672994671893e-01
1.900207739360947889e-01
1.979294732675992430e-01
1.928677678225447500e-01
1.792213792165478770e-01
1.600151759954325792e-01
1.674171704560130924e-01
1.999913843316994122e-01
1.457934540502263121e-01
9.713667151506996666e-02
1.711744133536824419e-01
1.971529463648106495e-01
1.156645944649305063e-01
1.828007664342891359e-01
1.522481808117132074e-01
9.647895851696035308e-02
1.045105865915955945e-01
9.757856040441263701e-02
1.194058276347896019e-01
1.031929129422254898e-01
1.360787304603612857e-01
1.226740640114434844e-01
4.513278379749879193e-02
4.325432304533861905e-02
9.863116915249953154e-02
5.918175598478200850e-02
6.391585550013523243e-02
8.016410766072781802e-02
8.422605695075902066e-02
1.628462525083813894e-02
-1.842854021539350184e-02
3.988675497145535709e-02
1.283270826541534765e-02
3.580428767655154110e-02
2.664489947885356758e-02
-4.320254907630771690e-03
8.334297193100390078e-02
1.720123239849580959e-02
-4.406132315335056782e-03
1.212736596381472354e-02
2.142157280313593259e-02
-1.684723282187819762e-02
6.850233442955130925e-02
-4.985660438963539220e-02
-5.068613288149655116e-02
-5.783371261094963356e-02
-1.234337203379581860e-02
-7.284222688327263162e-04
-2.714211722274957259e-02
-5.298920733314775589e-03
-7.734151379642402457e-03
-3.415397823606772937e-02
-1.228155141253486904e-02
-3.264681157346435714e-02
-4.055629194372364910e-02
-4.466043715277881465e-02
-2.402598038848915984e-02
4.306541888911538662e-03
-6.949078515311399307e-02
-4.876926819700608956e-02
-3.041347274501944933e-02
1.656162114629142201e-02
-2.396630156673642403e-02
-6.199776158927462061e-02
-6.596407875971614654e-02
-9.259913740272900096e-03
-4.872629414759883232e-02
-7.669181498943006270e-02
-9.743590584610932470e-03
-3.125438147617103091e-02
-7.661849575586382466e-02
-8.125247317426612104e-02
-1.062769885969921668e-01
-6.008276977203215463e-02
-3.239763277241358014e-02
-1.280298129019916131e-02
-2.891757900765619047e-02
-8.081894634406233680e-02
-5.015531013749661288e-02
1.306015612754486688e-03
-5.682945370400370455e-02
-1.824940745394932826e-02
-2.176028992551431313e-02
-1.808452546487279711e-02
-2.765119532581025719e-02
-1.753866474408379700e-02
-8.428185887039374435e-02
6.094394483910282878e-03
-9.302277888112973903e-02
-2.885419728414437973e-02
-3.896077642922381179e-02
-5.548296083227515635e-02
-6.507521056067978871e-02
-1.832504666056374715e-02
-9.655899823584460084e-03
-3.553844587478222766e-02
-3.973555730291743887e-02
8.921302934575936483e-03
-4.047769752318996356e-02
-2.722828581970187026e-02
-3.002922853865813355e-02
5.243194411453980242e-02
-4.446617285387171464e-02
8.304433248056984629e-03
-6.478075633963814584e-02
-3.948493864368819717e-02
-1.675203374913518395e-02
-7.913067053395547723e-03
-8.505989663534475886e-03
6.723145981984771091e-04
-1.287657745631970094e-02
5.076512792386417283e-02
-1.333739597624112802e-02
4.372642076488440777e-02
4.660280432461237632e-02
2.865102004953989923e-03
2.543903052968015527e-02
4.162041068937653160e-02
9.727338435847275588e-02
4.129115352434534203e-02
1.664378225173542281e-01
8.610035417156539084e-02
7.864061836072334943e-02
1.000326948598323773e-01
2.698050961414087678e-02
1.185483493398552107e-01
4.834587255292597391e-02
1.185050960799222258e-01
7.873474470383282076e-02
7.630375961030250176e-02
1.568719751527851425e-01
1.037364517180492107e-01
6.341281204626969537e-02
1.407737835043449404e-01
7.664683911960856744e-02
1.553642306596842160e-01
1.148649765712377313e-01
7.748204335052555347e-02
1.402295311520525833e-01
1.306857991888955572e-01
5.041092355462520325e-02
1.109204508850894083e-01
1.202160003540053562e-01
1.166994837409868202e-01
1.020985307405463671e-01
1.282223666035988696e-01
1.214418528162360261e-01
1.043181905224428302e-01
9.610963746501122174e-02
1.086259036730262140e-01
8.864471198801127105e-02
8.074013231989690675e-02
8.500826274824643813e-02
1.262966559654367660e-01
1.180705994924039631e-01
1.581583467160073697e-01
2.272304012663663442e-01
2.114246224935363849e-01
2.585114592743126272e-01
2.910174076902176665e-01
3.875183061048190769e-01
4.553167969493079892e-01
4.551421112516719769e-01
5.603126861969162098e-01
6.749242844167511191e-01
6.540364730945795735e-01
7.960500367433462898e-01
7.912156525472112678e-01
9.178406511499102027e-01
9.806054801367586338e-01
9.934583899558948605e-01
1.127043752456079906e+00
1.136458726060489921e+00
1.128376393284988399e+00
1.175754671115512240e+00
1.187854361523634106e+00
1.087844500512266332e+00
1.012716909098151596e+00
1.059544704933813142e+00
9.805085218585807283e-01
9.776522119554859058e-01
8.538012959992183903e-01
7.974634418927482038e-01
7.040231338579241438e-01
5.850766423971660579e-01
5.565063854799516818e-01
4.438859873447191240e-01
3.757266576845860739e-01
3.235078288367949639e-01
2.670402977954634549e-01
2.494004166605277018e-01
2.039757526986633596e-01
1.909172420812662863e-01
1.080175485284309844e-01
1.261738474044095393e-01
1.027692059590150364e-01
1.110865782839428190e-01
1.040698979037593119e-01
9.592673542360488637e-02
5.873349637458948058e-02
8.845325125730638116e-02
7.323607112004180963e-02
1.302741171986892821e-01
9.737957609038587481e-02
1.004443589180446378e-01
6.421284223708195738e-02
8.994086105509983831e-02
1.207515596799046825e-01
1.161928945071929453e-01
1.215989559127490516e-01
7.751134767148692983e-02
1.116023322032063114e-01
1.337074198224848798e-01
1.839339856795579875e-01
9.705098326676071807e-02
1.283077065000575168e-01
1.084555887607681623e-01
1.808393912651697077e-01
2.122199028647333563e-01
1.928716846184505562e-01
2.046368440548297640e-01
1.614475585997258156e-01
2.083853810359196923e-01
1.788095918803026541e-01
2.082269954192005057e-01
2.257111252303246884e-01
2.058213906841992735e-01
2.428466606097636760e-01
2.167040132812322606e-01
2.328850914967213470e-01
2.841525631440543487e-01
2.447670768950125919e-01
2.094424942392253963e-01
2.192461293030757152e-01
2.612379653024911597e-01
2.673540456413236455e-01
2.356468974330867827e-01
1.912339183216738014e-01
2.084822272093794504e-01
2.419946955722160897e-01
2.532080936150090666e-01
2.648105811387016506e-01
1.722246473452354876e-01
2.575170346852029835e-01
2.720341607157186758e-01
1.549467998703235871e-01
2.238139331748730809e-01
2.436289572492536804e-01
1.751918762960427423e-01
1.989225401965797058e-01
2.268283399066977624e-01
1.902211232280450193e-01
1.906556227885823629e-01
2.036489637661757779e-01
1.572078941198115920e-01
1.554077354448338277e-01
1.964336425384327622e-01
2.056905994090343359e-01
1.839111786427760353e-01
2.074373216735132530e-01
1.737655504305214427e-01
2.111098676940324215e-01
1.521630564902210492e-01
1.522450364294712088e-01
1.512365031018899908e-01
1.147933731379686129e-01
1.048797274122142270e-01
9.573492590723796380e-02
1.007035825540034540e-01
1.742117180843328339e-01
1.615349401993805833e-01
9.195335005803859096e-02
8.418543181087011218e-02
2.752501069400010991e-02
5.735947107023688790e-02
5.829877703271717920e-02
6.492137938179361190e-02
5.670146573573308507e-02
7.606632945302806148e-02
8.885901096164036672e-02
3.992183305809611504e-02
1.011689016603277563e-01
6.489794607794917292e-02
7.780505318845140628e-02
3.476059336427830132e-02
6.129188046720641242e-02
5.561366201023809630e-02
8.330328544958959247e-02
5.627838797053650449e-02
5.988215297024784139e-02
1.612180180125268036e-02
6.573515257462540784e-02
-1.042191235113183734e-02
8.812263227173400618e-03
3.271408671329173456e-02
-1.190853454420095874e-02
-6.504071554503374798e-03
-7.854437508330430404e-03
2.993138593525353219e-02
1.265408477513212115e-02
4.528650798296823127e-02
7.183962108135630298e-02
2.267290276205937566e-02
-1.561094079971949485e-03
2.413750186660919284e-02
-1.440322784117356245e-02
1.001008513091382682e-02
8.530703833305976203e-02
4.929366792198556883e-03
1.974398304897652737e-02
5.516700578459531393e-03
-2.174512278150428010e-03
2.433986203767121367e-02
-2.836805854251738326e-02
4.664108299152943879e-03
-3.114127776348769167e-02
5.588892191501308726e-02
3.918213972830539293e-02
-1.343039936543514654e-02
-4.597441840885264225e-02
2.453411729750254455e-02
8.671035603216033227e-03
7.749282777365934516e-02
5.246785736036059522e-02
2.974702668923644849e-02
-4.834885957536371945e-03
3.529998775705362260e-03
2.085600286716324941e-02
2.291207025746551385e-02
-8.442402933630860015e-03
-2.754412517638195335e-02
7.188416804437651464e-02
1.578902411748354939e-02
2.831837972206611292e-02
-9.219526651149414359e-03
5.850011638841917661e-02
4.983603724963660275e-02
2.168553450659999049e-02
2.754013508461774368e-02
3.128962960736422771e-02
2.733700204519746296e-02
4.293811463075209583e-02
3.947606078361638043e-02
2.505662637033809897e-02
-2.381616781610836411e-03
3.445280728016145155e-02
6.046066127443026905e-02
6.106649283379482485e-02
8.343693185256800815e-02
8.999147833005877173e-02
7.209179708749653692e-02
6.048298352255902788e-02
6.919661950404185080e-02
4.590193459825341049e-02
9.155484895916117527e-02
1.119212655899135822e-01
1.082717833873171470e-01
9.868656770545135293e-02
7.989030896788246183e-02
8.166388098775545501e-02
9.287629443571224219e-02
8.115735000418211609e-02
1.167303978594352309e-01
3.002519082274071258e-02
1.031551455928356731e-01
1.266931061792124780e-01
2.049226039098566154e-01
1.350858525270982047e-01
1.410890490571911626e-01
1.195218879514149124e-01
2.005327204433030308e-01
1.286694682997887029e-01
2.178510314841148876e-01
1.381042248130311956e-01
1.915974629102769056e-01
1.642789738007459643e-01
1.513040970755774595e-01
2.002064484922299326e-01
2.110540655665875398e-01
1.664460076942313738e-01
1.716345668739920893e-01
1.598771370407849612e-01
1.784412835219478799e-01
1.379474466644643460e-01
8.870680227545527097e-02
1.118445317448207160e-01
1.595765770524759930e-01
1.323035957773553428e-01
1.591539032036872192e-01
1.458756040276294463e-01
1.391602747507888760e-01
1.408225356568378606e-01
1.904406554362609583e-01
1.712520652578864711e-01
2.160448735010260246e-01
1.797977430500678486e-01
1.303304414450115745e-01
1.712356373723209757e-01
2.255996224490867397e-01
2.543449049657998673e-01
2.604004553105903619e-01
2.914624617381175731e-01
3.412543047414444142e-01
4.062505476414131622e-01
4.669929567702585937e-01
4.997331342159931356e-01
6.097776336557999555e-01
6.835569888543041595e-01
7.500015307379369611e-01
8.103586073401560785e-01
9.278304422247085625e-01
1.020486616287642923e+00
1.034547452341005203e+00
1.088151888636069708e+00
1.169646152306796472e+00
1.157023327403731372e+00
1.176705861023781274e+00
1.203876195014276895e+00
1.226094619406926212e+00
1.169237056503315442e+00
1.160113785568028577e+00
1.052942800144831104e+00
1.073564209954010140e+00
1.031500903499514399e+00
8.879085330329798964e-01
8.515116304525260915e-01
7.533233768738384351e-01
6.846853472455443068e-01
5.985336598575625722e-01
5.252919985377954015e-01
4.432155285013600343e-01
3.754467098019276250e-01
3.879814475475029667e-01
2.583499001799329231e-01
2.687724740514258470e-01
2.346211983345881658e-01
2.084925585166473860e-01
2.087762824328540101e-01
1.615802207832809090e-01
1.804540274535058608e-01
2.122524494397480532e-01
1.429721202759366150e-01
8.394671973968995116e-02
1.400221809934715789e-01
1.380807034438240599e-01
1.596342864175467058e-01
9.100298587873709155e-02
1.645617815154188923e-01
1.467532147865023007e-01
1.884704454621142222e-01
1.541380895380814742e-01
2.012584080432124611e-01
1.355798575688572927e-01
1.872202563668237396e-01
1.633761906026309219e-01
1.837560463992771176e-01
2.858642956798614354e-01
1.816044797224103391e-01
2.046872459136330757e-01
1.872477674193943065e-01
2.179451781212582429e-01
2.281308566538648996e-01
2.159267913695868679e-01
2.904293255245962158e-01
2.827888436967879726e-01
2.245273344300276475e-01
2.820149404575687524e-01
2.474599691354189834e-01
2.290822838158433905e-01
2.482590305611501180e-01
2.356677384672433984e-01
3.048393079609784673e-01
2.532607713595765864e-01
3.208256460354103612e-01
2.887065406990474425e-01
2.743322684166707437e-01
2.729884461012129226e-01
3.418888323866456913e-01
2.905184899986679725e-01
2.756171772538310583e-01
3.165251067795398221e-01
3.082992763027743166e-01
2.605389077252807106e-01
2.894287996056923995e-01
2.337457984955111090e-01
2.853896739079032630e-01
2.938650250430488442e-01
2.955884955031441996e-01
