1.142375670790906073e+00
1.141013273639660763e+00
1.034092016448041162e+00
1.021050639171375396e+00
1.020347461254800026e+00
9.539469671418246977e-01
9.022865232170806937e-01
8.110721025639746617e-01
7.935745302301905335e-01
7.197980846435061419e-01
6.283942200793597443e-01
5.925607167313158286e-01
5.088970823671981059e-01
4.101172690250671771e-01
3.936487010887783633e-01
3.066300723692363395e-01
3.208483948938855024e-01
2.583055925154975063e-01
2.255009631993359076e-01
1.873754865837440331e-01
2.262296386881011145e-01
1.710881732981156533e-01
1.528771103759889449e-01
1.484240262489098239e-01
1.709388789639985085e-01
1.641479714800927192e-01
1.655866609358455921e-01
1.675867913937517939e-01
2.214982727863151202e-01
1.485188758990607649e-01
1.494775808248789140e-01
1.450732294658387544e-01
1.929869577898339905e-01
2.136771072815568939e-01
1.818906731263831289e-01
1.657448355005539387e-01
1.719459198626679952e-01
2.219797160980681028e-01
2.305588307491296673e-01
2.303443446271902229e-01
1.998368435331427939e-01
2.324600575947709524e-01
2.346076744715784590e-01
2.431774852512649798e-01
2.681469366575695013e-01
2.539568537973108664e-01
2.726995392581517685e-01
2.592618583908193886e-01
2.706110669644465339e-01
2.853617390985475066e-01
2.269592121724361700e-01
2.650830208539734500e-01
2.642938238979178900e-01
2.626881002083373828e-01
2.767532055818529568e-01
3.326994776431516643e-01
2.643991113271651483e-01
3.216138291706914232e-01
2.439303777855758026e-01
2.858728122316442355e-01
3.019505525159368875e-01
3.154442473032443850e-01
3.196218674518729874e-01
3.221492772816559880e-01
2.875871936920526561e-01
2.835163475570732228e-01
3.221051424119184547e-01
2.892513915390269585e-01
2.549964674754782723e-01
2.572045109840739308e-01
2.612242261892245843e-01
3.010062888807901182e-01
2.873385929963809815e-01
3.004582854496330446e-01
2.633215651990201134e-01
2.770232402769297053e-01
2.869110219154625829e-01
2.545041947246703407e-01
2.729114975000786480e-01
2.345743989685716846e-01
2.385831600325920010e-01
2.329026118013975410e-01
2.032158450362281932e-01
2.483118547236546902e-01
2.141266615870076051e-01
2.230029470897749166e-01
2.314019742591677531e-01
2.246774232332726384e-01
2.255134101266306756e-01
1.968536107963915482e-01
1.813684074505177712e-01
1.859541129598802356e-01
1.320385849989026694e-01
1.336076118464199769e-01
1.317656941391847913e-01
1.360313446047130559e-01
1.725325428797689908e-01
1.280652000900015242e-01
1.386848697304144951e-01
1.839259475989570847e-01
1.293079929551179674e-01
1.573029645060069481e-01
1.024916721879245707e-01
1.198063014197063569e-01
9.308898765841941425e-02
1.071934503787023291e-01
1.385057621785787674e-01
5.756814190078615723e-02
1.186719496318895117e-01
1.091833831538676219e-01
8.079911727422785239e-02
5.197338906201236230e-02
9.440810205628580309e-02
7.340393028794667263e-02
9.346620873624135462e-02
8.448827210571055457e-02
1.293788879544485737e-01
7.177979242061749421e-02
4.602839481147991130e-02
8.001789756746097160e-02
7.927460687624694746e-02
1.116093284562509752e-01
9.416496997401160862e-02
7.820956287123087547e-02
1.099030622690186643e-01
2.894523638549475336e-02
4.411822063597075488e-02
3.430953753617115021e-02
4.929698038071839150e-02
1.865865787013671478e-02
7.806047191463294510e-02
5.146006839765267238e-02
1.319300959537206275e-02
2.610564388881647657e-02
6.529554859185923710e-02
8.040849794630264280e-02
1.145950364037559566e-01
1.415878776139384287e-01
6.613058005569164011e-02
2.358304647423037706e-02
-1.107920327532638249e-02
6.056644789782147931e-02
2.783787273047244604e-02
3.949298683773240504e-02
3.335388790854541818e-02
4.729092841724533841e-02
8.332640799168126999e-02
5.592543684978197593e-02
4.635716299825916320e-02
1.998518215917704718e-02
7.908774004355620391e-04
3.645885192375945133e-02
4.949422272445140603e-02
1.042514157535599090e-01
5.527771251307683070e-02
8.106231443186223684e-02
3.687179640867335045e-02
1.663859905563271763e-02
2.364183629316281635e-02
3.132625704048573601e-02
1.175118012786618704e-01
2.968601852589550574e-02
8.025623671819229199e-02
2.890097451692048153e-02
8.494613781613663539e-02
6.969049432042113967e-02
5.472881834376348148e-02
5.964420333022855958e-02
4.282577064840032560e-02
7.762689103908815280e-02
5.255290409583653066e-02
3.158299790426955661e-02
3.236075362331267136e-02
7.842997505109408629e-02
1.233897799182135657e-01
8.379671625598900109e-02
7.863517864239046029e-02
9.418413852498007388e-02
1.284201303823640505e-01
9.966361149120780971e-02
8.480077676312790247e-02
1.345584543652383336e-01
1.186559338344722048e-01
1.564562076446556760e-01
1.206193298980806489e-01
8.325418223498975978e-02
8.391245452540584127e-02
1.795301450590074399e-01
1.868039502814701491e-01
1.348148095756098175e-01
1.337919774122672822e-01
1.941632702695925972e-01
1.220490232557109728e-01
1.332291893978690689e-01
1.840131476618620532e-01
1.573108894470924002e-01
1.731866154459502094e-01
1.723470096574080679e-01
1.909712663910306807e-01
2.263130364209482159e-01
1.896713598821476443e-01
2.087310697610450516e-01
1.299377641172633768e-01
1.915638741577860849e-01
1.688501742336022959e-01
1.582360446611086879e-01
1.686401915559587739e-01
1.846834429975279801e-01
2.214609331049688934e-01
1.530503336705311135e-01
1.922413145982073968e-01
1.749561144262048451e-01
1.775647382479169922e-01
2.152468207161052360e-01
1.990620554443893186e-01
2.209456941081935910e-01
1.744515234794529746e-01
1.570846885247315639e-01
1.710468817904825800e-01
1.861300936675714945e-01
1.869692079217920855e-01
1.541739178140478783e-01
1.972184012078859183e-01
2.125048800530800475e-01
2.963092652865814136e-01
2.968049460327151223e-01
2.397830856548113787e-01
2.873065404397658340e-01
2.886144776468964057e-01
3.576273658139431655e-01
4.338616893574381850e-01
5.155299489822318115e-01
5.177535464191879155e-01
5.846521114212189785e-01
6.076260106446346176e-01
7.364818028524030558e-01
7.785238706473668335e-01
8.612398063992745545e-01
9.131070003689057968e-01
9.923112230933682776e-01
9.895606415155674407e-01
1.035085281392215784e+00
1.167992440294169487e+00
1.077717624951888276e+00
1.082354680184874907e+00
1.155988208188466926e+00
1.160897187180140122e+00
9.997321178107528850e-01
9.746880755887140646e-01
9.383488713403563830e-01
9.158552216122659573e-01
7.659332064182028388e-01
7.175022837021752808e-01
6.772964486220008906e-01
5.977496984765988675e-01
5.073242240712467765e-01
4.529182026539048112e-01
3.593552615657268356e-01
3.430711827341352271e-01
2.980817641729682776e-01
2.751699335773665211e-01
2.197621039387044894e-01
2.245114598974466968e-01
2.199368411131948642e-01
1.781019926905922368e-01
1.719839183052705445e-01
1.545423850894643847e-01
1.474341582561530528e-01
1.227240485220505439e-01
1.528035025618740828e-01
1.409305401722961704e-01
2.084515834819103408e-01
1.956530703617904987e-01
1.635854701244029707e-01
1.332560536898410586e-01
1.273493854413703941e-01
2.013534942916996029e-01
1.786346417558263566e-01
1.904560563825230535e-01
1.291260630385102359e-01
2.147673868450724610e-01
2.060902811212294572e-01
1.646606427832587316e-01
1.893195267491921407e-01
2.168202016608553884e-01
2.158553776237858157e-01
2.107968699087303110e-01
2.216253451237261973e-01
2.222059611218610287e-01
2.392251277489662320e-01
2.835044491402908262e-01
1.668810625689325644e-01
2.410878351444514789e-01
2.575749300421793508e-01
2.650022287835799850e-01
2.485481743516547992e-01
2.103120895390372391e-01
2.758722081735965892e-01
3.205685206047287905e-01
2.251326634655251846e-01
2.991376446252670962e-01
2.651054517641521779e-01
2.745156671616822419e-01
2.458115352381343155e-01
2.680514106255764695e-01
3.174126872853935133e-01
2.958546007599197059e-01
3.299444906090676088e-01
3.125351452462120649e-01
2.892628962632724510e-01
3.269296684419836230e-01
2.859520874775708377e-01
2.954489012761508659e-01
2.592038097154477083e-01
2.672635060690725650e-01
2.411962193958349099e-01
2.883561904760340022e-01
2.195807067316470906e-01
2.743873911028290036e-01
2.409258042602212546e-01
2.772689059186989602e-01
2.599184700746383636e-01
2.870651146072161208e-01
2.492329036651804164e-01
1.748415671802799054e-01
2.145353238504218996e-01
1.757918963460229911e-01
1.896980255965299289e-01
2.447827047738233563e-01
2.126952586434252279e-01
1.666672556758848067e-01
1.512503068038846821e-01
1.766504301564877921e-01
1.331709848811693242e-01
1.435466662649747260e-01
1.670823958731084413e-01
1.864659952298573509e-01
1.642116087519953083e-01
7.142328262056615862e-02
1.435898136548792725e-01
1.310119430822732078e-01
1.357657370423248910e-01
1.664491017364840564e-01
5.080388340454159574e-02
8.983835962888594984e-02
1.203080973180666036e-01
5.028738442040957962e-02
1.373177726980916169e-01
9.954786129618221902e-02
1.095094394242285690e-01
6.275753251434369739e-02
1.002333013254985555e-01
1.039704028243933209e-01
7.515974662080213142e-02
7.162315631744120559e-02
6.927838371941305584e-02
3.200199906744061185e-02
5.036563101412380727e-02
4.725688542989514573e-02
6.052402617083438296e-02
7.635143024901371034e-02
1.207589235280841569e-02
3.769340938597231377e-02
8.363090474668029295e-02
1.475023051557644224e-02
1.038317760530956153e-02
3.922979964037093953e-02
5.671414476558392370e-02
3.005425679967512614e-02
6.801096224708749749e-02
5.237332149119312136e-02
5.054311590938820320e-02
4.061773017985409462e-02
9.261142727729379520e-02
1.549176583923940476e-02
-3.952162365020155804e-02
6.771739204915785959e-02
4.928619352936416606e-03
2.102603302570635671e-02
5.626261585330615683e-02
-3.185222860750173968e-02
-2.204461875739589446e-02
-3.319745326897313720e-02
-9.602905585249250225e-03
2.683246582298873251e-02
2.883107748853155211e-02
2.089398290690625687e-02
-3.023994582492236377e-02
-5.758673739406437037e-02
1.295588282459538693e-02
-3.183577347001115276e-03
2.443162386957258014e-02
3.142580524710589240e-02
1.426976922492860511e-02
3.272194850889224155e-02
1.663229749814414474e-02
2.554151727619414017e-02
-1.156773448645514665e-02
4.170540598106210750e-03
1.550701317872629770e-02
3.432839331636280272e-02
-1.920752210869531434e-03
2.578238604491942670e-02
2.512454025176091149e-03
7.393976888957529137e-03
3.633937052184629812e-02
-4.769446945946533012e-02
-2.603382527496435339e-02
-3.071294104436063030e-02
-5.522426584331947136e-02
-4.382637720068365168e-03
3.978900549332904657e-02
1.026972658920965661e-02
2.643937347055282105e-02
5.505982979385388304e-02
6.428803327072936391e-02
2.466129965893383916e-02
6.983099012448690246e-02
3.468989964047360097e-02
9.724622520982550977e-03
2.015400389830025382e-02
-3.072565857788022228e-03
1.827188737654355730e-02
3.795693021299119396e-02
7.678730458382752866e-02
1.084748210506797095e-01
1.973387197109385816e-02
7.749038348444614588e-02
3.913421689375361223e-02
8.935233097894519638e-02
7.602996675609982602e-02
2.994849074706272887e-02
1.176688437323814423e-01
7.661235634515456416e-02
8.365109405002385534e-02
7.240809566348942183e-02
8.959400974255170291e-02
1.266320789979310524e-01
1.125034530036522068e-01
1.322004709397033850e-01
1.370951946341247007e-01
1.694554924736342005e-01
1.228173501626609043e-01
9.169618583367632192e-02
1.705268297107150888e-01
1.306561744392359947e-01
1.756910541648779855e-01
1.549530454951067726e-01
1.402517430076808402e-01
1.549149665428065370e-01
2.027828443947187476e-01
2.059093887125218458e-01
1.445974755763934638e-01
1.458403163252529056e-01
1.714914559298372498e-01
1.117217337827615120e-01
1.447772193375725380e-01
1.316244268667945971e-01
1.395023508540336743e-01
1.030251049543859238e-01
7.876850805562743418e-02
6.346748335142374242e-02
9.245012013624848146e-02
1.140414610203074469e-01
1.228156694291166334e-01
1.960405989704360197e-01
1.804912144520394723e-01
1.315195753037489146e-01
1.881870649907268211e-01
1.878200127322997848e-01
2.192239198963994717e-01
2.669232402787984348e-01
3.197214730779305847e-01
3.370107996635307579e-01
4.312397751924035849e-01
4.228377563469923883e-01
5.199165624172829014e-01
6.640380087152526478e-01
6.615040080115259791e-01
7.671188723199930948e-01
7.948415092912261004e-01
8.740626270877476234e-01
9.139074192142605524e-01
9.618195083352016894e-01
9.853175792001613864e-01
1.052222540649134563e+00
1.032001581060653095e+00
1.082620497785122815e+00
1.086950917239697834e+00
1.044054787045524568e+00
9.908690626596724504e-01
9.684676321126992615e-01
8.916182476112782807e-01
8.675348464816876604e-01
7.177655939670195551e-01
6.926678341561481878e-01
5.719085051828397548e-01
5.164689211737495400e-01
5.344032505409203049e-01
4.563862915640659601e-01
3.489440342120243010e-01
2.721553757691531072e-01
1.811367061361488784e-01
2.129011782048904344e-01
2.671519469890248910e-01
1.788337973600903907e-01
1.257328962675584860e-01
1.381662071553758919e-01
6.346491072438878445e-02
9.125165132772981857e-02
9.625886179288288547e-02
8.648526886291317550e-02
1.107932292788670892e-01
9.719141755740574873e-02
1.081033163089424320e-01
6.971759845924915822e-02
1.204820059319210851e-01
1.462560127690965550e-01
7.262466489804665637e-02
7.981393355365193343e-02
1.515095052774249329e-01
1.108851293388213866e-01
1.640672461768644397e-01
1.140931563033164564e-01
1.764875252622957746e-01
1.422652598955937986e-01
1.515414535178692956e-01
1.961742410842816642e-01
1.437587739981184831e-01
1.316766990124233760e-01
1.516502937086043334e-01
1.837521952948198423e-01
1.281426436081570253e-01
1.990116596351013123e-01
1.683163996969857523e-01
2.233072892806382548e-01
1.212218406963192496e-01
1.733954140053881321e-01
1.500904205845705330e-01
1.793231594808793461e-01
2.146841763362295208e-01
2.047262257698847510e-01
2.050423925804396863e-01
2.100891353488497648e-01
2.228572311732708588e-01
1.880513693376003603e-01
2.407182075006573108e-01
2.402452702534565443e-01
2.324117225191292269e-01
2.376915605503652773e-01
2.296612750799498781e-01
2.812324188106304357e-01
2.166188640887463379e-01
2.087138887270677812e-01
1.936632626180865291e-01
1.832982113912977051e-01
1.745909848422347588e-01
1.825914655583463497e-01
2.041469137156691205e-01
2.130015731415877966e-01
2.009187727586277117e-01
1.725506791735518797e-01
2.183899697547880825e-01
2.091859058052628062e-01
1.776012828078121220e-01
1.579759605399507771e-01
1.889924579370585445e-01
1.729768702061902086e-01
1.185324905071938051e-01
1.544351032939178248e-01
1.587124014070157019e-01
1.181349604282578569e-01
1.450121737423608614e-01
8.979856432127361621e-02
1.676088740556754830e-01
1.590134983001365299e-01
1.080403080751763945e-01
1.205662898493700397e-01
3.143405533087913206e-02
6.314805612020876757e-02
8.318431532613906887e-02
5.405918625338676509e-02
1.019598541451086915e-01
1.348430043827657798e-01
3.412431745304545655e-02
3.891018462730106570e-02
6.583074636296877558e-02
1.019640974218080642e-01
1.196006635680287034e-02
5.124672104075356921e-02
9.370795111425131441e-02
-1.503701040110784481e-02
-8.312576579824836054e-03
1.317465630775110919e-02
6.190009987681044379e-03
4.227300702389095305e-02
2.139486377118705179e-02
-4.269128839297792882e-02
2.259373143881896612e-02
-1.346121256536434233e-02
3.898938479942425095e-02
-2.102587590923149855e-02
-2.409932266894055167e-02
8.578507862595036171e-03
1.272189789280178673e-02
9.065267168931329111e-04
-6.533951122705608516e-02
-7.349655159981580144e-04
-4.988377406187338714e-02
-1.365389313733982729e-02
-6.516603378173235761e-02
-1.069546042510530898e-02
-4.980865034368642252e-02
-6.551483180905708081e-02
-6.950916405527939046e-03
-2.235552439660790439e-02
-4.917800513241494392e-02
1.170355773454365145e-02
-4.604836855107910520e-02
-3.279088259609219680e-02
-2.654461445517877424e-02
-5.399654281903452924e-02
-2.200749567979662369e-02
-5.282423920793208327e-02
-4.979630419429932620e-02
2.855171598701328195e-03
-6.977188859939242871e-02
-1.114236384939780999e-01
8.844082185470759916e-03
3.659231700072519688e-02
-5.241024845044642277e-02
-9.868419870376946013e-02
-5.018338665257165987e-02
-4.970855274055614725e-02
-4.703558331635850076e-02
-7.491787159376017691e-02
-2.426897467850135451e-02
-2.601972196028884410e-02
-8.664359747880064078e-02
-2.084659233016191229e-02
1.979577125625945483e-02
-3.653550049005524492e-02
-5.166625106071097429e-02
-4.559620149712757808e-02
-2.259956362248993419e-02
-9.262362149900786601e-02
-3.533587133388860907e-02
-5.145580687347034443e-02
1.631669306516313894e-02
-4.361245665729192311e-02
1.249637082055413823e-02
-6.967956406712344508e-02
-1.784080886847339703e-02
-2.462185202668089323e-02
-5.886442742294627911e-02
-2.589409616397313207e-02
6.912577834521330122e-03
-3.723845793588975023e-02
-7.615134429592765319e-02
-2.358533590601535543e-02
-4.758863223682160970e-02
-2.802974326308442510e-02
-1.723293961513870307e-02
-6.276078137491156173e-02
-5.664688889960785290e-02
9.916817944356247361e-03
-1.638143761771283444e-02
-7.359063677242139168e-02
3.114501627225930297e-02
2.020254953672330489e-02
-4.784855827076675561e-03
-1.812395472532312563e-02
5.133290837267939083e-02
4.172072685716191054e-02
1.077765437513988622e-01
5.400947400015294886e-02
5.815532883555202259e-02
4.661784344725967977e-02
8.117566650643971704e-02
8.037982202546636867e-02
1.040040615342024410e-01
5.546940923431820103e-02
6.249703448726103006e-02
6.539192631695389668e-02
1.074137890769263637e-01
1.322496696450012332e-01
7.679316547911058111e-02
8.069640820230419842e-02
1.053378738932789216e-01
9.059067084643532275e-02
1.281269510460276151e-01
3.315473197422848933e-02
7.658341960559816863e-02
7.812213242968590876e-02
3.173513131278274391e-02
7.174587212593466767e-02
7.209554266386088150e-02
9.203962356179683224e-02
1.296692925225312321e-01
8.689874879654833906e-02
6.116127508807850388e-02
8.820896287153573434e-02
1.193891991418260801e-01
5.700601964790553977e-02
5.797146736099888925e-02
1.019958577765362195e-01
7.986395226247411383e-02
1.089604303370278471e-01
9.440363741826399147e-02
1.239423549362920485e-01
8.331549249577988037e-02
1.294939359018827674e-01
1.436513674130904250e-01
1.388130205292692210e-01
1.593995270589225188e-01
2.639526848354787347e-01
2.761768129213382217e-01
3.055684709064843685e-01
3.887730517932196928e-01
4.861859154566544605e-01
4.489229101821177181e-01
5.404775486855228905e-01
6.271672005469256517e-01
7.677660041966445359e-01
7.990504042120967210e-01
8.756677084523450949e-01
8.738291446638959403e-01
9.211457846728589027e-01
1.004417879329680074e+00
1.017124584675139554e+00
1.043394143647204286e+00
1.019537779248938181e+00
1.018473121342476695e+00
9.871270059256340712e-01
9.663209208574045084e-01
9.176288087072697053e-01
7.868842431668564563e-01
7.037808264898016697e-01
7.327565633088476416e-01
6.677489119559434361e-01
5.308262672032455498e-01
4.366986979763042287e-01
4.297738030806767529e-01
3.935273057595704005e-01
3.637230257510176701e-01
2.754511319234220768e-01
2.052318721529901024e-01
1.522815250240353024e-01
1.481811626182056585e-01
1.133237910293989070e-01
7.153028006215750301e-02
1.477859423446684362e-01
1.282935193696244092e-01
1.007263783747234520e-01
3.386244861106978143e-02
8.440920880391392100e-02
7.719280728163331606e-02
7.210810219135359300e-02
9.839973839564977731e-02
8.302420553200273723e-02
8.996826958970979837e-02
9.125210385021303994e-02
8.717635019015443354e-02
2.857153185224307196e-02
8.994861481731677988e-02
7.627936071308405452e-02
6.020647350894062222e-02
1.547611817628055109e-01
1.619144600452110672e-01
1.565619445653112507e-01
1.291588087383998551e-01
1.676906028778738511e-01
1.331328939012309254e-01
1.443633907934702698e-01
1.108716740276374652e-01
1.608500340372632509e-01
1.558648878393025794e-01
1.199161034060229614e-01
1.622126952030969738e-01
1.659019877802072052e-01
2.265406178904071088e-01
2.035177211832230604e-01
1.808536107890376943e-01
1.915188086774713694e-01
1.886381149729176032e-01
1.841791530719753267e-01
1.604346786444365569e-01
1.906920115052817000e-01
1.748222197164856495e-01
1.613345867350205465e-01
2.154700815114548029e-01
2.128059243196796513e-01
1.480427244025408207e-01
1.981785652206036197e-01
2.315838446038552545e-01
2.329826903699413199e-01
2.311162384906662870e-01
2.002897203249535962e-01
1.722037706196850593e-01
1.631356501357739963e-01
2.037434200128183936e-01
2.022193723657048359e-01
2.265848126918740546e-01
2.177887785764030804e-01
1.773611695726693971e-01
1.402691953245908674e-01
1.640337333661398556e-01
1.758959970665014139e-01
1.588663464601056119e-01
1.429371548936596847e-01
1.630192099573576636e-01
1.353047617171427297e-01
1.264233399679143832e-01
1.493207512427187078e-01
1.225183060987309613e-01
1.364101973720361904e-01
1.317190513310048938e-01
8.372135051422954777e-02
9.781187138569864825e-02
1.497085986198878060e-01
6.603754902698497076e-02
3.173993557333364829e-02
3.375467541821294826e-02
8.489969242006170647e-02
7.943044228497377068e-02
6.952469640401580386e-02
1.041148862771197614e-01
-1.776202787268942040e-02
6.914310008879091807e-02
9.906822700819915839e-02
1.347825222049264804e-02
3.113837528587288378e-02
1.530774625216543838e-02
6.572875156515473050e-03
1.927581571292916185e-02
6.770425697037817103e-02
7.597598098815826206e-02
6.911756326788538740e-03
7.043956466397328919e-02
1.081578717317940863e-02
5.898278276613615201e-02
3.587161638420391374e-04
4.035712344395044060e-03
8.173228695395551302e-03
8.983584729216492759e-02
1.742330662076454345e-02
-3.176882464681631685e-02
1.622952263038330428e-02
-2.584290330250085116e-02
-3.169030634584790729e-02
8.383402980958437611e-03
-1.969066163264162825e-02
-1.389123431955223420e-02
-2.333597008629625935e-02
-1.505188858657357034e-02
-1.368624068079072470e-02
-8.572717644329733155e-02
-8.706156779115188649e-03
-5.915634394145855707e-02
-7.386936450003805943e-02
-3.317439481730624640e-02
-2.964602784588916962e-02
-5.364031283270560835e-02
-8.504468751066217302e-03
-7.423576236861828548e-02
-4.665263386162740722e-02
-5.240680392027823042e-02
-3.662036664476498588e-02
-2.716810112596020066e-02
-6.603413468952538945e-02
-1.428684523449378838e-02
-3.430021187937627031e-02
-9.308259142257030438e-02
-9.517646888112191172e-02
-3.684469712965687815e-02
-4.312328304837769605e-02
-3.957923623130231439e-02
-3.726173858648963721e-02
-2.956394616008217735e-02
-7.771673800612825811e-03
-6.936526721146875352e-02
-7.098082448673756484e-02
-6.836705208768165121e-02
-2.659852439213492015e-02
2.434355480864375254e-03
-4.744735106890658749e-02
-1.090914019116134281e-01
-8.462800501733483416e-02
-5.789550497134353380e-02
-4.895399135649514122e-02
-4.370559330350550636e-02
-2.943436376841998200e-02
-3.897952365699206695e-02
2.929314377390253299e-03
-4.763404913037536104e-02
-5.189482083804210222e-02
-1.018981707491691327e-02
-6.900504351408474901e-02
-9.463508422419410898e-03
-1.612499808213509536e-02
-2.149150176844469295e-02
3.290312119830772486e-02
-3.089038679600370277e-02
5.231096952522860249e-02
-1.332349038056831331e-02
-4.171775339822433870e-02
2.062424333802305443e-03
-2.873055317780143225e-02
-1.518509103518167480e-02
2.330480975003040162e-02
3.229707027716949286e-02
1.401405538582006782e-03
5.431511919207133998e-02
6.422020443921083732e-02
7.754434827849931988e-02
5.543622957700014564e-02
8.567041444301923270e-02
-6.353303583797275528e-03
4.589743628663482677e-02
3.481840825995294320e-02
6.979609280958826156e-02
5.442839651492317743e-02
7.186496922439730706e-02
1.384804205162706858e-01
8.193839437447367202e-02
1.042694510541719854e-01
8.948604923988891235e-02
1.030594779966500091e-01
1.050021995723061097e-01
1.219708489328120843e-01
1.468142547526037345e-01
1.642169765299533180e-01
1.266055174337987754e-01
1.370863504852901371e-01
8.650280601415964721e-02
1.195570524428925391e-01
1.510988727851790281e-01
1.491020492308313683e-01
1.292523796265745706e-01
1.488478055405794420e-01
1.359364247887153154e-01
1.558351852090578971e-01
1.268422668452085511e-01
1.056390210216550940e-01
1.244639206020306393e-01
2.462991457084692803e-02
1.224630051742990056e-01
4.573821959540473603e-04
5.793100725242207594e-02
1.240496982582464103e-01
1.272268710936682312e-01
8.244304933612735253e-02
1.029046553336171593e-01
1.754482260324141674e-01
1.335969497005347340e-01
2.335321482419960848e-01
1.892525265246431943e-01
2.300935968753228811e-01
3.008102512165294895e-01
2.968724807405601629e-01
3.097661146794952192e-01
3.895137113995683076e-01
4.503041432780177100e-01
4.737975296120932045e-01
5.741043376864272130e-01
6.287778529117793447e-01
7.485320181962799024e-01
7.901346151848047672e-01
8.453458966029562260e-01
9.096751385245789301e-01
9.708110916398984269e-01
1.024219759819377407e+00
1.006075918053378038e+00
1.022734047459300744e+00
1.091877807338603290e+00
1.037760056418268961e+00
9.859800105630053269e-01
1.007951197983814717e+00
9.637751377930335872e-01
8.499389413598366083e-01
8.414165047910902029e-01
7.900520654530805986e-01
7.095885185844267307e-01
6.466810992253567703e-01
5.158607795850881361e-01
5.007608923429687220e-01
4.185444278610682134e-01
3.549425593940821466e-01
3.430861398132613038e-01
3.150480566783074310e-01
2.844934830979217733e-01
2.362865678777816281e-01
1.656216643081216133e-01
1.570215388911967436e-01
1.518973200947361102e-01
1.193304702855475380e-01
1.101822619529400082e-01
1.247272577565520374e-01
9.465052638921432615e-02
7.314365083388219002e-02
8.293921026843585620e-02
1.161396642953321512e-01
1.000577052472952644e-01
1.138693033651168030e-01
1.281107960540426305e-01
1.016005052859612068e-01
1.407378340925192206e-01
1.348902152006337951e-01
9.214893077032823565e-02
1.782649361370502450e-01
1.258624223572036016e-01
9.716867273645270198e-02
1.214223916257435865e-01
1.280819113289003441e-01
1.661803937198729486e-01
1.622409279035028074e-01
1.661103172018099927e-01
2.004618839369629868e-01
1.975990846828447056e-01
2.022729069098860022e-01
2.103122284145342025e-01
2.215456027659929716e-01
1.446669271380540966e-01
2.015981515593683049e-01
1.515152324695863417e-01
2.221414101434546207e-01
2.247907457208161985e-01
2.598829953388785419e-01
2.674366666383645730e-01
2.408720696847850840e-01
2.224382065348435855e-01
2.543328734971482818e-01
2.259293901725547560e-01
2.433664110224445232e-01
2.742799279488630226e-01
2.288922204325340160e-01
2.703641605100639000e-01
2.667218117412969991e-01
2.175997020180940877e-01
2.749434459655146212e-01
2.658095837453317012e-01
2.466840114844470466e-01
2.191842107941879558e-01
2.143672774359691446e-01
2.217742150931930334e-01
2.516242146814219871e-01
2.038133923001317627e-01
2.424497618395472509e-01
1.886345462076740309e-01
2.160636237349592426e-01
2.215252035767018568e-01
2.874081352177812465e-01
1.683390109942057289e-01
2.492269331592419923e-01
2.047919666681815576e-01
2.077029745599761890e-01
1.938492538698402268e-01
1.984505450682068906e-01
1.752060683199138102e-01
2.180628729546607580e-01
1.553075243481113199e-01
1.974828843684818258e-01
1.386708501581692954e-01
1.506695743295657919e-01
1.147995995495700999e-01
1.551127814336109023e-01
1.793571258990891149e-01
1.282762701255468762e-01
1.193501315268513940e-01
8.655700478146984012e-02
1.079466185679175683e-01
6.197359446712946696e-02
7.741535130553950372e-02
1.067709184172131454e-01
1.348329140397089843e-01
1.749707456671606709e-01
6.867171393745938324e-02
1.250513422398453200e-01
8.518056435938731186e-02
6.936225637564659430e-02
8.306785807403122002e-02
6.829827409955958883e-02
6.626481019972199626e-02
4.737675085470043068e-02
1.451845936331977276e-02
7.148090900971812087e-03
7.020768378799566167e-02
3.961896539186163940e-02
2.750032089070315183e-02
4.325136504519221103e-02
6.460396170919921466e-02
4.406935156267295650e-02
1.701761655089659500e-02
7.166277406757834423e-02
8.055344926734560318e-02
4.644278430101619198e-02
5.936349220216956962e-02
6.607410650356801418e-02
6.148909180121026052e-02
4.488383516527089112e-02
4.338483630462751373e-02
4.009155022356070824e-02
-9.262342556719888736e-03
4.391939065560018784e-02
-1.845772672039588946e-02
-2.227822476489857081e-03
6.018060833189811665e-02
4.580952568736473829e-02
6.481585326846404926e-02
1.169254977605926546e-02
-1.502150051352350510e-02
1.208700883253439017e-02
2.216314201972301862e-02
2.131909095746534893e-02
5.284975221121659961e-02
7.931670926349290718e-03
2.929999589109432215e-02
-1.091338935644308242e-02
3.229762368306930698e-02
1.895959006454994017e-02
-3.514537059569080441e-03
1.205401204167637873e-02
1.378881967140960056e-02
1.143197082313308736e-02
7.293841247690424634e-02
1.714759298620641484e-02
1.313093328848625833e-02
-4.208143368986727584e-02
-5.538412852067620823e-03
1.389737672520465969e-02
1.777090860998208760e-03
6.443421160218280874e-02
1.873892190603749369e-02
6.312537463372826230e-02
2.719686173425814313e-02
2.743324579083724832e-02
2.472906384086913378e-02
2.869855008856880829e-02
8.146505134013677651e-02
-3.823579520856400238e-02
-2.709761588592103296e-02
1.840491672067959966e-02
3.705225288959173441e-02
5.941076412924527206e-02
5.517558602100820775e-02
3.192367333611276919e-02
7.669092584451553396e-02
7.990116915254096008e-02
5.760517983497609462e-02
8.426751683263271342e-02
6.708967339461560653e-02
4.580649500762709603e-02
8.754204597266709853e-02
7.409369539822913131e-02
7.518719302101181667e-02
1.239012273509210865e-01
1.093314839124999438e-02
4.684077008193074376e-02
5.881772729512586839e-02
8.871546735596202993e-02
9.725886912083084312e-02
6.503429507343277960e-02
8.609958121664293418e-02
9.524049832643161073e-02
2.001768938344747895e-01
1.858359811191521160e-01
1.246647494062520234e-01
1.312091558011932169e-01
1.125674231149300653e-01
9.451563504827216466e-02
1.527205333500904760e-01
1.304735907008732765e-01
1.617258094695230297e-01
1.197746997173016192e-01
1.480488000279210903e-01
1.780852335512209672e-01
1.868999020232770258e-01
1.902759104225444642e-01
1.395135154076159734e-01
2.056767977001560666e-01
1.564696883293136831e-01
1.994414905271243987e-01
1.796737128888530044e-01
1.378244823008218378e-01
1.683817809492340889e-01
1.872673906396699617e-01
1.929004158079679621e-01
1.683568352392011414e-01
2.166188430400552145e-01
1.991438796280008972e-01
1.598588244349086751e-01
1.893507463043031802e-01
2.251154496234635261e-01
2.275136456426488651e-01
1.352385371486656274e-01
1.499436227639946995e-01
2.307839205925766579e-01
1.664161355790948482e-01
1.744659154099262033e-01
2.201956935600313525e-01
2.732609136421814133e-01
2.891758838664890141e-01
3.104018546439473725e-01
3.536145614977462825e-01
4.025860374177288037e-01
4.535447099481693112e-01
6.095669973846239431e-01
6.154724657427057544e-01
7.015196126149264577e-01
7.299507010888803826e-01
8.082274286652681994e-01
8.590162429637824282e-01
8.627872522992747761e-01
9.560942049997531722e-01
9.894054541269400316e-01
1.011973573048477570e+00
1.067414897345760449e+00
1.153948932276280370e+00
1.110457258592335350e+00
1.134840202484596050e+00
1.080128735884545055e+00
1.051379235652823096e+00
9.509054644373678977e-01
9.354293068304441183e-01
8.771343847928302351e-01
7.694523476404145912e-01
7.330500858422954735e-01
6.627920567726631740e-01
5.606842200165627066e-01
4.781950683498571442e-01
4.156148871146586599e-01
3.984308225725364250e-01
3.563402129973578525e-01
2.797085062040607362e-01
2.674982632981228181e-01
2.530827194271856317e-01
2.294508831373496538e-01
2.375816643670811412e-01
2.140772684044322249e-01
1.345073479156734808e-01
2.072857021188886373e-01
1.359823446596503393e-01
1.807870971840887797e-01
1.509562742077910080e-01
1.375858214462942486e-01
9.798251501934776564e-02
1.502873454171865797e-01
1.126105666207807554e-01
1.929290794705192102e-01
2.143525721856420208e-01
1.501914205232822985e-01
1.886337005514451548e-01
1.634476921621055012e-01
1.720959576825479287e-01
2.199900991164338016e-01
2.014324874264513399e-01
2.606102135410284792e-01
1.997584176086162067e-01
2.499587138752126514e-01
2.285805910369687333e-01
2.551161959188529837e-01
2.232973737404691794e-01
2.405591617615726596e-01
2.437597809329370424e-01
2.271476815481449363e-01
2.769035855912054811e-01
2.811492222238199945e-01
2.838202277113207050e-01
3.162486445985503436e-01
3.174841671126413800e-01
2.663423733781045133e-01
2.920775759125495141e-01
2.651684087110517396e-01
2.872505335088184064e-01
2.709029927916191682e-01
3.395058025238802957e-01
3.034773151681399717e-01
2.873359268658767784e-01
3.306383273007549306e-01
2.303031353795522151e-01
2.352270826300013329e-01
3.193900691601435637e-01
2.968309268372591458e-01
3.016720399752090276e-01
2.531525092775006036e-01
2.906827577704235166e-01
3.495772153610707811e-01
3.119554538912099328e-01
2.897535111432595345e-01
2.686101104850868726e-01
2.667629831259504813e-01
2.112552962674299206e-01
2.791187657292878432e-01
2.927551918819055743e-01
2.158824908755046512e-01
2.388452860136310030e-01
2.192946592560114372e-01
2.202011797305628016e-01
2.457402018103602703e-01
1.764275179555633288e-01
2.520803388080869456e-01
2.508483919255211636e-01
2.151870315391525290e-01
1.427118825922158718e-01
1.815977896772499878e-01
2.427969431500919817e-01
1.167695948038897924e-01
1.839803825689793337e-01
1.533163386726942023e-01
2.071931550070529315e-01
1.571867470824753754e-01
1.840015537548679858e-01
1.833615098883052963e-01
2.160836809486963439e-01
1.496038162900691637e-01
1.617750974996919333e-01
1.008599114615094799e-01
1.761665296847419737e-01
1.128137874127482232e-01
1.141204196635948187e-01
1.257343893459207385e-01
7.512364988987185743e-02
1.246350997720298004e-01
1.427142722142269449e-01
1.185552115307206278e-01
5.833716641308551998e-02
9.868728742106315510e-02
1.212203565898073432e-01
3.933740212778893963e-02
6.030989129039462243e-02
1.158812223866332036e-01
9.487353753152637237e-02
9.646630902048605738e-02
1.373758066429436597e-01
9.327487517662552685e-02
9.672168151519566770e-02
1.562091921525446958e-01
6.650489675394648248e-02
4.714038091242737233e-02
8.218926766252362959e-02
8.091925603106148168e-02
5.045274197598507981e-02
3.389236392543830412e-02
1.328699381001277324e-01
7.218540467491407764e-02
3.930716753868839647e-02
8.773446066997701853e-02
5.604339135626207336e-02
5.086818539782737153e-02
7.453086389202331907e-02
1.818108240914903528e-02
6.685391939169062214e-02
1.130600527062664007e-01
6.910810075519066564e-02
4.333938086981664606e-02
3.896398729596359245e-02
4.146387520430252355e-02
4.579504465567620086e-02
4.176020976358449377e-02
8.030289898926312731e-02
5.734903407604852177e-04
7.822178755587651244e-02
4.079817464729638965e-02
6.335870838510580805e-02
1.813665479967631333e-02
9.173620565644584335e-02
8.921320295092362296e-02
8.063609253294656831e-02
6.449274928716441924e-03
7.685094521846416726e-02
6.425332950669324084e-02
4.128589129606508035e-03
5.178987640215233779e-02
6.374489330402768883e-02
6.984477365344952948e-02
5.890385548463580173e-02
6.282317569003613433e-02
9.887900409154724846e-02
9.212839395215671745e-02
-2.988665578710822390e-02
4.748945645297995843e-02
5.308022282373220380e-02
6.593299236189828494e-03
6.325767538131110701e-02
9.932042773060548169e-02
3.084586845616491338e-02
7.528975277690819201e-02
3.965698428241146156e-02
4.909639786497551478e-02
1.158939299796324096e-01
5.781723472083114684e-02
9.069165376243833177e-02
2.363403374326468465e-02
1.388022380164261604e-01
1.043921949834638319e-01
8.443412859880281007e-02
1.109850991841929008e-01
5.544075055915689831e-02
1.374262334824719323e-01
9.663259168192675497e-02
1.048043242443096601e-01
1.009061296734716784e-01
1.031004744184174371e-01
1.463359989950293316e-01
1.382346100527788724e-01
1.552283978673527354e-01
1.405566126411570416e-01
1.613536469850985478e-01
1.384869784872663767e-01
2.229601691547646869e-01
1.139293750664904237e-01
2.035394693664444032e-01
2.112991708256287682e-01
1.490162363692657255e-01
2.455095441843010151e-01
2.122419408314694111e-01
2.149191449407050203e-01
1.896640753207821106e-01
1.849477200971577640e-01
1.874016502611597912e-01
2.071774860295973464e-01
2.388178781004428597e-01
2.030759281049721032e-01
1.706777278976115975e-01
2.226729500157864916e-01
2.250412415680415334e-01
2.160837665946632180e-01
2.174524662758023086e-01
1.852600535702416673e-01
1.635445374265279139e-01
1.632122357650475919e-01
1.379745893759831143e-01
1.920163641275229316e-01
1.805547396340497213e-01
1.685278096030314310e-01
9.253762766446363419e-02
1.444234131379145414e-01
2.176727653443746302e-01
1.683529442148105071e-01
2.059229023464349273e-01
1.633454615835147339e-01
2.619459964945306529e-01
2.325596856421856262e-01
2.686498598332348609e-01
3.582954054750799311e-01
3.685180306228129088e-01
3.545259248147863418e-01
3.928762855580990587e-01
4.539086529182206342e-01
5.375305454475678424e-01
5.823742261973710033e-01
6.405613401078404934e-01
7.654460152591952005e-01
7.873931666677734809e-01
9.276055835534012806e-01
9.254437672525568370e-01
1.034549517384758754e+00
1.042079734979644456e+00
1.100851161337272233e+00
1.079492924302655643e+00
1.092389588040490800e+00
1.135376592470615176e+00
1.141465224617062013e+00
1.090237395085289052e+00
1.015520784701158030e+00
9.675644256970535872e-01
9.106777328338344635e-01
8.383922102219926176e-01
8.275454630250318466e-01
7.879011816982858241e-01
6.827504328891583762e-01
5.453549583914107934e-01
5.401250055106532333e-01
4.776698587581788003e-01
4.872025971625423835e-01
3.281502856106869870e-01
3.138576478994171137e-01
3.367578659867138113e-01
2.652586688412991167e-01
2.407023787160121331e-01
2.047072825833682053e-01
1.935253230532213153e-01
1.936247364955360761e-01
1.364057037687776419e-01
1.805815720715619743e-01
1.092257089122807695e-01
1.585926871960517959e-01
1.541623241089096763e-01
1.317459944307957098e-01
1.520674633391136399e-01
1.374196846554244511e-01
1.279308532401241261e-01
1.539414811701372288e-01
1.362575848926352862e-01
1.841518620572171749e-01
1.452445223643202832e-01
2.065151168733920239e-01
1.552027874884310543e-01
1.791940584513820600e-01
1.829928786619946512e-01
2.470180078463647677e-01
2.226646084642822099e-01
2.118329428662392711e-01
2.384906674884946232e-01
1.655517065849559100e-01
2.325859039366229564e-01
2.987720478762829757e-01
2.476186493164489466e-01
2.503032660429213574e-01
2.691248582800930267e-01
2.837438960311382541e-01
2.009087743683708183e-01
2.140657591555545358e-01
2.742770793433075838e-01
2.496700350539671487e-01
3.133265078955745908e-01
2.670487055525795350e-01
2.206835205251874155e-01
2.425616840869511126e-01
1.996528272045469121e-01
2.763113091703942592e-01
2.785205676358349924e-01
2.719158781006126291e-01
3.171316007986224594e-01
3.204728157637144470e-01
2.787943755921302724e-01
2.188927133716942197e-01
3.001215858605509879e-01
2.965806495330362558e-01
2.871718533808336749e-01
3.049662463806662727e-01
2.378795651381631071e-01
3.300710842703767911e-01
2.377029755809139111e-01
2.853463354741485603e-01
2.083536754375969191e-01
2.269063931338909379e-01
2.958974208935707950e-01
2.379400002708079165e-01
2.661113807083013150e-01
2.429731635214533170e-01
2.274890997052356756e-01
2.661680095179769778e-01
2.126276757486230407e-01
1.606595847926981790e-01
1.842371986697983743e-01
2.190401210987552028e-01
2.084755786236894282e-01
1.436588028495053293e-01
1.629727416094417236e-01
1.612734641677299463e-01
1.617895285343546319e-01
1.255272798558003389e-01
1.420425857184473561e-01
1.331770046074320368e-01
1.723892519254248690e-01
1.678040447681623526e-01
1.335344225951553832e-01
1.206280720319050231e-01
1.311797804322109851e-01
9.719892305470748117e-02
8.213478811102389865e-02
8.331327543971668581e-02
8.759844194129468020e-02
6.700954562480240795e-02
1.021987794129223526e-01
1.148074257763078421e-01
4.104025856193677102e-02
8.530434555269479635e-02
7.401066373431872125e-02
8.707344041685907698e-02
7.282016593516049685e-02
2.614007821330274761e-02
2.857395829469806109e-02
6.418150572720343616e-02
9.116819895707693744e-02
-8.965279774159159998e-03
6.513369563679978491e-02
8.789414582881263649e-02
4.519607314719083224e-02
6.400755924350448600e-02
2.425260712357429210e-02
3.973057572083363298e-02
-7.230269126859804885e-03
-3.073397187952190551e-02
6.618698714843807007e-02
6.765213840546869042e-03
2.115852747038397125e-02
-8.166409559810003382e-03
-1.018152278677102174e-02
2.567648878180121136e-02
7.856951717576910257e-03
4.001004741762634320e-02
4.124329922757434541e-02
3.635421164931214311e-02
3.300964310081919845e-02
7.236508406297012530e-02
-7.761394158536698978e-03
2.190341444716589411e-02
5.686482804414162706e-02
6.019789204362033241e-02
-2.097119080358229859e-02
1.177142065814216695e-02
6.138465456616552102e-02
3.541949292880737510e-02
2.560723652668680378e-02
1.282652677232539937e-02
7.486049992049718244e-03
2.732518719540245195e-02
1.082216720598572907e-02
1.686825348289994198e-02
2.029496915763789877e-02
-2.572291543305856021e-03
3.361087841199657950e-02
1.049992142847747667e-01
-3.576106257821690809e-02
2.730203394768254688e-02
-5.129150801511774341e-03
3.516124719346695737e-02
1.947282503097908304e-02
4.125019959945637471e-02
5.406754467645873835e-02
2.508048155284144792e-02
5.388151496610681795e-02
-4.968095700488157213e-02
6.921522419826138528e-02
3.374281593147447633e-02
5.596130460665133671e-02
-1.167929935399665727e-02
1.450795731509010866e-03
3.238464949654897007e-02
2.931292211425090555e-02
4.032720649428578330e-02
6.658291813956675187e-02
-1.648902645675620615e-02
6.831532085112096420e-02
4.219908717638334167e-02
3.890563921353745735e-02
4.172531473883200198e-03
6.690037876874499467e-02
-1.690017170126349721e-02
7.889282030389768718e-02
1.878938292109722658e-02
6.944845159966170356e-02
6.872645534859034289e-02
1.119902223810610720e-01
7.627090442975463513e-02
6.563212620434108469e-02
7.615575827070349135e-02
1.344797567023250096e-01
1.173312345170381132e-01
9.459781918718015992e-02
1.039371135301468269e-01
6.878114861619229192e-02
1.320807388478496547e-01
7.208774486286503858e-02
1.516791495948878743e-01
1.369766177463971057e-01
2.084324468339775194e-01
1.072042369201640089e-01
1.401589192015613994e-01
1.998343970734969832e-01
1.838648031531828764e-01
1.290423167929745651e-01
1.580039327398339855e-01
1.522394965984382453e-01
1.610648901937935251e-01
1.316052237159612837e-01
1.493868440140075637e-01
1.031852504470492787e-01
1.538299169829814572e-01
1.615584445049141338e-01
1.392090060807856522e-01
9.532642597631310610e-02
1.710584088951710713e-01
1.499768419906995776e-01
1.150859497787461022e-01
1.266759647789327259e-01
8.896892427987584950e-02
1.031099222700717494e-01
1.189900972499164933e-01
1.750411498421068357e-01
1.243826770204112947e-01
1.710256255411849446e-01
1.473911810275868040e-01
1.867890147073952012e-01
1.956181181522999024e-01
2.518281524941585747e-01
2.411168482018772041e-01
2.476048212657681880e-01
2.971974367450663235e-01
3.727566212586314043e-01
4.071273370666023128e-01
5.179564939566237980e-01
5.568994305194423511e-01
7.101842117606053106e-01
6.561178449912090649e-01
7.830181088091591191e-01
8.090351514459946936e-01
8.892041808299611105e-01
9.624353156700324874e-01
9.336972821127853539e-01
1.045186867683723042e+00
1.117787657398687795e+00
1.056790124806882503e+00
1.074536340715592786e+00
1.080604664134770632e+00
1.015450825568007476e+00
9.619626248990039707e-01
8.601731234332599119e-01
8.885987382235320808e-01
8.008124483048224551e-01
7.047152384049654161e-01
6.679438380584307167e-01
5.758344054264669110e-01
5.086159828831133822e-01
4.772094372617517455e-01
3.580395868022181460e-01
3.742621230573878743e-01
2.515867617506348797e-01
2.305795752895736239e-01
2.713482134778386068e-01
2.167114694609765524e-01
1.606964494148505895e-01
1.095798667256867726e-01
1.065331364992788687e-01
1.132258179919695407e-01
1.041895436611396664e-01
9.524422632195408966e-02
9.431962244559598252e-02
8.800974217531730426e-02
5.191533107039277700e-02
8.162562310670866406e-02
1.274500515490426811e-01
6.257793033845716890e-02
1.021099976641183932e-01
8.778728265636251415e-02
1.206104603934284314e-01
1.107237117411745686e-01
1.719741452816482552e-01
1.482242405991323619e-01
9.910988152460264988e-02
1.640661776475241529e-01
1.261536855159696158e-01
1.375197073495724176e-01
1.696292369282796086e-01
1.507738297627623514e-01
1.975288613961763140e-01
1.526096920048994332e-01
1.622433084254618074e-01
1.659326491107638302e-01
1.732929091965505208e-01
2.276836462868681299e-01
2.178069620455400646e-01
2.542483132636471077e-01
2.747410746864382691e-01
1.792906905975293341e-01
2.155486763531828109e-01
1.810831723651303848e-01
1.956700688388824938e-01
2.024087954960538949e-01
1.915828318920526352e-01
1.933907997885344621e-01
2.219245007385511059e-01
1.907061593826361034e-01
2.530701548268126100e-01
2.005127507590641622e-01
3.122097956558618215e-01
2.138964779669297600e-01
2.287528749080330326e-01
1.865281967286238352e-01
2.750132770812535044e-01
2.555094143741849511e-01
2.285847668422581469e-01
1.766938134045584197e-01
2.205162367043970173e-01
1.773407124686840475e-01
2.513433327522561767e-01
2.279528353182669054e-01
2.024744715523671967e-01
1.221999576130156778e-01
1.612307519243675324e-01
2.065873176774190301e-01
2.173592703825796280e-01
2.090814162143115884e-01
1.227134156827155154e-01
1.740406725530671828e-01
1.898517053714371405e-01
1.039192390483016509e-01
1.476251226756631341e-01
1.501991742183139689e-01
1.270298100619992598e-01
7.452206363063969274e-02
1.143331248113414189e-01
1.083021237950993615e-01
1.077128605778464449e-01
8.931691661906854263e-02
8.704398917269792757e-02
9.331789447086979994e-02
1.020321863243885685e-01
7.396234440291243883e-02
6.524087717340600057e-02
7.484527254779910210e-02
9.110130051358789754e-03
7.583883457423677699e-02
5.643586960615215586e-02
5.270998481007471703e-02
7.555473302128375146e-02
-1.648638776281985407e-02
-2.159587954191869927e-02
4.151295259366756529e-02
2.892579126894323505e-02
3.024713792152280284e-02
7.443176364243055121e-03
3.756522143194051394e-02
4.210303094890100600e-02
2.529276867486732194e-02
-2.439627100664990000e-04
-5.868658534902739671e-02
2.473698934432190522e-02
3.557673994445768179e-02
1.567197838581336350e-02
-3.250245272624764648e-02
1.178909995122464499e-02
1.521184060952016776e-02
3.410854790237916739e-02
-4.086863984713753895e-02
-2.319093956558329964e-02
4.321236499483085969e-03
-1.796704126345788008e-02
-5.469951063004781927e-02
-1.013454150303965545e-02
-6.514557686479044429e-03
-2.244985311029169817e-02
-1.963329165482175648e-02
-3.503655095958122662e-02
1.609151773191862256e-02
-5.619035995347949897e-02
-4.763735512780607750e-02
-3.047560742123869848e-02
-5.166970942241271014e-03
-7.713361021427801723e-02
-7.214770595448223578e-02
-9.454949135786859526e-02
-3.297063810403860762e-02
-6.799182160984999779e-02
-4.642953165056351583e-02
-1.546287804364982615e-02
-5.492372996295804416e-02
-2.907506571262390843e-02
-4.529300657776659522e-02
-1.641202325761361228e-02
-2.254694998885788462e-02
-5.774592883876109028e-02
-4.219490388742953152e-02
-5.928775807347977378e-03
-2.550121762789800406e-02
-7.922539528736412262e-02
-1.761080702092896952e-02
-6.972491022829362117e-02
5.342140908593612236e-03
-6.090712824942341730e-03
-2.782501892357681222e-02
-3.143306215473218312e-02
-4.196250739568337107e-02
-1.478222862116862144e-02
-4.560396329000274834e-02
-2.664332353335524539e-02
-6.659778397147556039e-03
-4.864712191332992014e-02
-4.911147551294055280e-02
-6.513691315866268483e-02
-5.975776403485442978e-02
-8.102055471062540037e-02
-2.436919944537943583e-03
3.196351325912995256e-02
2.268288909054347324e-02
-6.642635914229666483e-02
6.747076780603156188e-03
3.052642733094927674e-02
-2.275998434419916616e-02
-2.711087368556269750e-03
-6.247135081078356023e-02
9.502591511417128600e-03
-2.646229119514916656e-02
1.557760560786874277e-02
-3.291509420271588465e-02
3.471298952024891998e-02
5.382516607915051321e-02
4.392764402555274228e-03
-1.308669634917054847e-03
-2.688451512865180915e-02
3.485846953501731127e-02
3.048407292280159303e-02
6.475266355637755711e-03
7.162809928194403819e-02
4.949116181132221653e-02
3.555424488877928502e-02
5.587018180581961035e-02
1.091340567124260974e-01
9.933909323095496680e-02
8.133766651103213619e-02
1.074948491320430743e-01
5.743980442345495568e-02
9.621496869074080971e-02
1.022436553034742762e-01
8.588832881156133192e-02
1.147661434104932932e-01
7.955303964269673511e-02
1.190597870393624164e-01
1.206527832868044547e-01
1.645154808962382559e-02
1.390958061477768071e-01
1.095281276640387019e-02
8.250675738775845036e-02
1.300180441457116087e-01
8.774161094646698578e-02
5.110361552481530040e-02
6.005342346737480713e-02
1.215510040249145607e-01
3.127350713394055209e-02
1.215008206774501887e-01
8.552210103770739591e-02
5.213119663865100478e-02
7.273501661339427937e-02
6.411010935034638925e-02
1.276179293457391783e-01
1.337950314852893452e-01
7.423685774990283759e-02
1.321103953628122718e-01
1.417389465823002681e-01
2.353935366656112471e-01
1.909922795001553486e-01
3.207368070512511826e-01
3.189756329158095483e-01
3.385138348707477651e-01
4.119690144644367336e-01
4.718339816197161252e-01
5.247506599265413518e-01
6.349672564604762481e-01
6.646820063978575721e-01
7.037908281883488160e-01
8.216694655167510186e-01
8.368687895543518440e-01
9.182665120439966744e-01
9.535632008617594968e-01
9.832896487225311066e-01
1.085492594269352962e+00
1.029982067772376553e+00
1.025126185260037959e+00
9.409876433894810432e-01
9.391080687182021824e-01
9.189064585924283657e-01
8.264078266138024098e-01
8.220198636959321625e-01
6.913764744186290390e-01
6.487274016081689965e-01
5.688368475357554743e-01
5.215713797317022005e-01
4.304113381224077273e-01
3.785847874015275671e-01
3.218314952604413581e-01
2.548961797979210631e-01
2.456821513572094162e-01
1.987746855480528874e-01
1.556194200388423265e-01
1.178639838727450762e-01
1.325686557734246929e-01
8.435001583994866659e-02
6.925504715402774902e-02
7.231847586500705916e-02
1.139212588631647038e-01
1.925664433548391480e-02
8.113141498411230446e-02
1.520139508245012261e-03
6.647157668429772015e-02
1.099082844654825919e-01
8.084178524781954200e-02
7.545611671680976795e-02
5.815536228683068631e-02
8.088668631726521341e-02
7.764028475722747902e-02
6.705644436863028579e-02
8.750167853957868669e-02
1.077938993953517915e-01
8.451498439067942070e-02
8.904483251789259424e-02
7.811296536753084552e-02
1.362894599590489253e-01
1.465124615381719897e-01
1.426036414922108309e-01
1.700052406222504198e-01
1.489574891141683677e-01
1.632084148886184249e-01
1.655257940988764664e-01
1.584441005315982143e-01
1.498438818163492781e-01
2.365520650638036626e-01
1.606913676942911540e-01
1.581429178619544740e-01
1.947401538609967730e-01
1.925926109698212485e-01
1.459131449510192857e-01
2.244473547769312016e-01
1.903301097277905751e-01
1.618856903566261718e-01
2.325948336335788014e-01
2.170719735082864421e-01
1.613827264787831561e-01
2.532943275355724055e-01
2.200424371266800905e-01
1.999109342963337199e-01
2.475006992569238617e-01
2.037913638101852276e-01
1.970327336986710531e-01
1.765785759658739518e-01
2.120115596840874694e-01
2.066867230946318468e-01
1.903351472557223423e-01
1.633855108470931294e-01
1.878695842528907978e-01
1.784736877176657521e-01
1.368829827365410923e-01
1.287912023228071356e-01
1.857134106497305148e-01
8.628711569768041101e-02
1.658802557758461416e-01
1.405568835943635242e-01
1.891539377654900822e-01
1.299541656737123740e-01
1.592578939275395289e-01
1.221636479956247634e-01
1.319827715398656787e-01
1.450951451996320696e-01
1.034722085763737087e-01
1.415617760550600956e-01
7.614573875008706638e-02
1.090786597117532897e-01
1.222136772150657635e-01
1.086547182103004827e-01
1.407068914330995568e-01
5.472571220349821408e-02
3.073886153670897514e-02
3.684965297995121403e-02
8.115316904106126272e-02
7.104253782406122486e-02
5.405226950952940479e-02
1.229935766523877760e-02
6.412940877161889264e-02
-3.435400653172479557e-04
6.658530779711026304e-02
1.131093627452518235e-01
3.410355633229343597e-02
3.648485834861918409e-02
2.476939844853337513e-04
-4.306908076844855743e-02
-1.047757338749497752e-02
-2.865314376862720946e-02
-4.258423135356933370e-02
4.935020897803087114e-02
2.878335029177538085e-03
3.253367439578387643e-03
-2.008322417091510867e-02
-1.852280093719791201e-02
1.322327394679068124e-02
-1.891638493227677451e-02
-4.119203831148443573e-03
-2.787915438443130597e-02
-3.409259870882979521e-02
-6.773929656707362856e-02
-8.644808482927109072e-02
-3.643118143753303756e-02
-2.824823646228831475e-02
-6.978109230714270306e-02
-3.338584850567512946e-02
-3.179885712925062391e-02
-9.906190743484169503e-02
-6.272091704018435687e-02
-2.385479195095707716e-02
-2.519109254033059103e-02
-7.207228204612239897e-02
-3.330103676775309635e-02
-7.911989033782866609e-03
-1.574282270388216443e-02
-4.232902125623189821e-02
-5.387309806248219424e-02
-5.902844958217254301e-02
-2.638150398346258974e-02
-3.478706101399367534e-02
-2.194034382934267891e-02
-3.700849364252782603e-02
-1.650539223812936065e-02
-3.829651371133936666e-02
-1.762259861189679339e-02
-1.503072909084009895e-02
-6.524628660004935798e-02
-9.527207655611902304e-02
5.398800672149976776e-03
-3.304366247457415917e-02
-9.197234926377553799e-02
-6.170074135557746670e-02
-1.682888180389742472e-02
-4.802086160518442837e-02
-5.457963208810159839e-02
3.284988778288616684e-03
-6.961422142040543659e-02
-6.151819237530641027e-02
-3.052658688649100005e-02
-2.435789046139169925e-02
-2.028497474528527522e-02
-6.833313850225064545e-03
-2.709039501167486569e-02
-1.711592623256755208e-02
-3.818582320891659998e-02
-2.699297617274000471e-02
-2.395441160449889029e-02
-1.886612595488643823e-02
-1.039248953460178426e-04
-4.399999349260649839e-03
-1.730678827394082492e-02
-4.028306389029295831e-02
-1.114569513963020037e-02
-1.096833695295738875e-02
-1.066193516936479735e-03
6.282015383984153323e-02
-1.538317779815898123e-02
1.692131641988368906e-02
4.044118982592245781e-02
1.566650943278172226e-02
8.739501952455769329e-02
1.063257832662235780e-02
3.657526202696809170e-02
7.912887743467052204e-03
2.647942307650626853e-02
4.974005304897519131e-02
7.297921126910156264e-02
6.252205689603432259e-02
9.609044393814734908e-02
6.081008994722057054e-02
5.897426010833956012e-02
1.552400496442826738e-01
9.099160096171399204e-02
6.244833274230655179e-02
6.785920514452645214e-02
6.480947637568876263e-02
1.253017416483844515e-01
9.006555481337444324e-02
1.082551149285902459e-01
1.055821233787304081e-01
1.320751511150903557e-01
8.693901080913757351e-02
8.183582287684257328e-02
1.221323152150520785e-01
1.342654303993157106e-01
1.265798094809685304e-01
9.223054856854695505e-02
1.363109361913424356e-01
9.273494214067651287e-02
9.810525651696054561e-02
8.383079224476129576e-02
1.493613070304425916e-01
1.273927757919161019e-01
1.246279771115612056e-01
1.421820237936497200e-01
1.878505694854429309e-01
5.158606257762117508e-02
8.111396086609166944e-02
8.657766306387204569e-02
8.317791551143581541e-02
8.236336438462937837e-02
1.145983602431037279e-01
9.949541529256412942e-02
1.625777348522003951e-01
1.753471506790336698e-01
2.147971738899491223e-01
2.479429718867625365e-01
2.892573439185416317e-01
3.046800296307119460e-01
4.304009427926486220e-01
4.304820625212268381e-01
4.293709138449664509e-01
5.210704638821845869e-01
5.675831839501034315e-01
6.900964415293384668e-01
7.549354500555049974e-01
8.107252090633505492e-01
9.463305237824325422e-01
9.566247222806696371e-01
1.007055923972123290e+00
9.917217076595323810e-01
1.011985481402998044e+00
1.052404185255686908e+00
1.052478312435277896e+00
9.743774593524774374e-01
9.948894611103529240e-01
9.595454927098981956e-01
9.016308816921344560e-01
8.246372508061834417e-01
7.678516875222187732e-01
7.099127852422352225e-01
6.474126547263782117e-01
5.925678163936154430e-01
5.386115950213239412e-01
4.326282770512479003e-01
3.677282303668423791e-01
3.400208513307859670e-01
2.967415422432711503e-01
2.231903300804293777e-01
2.239763337971551471e-01
1.997127583493088498e-01
1.847553769558880066e-01
1.801510398977968497e-01
8.615809150895796520e-02
1.018814002512772460e-01
9.450196555201564874e-02
8.675859773824746990e-02
6.809887449724949526e-02
4.278273390041512081e-02
9.141857660220871484e-02
6.807073670306314217e-02
9.711389863525403399e-02
7.483994623106865474e-02
7.034140888265358327e-02
1.154372410024128714e-01
1.183141812264093540e-01
1.367615159329547692e-01
1.907088793800072180e-01
1.393035722343989868e-01
1.514498177976566218e-01
1.105092310592185462e-01
1.101644389881432096e-01
2.021630940617948069e-01
1.328276834797675887e-01
1.349928103140494717e-01
1.708212786598908295e-01
1.748551933438147743e-01
1.559161431649810914e-01
1.791166362371570120e-01
2.302465996213557131e-01
1.740913405409527936e-01
1.611549555937148159e-01
2.357075101346191026e-01
2.264168883633323748e-01
1.969883160498729635e-01
1.718171666328084102e-01
2.003299697006516722e-01
2.241090859179297734e-01
2.634850222897164307e-01
1.998544243389877573e-01
2.305163159274789542e-01
2.550613032926893342e-01
1.647724872568059884e-01
2.682710994866905341e-01
2.024709732669255635e-01
2.482293671226698528e-01
2.456326863302777386e-01
2.703713698241439478e-01
2.536047799735020591e-01
1.646476241985386502e-01
2.109641244150732009e-01
2.368540182528927063e-01
2.247267792624204064e-01
2.424508670599865023e-01
2.490393658985063929e-01
2.405498047874565504e-01
2.125216717820926637e-01
1.599440104785698480e-01
1.978000911801963968e-01
2.198486800884734416e-01
1.703172248929977206e-01
2.174395874569819420e-01
2.210398212473351220e-01
1.927153248210718151e-01
9.197072159139921266e-02
1.403888051536887893e-01
2.300560558401338052e-01
1.517237221797103353e-01
1.031743545273034607e-01
1.942826651033118524e-01
1.521183872545779081e-01
1.793419011991166656e-01
1.489789488437878728e-01
1.489204043738394656e-01
1.405799852376251602e-01
1.451879969757309263e-01
1.872215666147324098e-01
1.427390496171516698e-01
6.099611683291677328e-02
1.167022040960453005e-01
1.325519085929393603e-01
1.295121713098589256e-01
7.588368874752733639e-02
1.190154133719168311e-01
1.074256997907380717e-01
1.524420088196999090e-01
4.859087490829566702e-02
5.184850261601103155e-02
5.402458697474188387e-02
4.479923288380720237e-02
2.926436889062350791e-02
-3.029432816644870088e-02
3.632753349146113087e-02
5.739259267829881911e-02
2.861778125056437666e-02
9.873564293914223466e-02
3.848985322246872148e-02
7.438537160552861904e-02
4.121111627468078409e-02
5.601897689949063980e-02
3.760235722774328548e-02
6.842268149743102601e-02
2.730238955395980147e-02
3.889910720257338389e-02
3.351799942009518751e-02
1.250816214465580792e-02
3.204597959108589772e-02
8.577380748178102532e-02
9.576812971746020975e-03
2.931486510706287837e-02
5.359715318677180096e-02
4.928998693169252265e-02
1.473341008301522204e-02
-5.774395949207566936e-02
2.870631803714431690e-02
-5.386403919487563891e-02
5.639655992290637521e-02
1.702030705963998927e-02
4.161968162303020941e-02
-1.568820160253784485e-02
-3.540527307691447578e-02
1.883367627197829811e-02
9.887736793020110784e-03
-3.924145940699781503e-03
1.332767475332818918e-02
9.381461586414044374e-02
3.586775154025828583e-02
4.239332269112516122e-02
3.633838840444596208e-02
5.555164263459733826e-02
5.649207625636286541e-03
-5.007082939686942347e-02
6.173651637433420769e-03
3.648314430587965701e-02
-1.661989127348250522e-02
7.572581958320437866e-03
-7.449913666706961188e-03
5.885825921993166621e-02
3.683491970686944561e-02
3.451655915001150543e-02
3.430913294549321757e-02
1.531293838068475792e-02
2.321255419884547117e-02
-1.731995708168929463e-02
-4.630502636240055314e-02
2.495540845182561002e-02
3.145906741327618439e-02
5.943519406027412966e-02
7.185681538553431724e-02
7.352792105207696383e-02
-1.639681762638700926e-03
1.977783676810169339e-02
4.698174723018462562e-02
1.109448293216963588e-01
8.200474504519401908e-02
7.400292203761832388e-02
3.181756767037949990e-02
2.020070312185886369e-02
7.382731864775338160e-02
2.082222217804175976e-02
5.058806758221670585e-02
5.841021640778472357e-02
1.139602566456578980e-01
6.004920920477042900e-02
2.215907154301876431e-03
9.540127487525854044e-02
6.432538197986642503e-02
9.173598181115598382e-02
9.312629209465247970e-02
9.286973504047026096e-02
1.301985792410673970e-01
6.593264224780925886e-02
1.018276031735568798e-01
1.432325004488903264e-01
1.095792773872681924e-01
8.490740723187764627e-02
1.582390233338307473e-01
1.766884806708584055e-01
1.462235837166395158e-01
9.305335804276436418e-02
1.770550811494021881e-01
1.097351546481618312e-01
1.720793047720991231e-01
1.390750636864236112e-01
1.333637100605471471e-01
1.569182453497843521e-01
1.662354914611924306e-01
1.535004146158882588e-01
1.911110563238314630e-01
1.602274536972080332e-01
2.027251964142895990e-01
1.810395530310492940e-01
1.505747470555975076e-01
1.440852762680185362e-01
1.189370650667577467e-01
1.752135947629460955e-01
1.539376565036442712e-01
9.160400204726183715e-02
1.452011362026700836e-01
1.332965964108583368e-01
2.075027366212762459e-01
1.102594940194358969e-01
1.208359542068291603e-01
2.022115246597222527e-01
2.170899037167082213e-01
1.647339000760154604e-01
1.826519700564065152e-01
2.390854738976031513e-01
1.748121002355205733e-01
2.183807627517428129e-01
3.013582906436074738e-01
3.980557140600924360e-01
3.865083056455457244e-01
4.566376738989752493e-01
5.471265496020796260e-01
6.404382501419479956e-01
6.274719180969716703e-01
7.137414947341371718e-01
8.385229154292227483e-01
8.059661793696006882e-01
9.462721073580007136e-01
9.426123433717974454e-01
1.025812106595956230e+00
1.055056485139123978e+00
1.061692082382354130e+00
1.076427457858437631e+00
1.116463601483796975e+00
1.126944110993060244e+00
1.069170692230884789e+00
1.039152191348451604e+00
1.007536414452343987e+00
9.056933561111109032e-01
8.945361136250671308e-01
8.296039958637867473e-01
8.131204527138049531e-01
6.530753405431196645e-01
5.811927100765474918e-01
5.514311969651076728e-01
4.905337085827599086e-01
3.926743581051978516e-01
3.452371177526951107e-01
3.283719151476216513e-01
2.484047280519381395e-01
2.281548503949854534e-01
2.162158687638594812e-01
2.218250119702767087e-01
1.570487636968570799e-01
1.073948502939641725e-01
9.630111871014868097e-02
1.102374852787822990e-01
1.054105463680343746e-01
1.390482764000213756e-01
1.085867706375945596e-01
1.250737057274595165e-01
1.258827789640438177e-01
1.396472298912382892e-01
1.969116693328478995e-01
1.819343702423418807e-01
1.677454578009698327e-01
1.588696088929105465e-01
1.653227270108476588e-01
1.938946795809852741e-01
2.074074929361854891e-01
1.685142209024755311e-01
2.027062302400811922e-01
1.465136549016047007e-01
2.196208673264398725e-01
2.418751631192839480e-01
2.162623323600769976e-01
2.847056402330266356e-01
2.091896798880030495e-01
2.474188905013198214e-01
2.449223086561265195e-01
2.479031333417131278e-01
2.521926381477753720e-01
2.633230629561768010e-01
2.897964372481975359e-01
3.096812049558674840e-01
2.720011009780463063e-01
2.999609373699919646e-01
2.575809975819723929e-01
3.044324024504367343e-01
2.610896034256779408e-01
3.188306258804302074e-01
3.542487584158296454e-01
2.857357302153079037e-01
2.247349312653614262e-01
2.748220956386491221e-01
3.286109785151385410e-01
3.082737666000688881e-01
2.988123891741326088e-01
