1.076537752100766410e+00
1.076596582548347225e+00
1.119135521700756586e+00
1.074901021837449289e+00
1.085721265764581167e+00
9.399177820092801117e-01
9.387231509088513892e-01
8.478301561323916546e-01
7.472006717181283175e-01
6.891105678612754470e-01
6.069702995988575100e-01
5.642306706062931720e-01
5.225155546924011851e-01
4.231764428591970884e-01
4.066439943212045716e-01
3.723802132679362442e-01
3.383705023261113221e-01
2.238557411564354171e-01
2.289681535763183340e-01
2.286118980389929556e-01
1.565835722569378918e-01
1.361553849720846532e-01
1.647221255050174138e-01
1.464407186498198343e-01
1.496827480773766095e-01
1.389596079157690012e-01
2.179407687917382097e-01
1.407698240572313464e-01
1.747877694002772375e-01
1.762485721999334509e-01
1.141663705047163829e-01
2.134605581071483960e-01
1.932752793601705821e-01
1.845123999163773842e-01
2.170294560999552202e-01
1.895143874145744090e-01
2.231372376926803180e-01
1.461745731656700076e-01
2.327865966993011571e-01
2.195584973343054913e-01
2.257799733775135986e-01
2.002265570742962630e-01
2.245421869798245040e-01
2.291731790389179846e-01
2.078303458735513698e-01
2.579980150180605780e-01
2.995274670876095779e-01
2.145958293431872166e-01
2.766448299764687757e-01
2.538099464929782778e-01
2.545965493108972577e-01
2.769160685990700865e-01
2.811026088343730467e-01
2.873947950797079987e-01
2.510815017536095484e-01
3.205489544924038925e-01
2.928081826158565604e-01
3.103802518023782708e-01
3.308544250735946379e-01
2.382857435694731296e-01
3.159817361523826751e-01
2.929321018517676567e-01
3.288513347606595860e-01
2.743088528457335307e-01
3.261093337557284255e-01
2.657367308730669841e-01
3.084322672835393409e-01
3.035182554747129502e-01
2.886043820522382064e-01
2.602405668868814081e-01
2.777468511025599773e-01
3.137774574755861079e-01
3.276990309444965943e-01
3.383685272356413143e-01
2.919430036949282048e-01
2.798098398018239452e-01
2.816110223405221546e-01
3.216401564324686824e-01
2.748269025275903443e-01
2.570482841042726063e-01
2.412156497752613316e-01
2.395610229861487028e-01
2.506830071050206166e-01
2.111595298319690062e-01
2.094155782092642082e-01
2.207134928421743136e-01
2.034221202605717149e-01
2.291761108656645285e-01
2.257695925200504661e-01
2.076835988922541565e-01
2.087641688153936692e-01
1.918734601594206668e-01
6.889088433366144515e-02
1.507449950561490226e-01
1.926670235066089976e-01
1.407842420381453241e-01
1.862017963517522134e-01
1.825784320534875604e-01
1.420649511272295551e-01
1.272327821280281324e-01
1.402836440136475127e-01
1.338571528561481039e-01
1.493102972222169200e-01
5.573610628778535164e-02
9.956756294238758298e-02
8.699254255006896863e-02
3.774743309240953526e-02
9.454334096728189696e-02
6.065129306969796463e-02
9.042674589713708966e-02
8.398479032701250402e-02
1.089564805792826302e-01
8.473918325738602486e-02
3.854473905350362661e-02
9.688198372792053426e-02
1.564292670737396918e-01
1.135777428958444357e-01
9.933731470824713750e-02
7.086937396127747368e-02
5.991202614330044113e-02
5.586566604327762586e-02
7.805228455232327001e-02
3.503271287313916571e-02
7.411272720635911360e-02
4.609344300899522601e-02
1.317205015592930184e-02
4.297596186354921133e-02
9.963949069352073806e-02
6.513845509731079619e-02
-4.662127146413877488e-02
3.879033608954669116e-02
8.521596817345290786e-02
4.835533709427262961e-02
7.227313635899015876e-02
4.401413686282641680e-02
6.076141546729574294e-02
5.572515780605769714e-02
3.476205023621719431e-02
7.080144335622783058e-02
9.916441121356381339e-02
6.435883585932933304e-02
5.557711131136007510e-02
2.683701908440429273e-02
7.998586028069971932e-02
3.624667490655706509e-02
6.816783320227956522e-02
7.399628346392159162e-02
8.059717704162260021e-02
8.101052672308778346e-02
7.980855361359934230e-02
1.293495624524330229e-02
2.479092521357807027e-02
9.361778713502869054e-03
7.347232301952458244e-03
9.634244996197703637e-02
2.108501122248792117e-02
1.698868547178444127e-02
4.927624132440406451e-02
2.879151489128647587e-02
1.193024567247153722e-01
4.357912594591549504e-02
6.554216724449622722e-02
2.925361503119631307e-02
3.370961703194348680e-03
3.202665850752198229e-02
3.310540926611375140e-02
3.376183826386074116e-02
8.495834758077934479e-03
6.169561904985743778e-02
4.876521773043278329e-02
1.401736384541862890e-02
6.502906660357747615e-02
8.644411806841466317e-02
1.014250777090895117e-01
-5.010800337601838128e-03
4.797250022805665814e-02
3.128176475985253169e-02
5.555100644494832818e-02
1.197066155375329094e-01
5.937991410476164272e-02
7.030927387669097528e-02
6.326849379195197132e-02
1.407111899398436616e-01
2.693884311719291907e-02
8.343640358198980977e-02
7.854002380299221486e-02
5.742429276768683255e-02
1.468299886238634555e-01
6.450646621121805535e-02
1.097609282811220222e-01
1.262094231188411464e-01
1.111241460475061449e-01
8.672629313993576727e-02
1.387973478304620478e-01
1.260343496476293845e-01
1.781093690565271614e-01
1.741725395710254087e-01
2.216971128645564559e-01
1.711495978952820018e-01
1.897732427902665830e-01
1.652999369603056767e-01
2.310835088537448456e-01
1.833612916095396783e-01
1.829253262614379816e-01
2.047675486934436018e-01
1.713253886098421441e-01
1.773657486253564508e-01
2.097717528297505796e-01
2.162975251139979682e-01
2.125274290469461036e-01
1.920305546762401394e-01
2.019190910648222814e-01
2.215633478932391709e-01
1.584871158707681915e-01
1.895676968729496092e-01
1.001385640083798101e-01
2.074718167960320492e-01
1.595224441666606707e-01
1.581633154305409905e-01
1.753369402898782292e-01
1.962636594455443306e-01
2.489861411988632811e-01
1.313789280727568343e-01
1.548375480588748687e-01
1.916273901029060811e-01
1.700339564019265892e-01
2.271882586911331270e-01
2.111663865114453420e-01
2.612806108480448253e-01
2.508060089412201821e-01
3.036847439587476716e-01
2.936456253412641493e-01
4.216890327373011282e-01
3.599967151469097293e-01
4.431539317202819461e-01
4.806245285358236030e-01
6.106889814859211008e-01
6.697243143442824787e-01
6.857624474615773291e-01
8.211402566254972779e-01
8.373564378212076109e-01
9.330807911892659012e-01
9.972095031218612959e-01
1.020183938819266833e+00
1.093880740278347030e+00
1.089873990272252735e+00
1.119423988979716622e+00
1.102930030845367559e+00
1.043719929846323557e+00
1.071814058090454935e+00
1.013122700035740120e+00
1.034330903327212559e+00
8.959988150136665164e-01
9.111318497717260101e-01
8.016733433696295874e-01
7.492002299350706274e-01
6.249562953383632768e-01
5.876538555576994449e-01
5.103797239003370345e-01
5.309680861177136224e-01
3.898867958946583001e-01
3.936761803121816561e-01
3.487756662526003693e-01
3.088718702276527228e-01
2.239323179045557000e-01
2.687422173177237417e-01
2.531445258852094149e-01
1.867754814560759757e-01
1.490035586174864590e-01
1.279862621162880243e-01
1.618730227347559558e-01
1.461355007935135064e-01
1.482243106494292306e-01
1.025396201691393117e-01
1.455279900706729357e-01
1.814603491091314746e-01
1.750107665695764259e-01
1.421565421303236654e-01
1.557975819399634032e-01
1.198524806373008622e-01
1.490310554820081235e-01
1.640538379674503500e-01
1.986459545005478944e-01
1.639196981831125000e-01
1.595371406710980600e-01
2.188623626841026126e-01
1.889505893281815951e-01
1.819140148885412811e-01
2.368424932641600145e-01
2.315340284814098870e-01
2.167387195792431498e-01
2.174884946619599912e-01
2.443288616027903537e-01
2.538548161905215261e-01
2.485218943515555834e-01
2.502318761884732012e-01
2.325496915398071462e-01
2.382435346190414083e-01
2.531299319828454464e-01
2.328200321012088569e-01
2.323936203994476646e-01
2.648250874866667770e-01
2.996699179449860972e-01
2.099448581727385021e-01
2.622008378518850824e-01
2.835888952202442193e-01
3.087021856909057949e-01
3.312942442443606028e-01
2.699668664350671765e-01
3.369200845731999960e-01
2.910904223959268622e-01
3.011664964241468345e-01
2.437337373967729259e-01
2.878952803632259805e-01
2.995563609149234918e-01
2.497597068707465562e-01
1.898356321125757029e-01
2.697099309171526738e-01
2.557105329176134201e-01
2.991000981534972514e-01
2.389454287829771151e-01
2.299893586177753635e-01
2.117797765847763414e-01
2.235566483238008162e-01
3.177754637008913252e-01
1.852634347501094236e-01
1.877068425568393373e-01
2.208641425562971050e-01
2.763016556470121454e-01
2.337453459920014187e-01
2.523850016755689873e-01
1.884806442399347415e-01
1.524659265013281473e-01
1.747678928909003337e-01
1.785352738384981264e-01
1.766116904622137274e-01
1.638619176104293973e-01
1.820106539540946589e-01
1.369629418959132372e-01
1.245775081634798997e-01
1.103800161257083995e-01
1.468638560934390491e-01
1.381610050883540219e-01
1.620993522774326900e-01
1.702382563892126943e-01
8.219280442993816271e-02
1.138277871185647550e-01
1.018000935020703518e-01
5.683518520124075657e-02
8.221193613635043029e-02
1.403241994466037368e-01
6.976627385855177499e-02
6.035574833380991100e-02
7.850045624839613323e-02
1.033098686715057113e-01
6.287718594736280142e-02
7.206780155396305676e-02
-3.920247128958557342e-03
7.832763703184036919e-02
6.448973205403617237e-02
8.124959449667283617e-02
-4.313522130784383513e-03
3.979613543391649633e-02
7.509722306488103571e-02
2.690650969287857255e-02
4.272648500843308217e-02
2.661929476035215791e-02
2.519566667026642420e-02
6.972793930166565346e-02
-9.905048968111028473e-03
2.948437710001346190e-02
3.684943375263219356e-02
5.584636675648901871e-02
2.254918439798915542e-02
5.387134225379950486e-02
2.185072252662188796e-02
2.584335900459093505e-02
2.354258775956583408e-02
3.967938419974201963e-02
3.526041214056706979e-02
-1.533143827581694499e-02
2.368319902840575891e-02
3.256103664063159792e-02
5.941445745461919337e-02
-1.542660629033864271e-02
3.030303617152844270e-02
3.072622336430824719e-03
1.866463240578285221e-02
-1.985849522818027013e-02
1.141807537881078111e-02
2.089413069740693810e-02
-1.823850948000311362e-02
5.389789799681096033e-02
-3.629186628791356700e-02
2.579062040906651351e-02
-6.353091919336206761e-02
1.360534057197299897e-03
2.311701199929168393e-02
2.985581652526768034e-02
5.097577795326275162e-03
8.266554591026169588e-04
2.495271444818765103e-02
3.634385438376436239e-02
4.915117369669214781e-02
-3.097432496517836878e-02
1.771423246823437825e-03
-5.791552784458378622e-02
-3.296991478359936889e-02
-1.283198260326656390e-02
3.455755333757479925e-02
-5.416902264479990341e-03
8.392158021888721127e-04
1.911191886231186632e-02
-9.288991886673033521e-03
-4.817177390837999035e-02
-9.734748067806660993e-03
1.014000823469921736e-02
2.908863010639570895e-02
1.028063466678876166e-02
3.163924272128063042e-02
4.762111164379413675e-02
5.548497977143313636e-02
2.922589768346640568e-02
-7.662590473687264266e-03
-8.290131527643436818e-03
-2.671220641325794745e-03
2.681225365792906570e-03
4.117156230245486853e-02
9.829068345013289298e-02
5.171448428948587778e-02
4.673217026168081933e-02
8.219832183435411832e-02
3.275646387403965271e-02
9.331274391254917866e-02
9.567540655652931325e-02
7.312059001505406830e-02
1.389778043489162673e-01
1.145120216240441413e-01
8.735164725820698806e-02
8.662840144218052207e-02
8.290778243165149164e-02
9.681334920855189097e-02
1.024582053679147647e-01
1.005722388030072800e-01
1.082124014794184352e-01
8.312266089336611818e-02
1.058729104269770238e-01
7.873594025290528431e-02
1.425054662650743209e-01
1.355424835054953037e-01
1.321509311062956382e-01
1.646963903597857826e-01
1.140544161057676087e-01
1.200396175951653349e-01
9.787145791225893010e-02
1.734743673554073606e-01
1.609582149229219494e-01
1.822285198756427582e-01
1.889240222253449064e-01
1.274074166526382446e-01
1.171223085494941807e-01
8.259609010620487524e-02
1.012865814903963074e-01
1.221103520026528277e-01
6.765784706088924516e-02
9.496036607449424849e-02
1.229647419452307988e-01
1.510566490396284267e-01
1.024927438288316672e-01
1.289169960924107516e-01
1.838184379398867807e-01
7.880332209547216693e-02
1.734402275140732308e-01
1.635589763398202778e-01
2.054105550777479972e-01
2.163177782914406655e-01
1.925001164212911675e-01
2.432140066277011792e-01
2.361467408677714874e-01
3.072985858101018874e-01
3.730604374018863800e-01
4.363383651843097399e-01
5.111842496658011159e-01
5.995266193204185079e-01
6.064955173793993293e-01
7.228281039327548729e-01
7.649855322100477251e-01
7.837556173579716123e-01
8.798851289208227122e-01
9.425889793822225249e-01
9.600386762899202342e-01
9.895179860160807639e-01
1.012277091640716664e+00
1.039170441806616108e+00
1.027252767276235934e+00
1.074614688822906672e+00
9.360533942003612662e-01
9.732440167310909551e-01
9.359869875123369987e-01
8.331995549254330724e-01
7.908080885129545878e-01
7.190390857728868879e-01
6.564821064154953145e-01
6.081513635670424689e-01
5.366754066513360621e-01
4.359612715946268313e-01
3.478067536512718383e-01
3.422566910010885755e-01
2.679238625079275460e-01
2.283384242700773892e-01
2.136603175682973144e-01
1.627252760724991476e-01
1.594644609129400314e-01
2.053140585833784504e-01
1.347943433850584682e-01
1.428982631594799546e-01
1.096722585132753752e-01
9.136379269904482125e-02
1.019422569174388560e-01
9.954544265159358252e-02
1.117428892414013969e-01
8.950976357474366152e-02
5.131427166163246567e-02
5.009774048079271291e-02
1.121230484418930667e-01
6.906974551663321027e-02
1.283335164841851173e-01
1.530151275816538647e-01
1.115129622760014788e-01
1.598597491806783011e-01
1.367407462481912139e-01
1.352348601088646241e-01
1.421287508222227602e-01
1.204790696329810090e-01
1.220579548142452925e-01
1.068370717312782658e-01
1.394143598939882323e-01
2.307251451449199020e-01
1.267455453802347476e-01
1.411011010654984466e-01
1.569085866735981105e-01
1.628053020352350777e-01
1.979247116680423191e-01
1.755444027515055960e-01
1.917537440111819480e-01
1.757751558656218960e-01
1.902796377740845479e-01
2.057329877888257053e-01
2.061709618847190617e-01
2.720002594829063480e-01
2.137758801054882030e-01
2.100382085264013154e-01
1.427871410476195257e-01
2.259093309023607887e-01
1.601191090892650215e-01
2.362235098604615335e-01
2.238848620822648516e-01
2.431270402623234572e-01
1.993741147693267601e-01
2.180748546277137545e-01
2.360426343848311126e-01
1.860387474461094315e-01
2.300401865042835392e-01
2.261477861593331751e-01
2.023319043634034531e-01
2.505798412868147085e-01
2.152368286222042792e-01
1.458061254042374577e-01
2.216805042857420138e-01
1.680099516518148428e-01
2.071776014392941179e-01
1.873846185714432011e-01
9.433359282101431986e-02
1.866124746570956838e-01
1.565297489117720153e-01
1.439600395335119132e-01
1.395116466216087536e-01
1.701672827481007233e-01
1.130943119140633835e-01
1.682893832387693245e-01
8.340553271690193116e-02
1.319336457271384766e-01
1.402852414231029743e-01
1.335967510188318941e-01
1.107450006265189857e-01
9.311258595665874993e-02
7.695668252794457542e-02
5.098362741998269110e-02
6.135977276083327131e-02
4.744826360457884279e-02
3.698756256131902759e-02
1.194240697099686055e-01
8.413560708960335366e-03
8.857187451195228101e-02
1.265599943754026208e-02
1.417273910056847386e-02
8.914492448677743819e-03
2.138313974110031546e-03
5.867757968722647766e-02
4.434083949350285658e-02
1.557052339671644720e-02
9.979002690878237269e-02
1.425110504140746082e-02
1.289547346339717238e-02
-1.296175266215996921e-02
-1.986590802687959387e-02
-1.489002729363417613e-02
2.363857794467950219e-02
1.235678827428803028e-02
3.122728624656542773e-02
-3.157104556145512442e-02
5.200399421283551094e-03
-5.608311061663068253e-03
-3.903329822773402014e-03
-4.487044706892695523e-02
-5.202384276711045918e-02
-6.474318561192876631e-03
1.863094269622916910e-03
-4.443719420154118582e-02
-9.080190457297743212e-03
7.264274501370085457e-03
-4.084415473753923165e-02
-7.434038943040545411e-02
-7.169292295263077208e-02
-5.360023573154509835e-02
-4.763707807357887847e-02
-3.622413489451034585e-02
-3.643328642093227043e-02
-4.488786608910953768e-02
-1.704167876021051714e-02
-6.089066440149799864e-02
-7.264032947761206449e-04
-1.101746452564698886e-02
-1.372458113814538708e-02
-5.998251474697582908e-02
-4.412021375530381789e-02
-1.933606281472423707e-02
-4.737813505988177493e-02
-6.268152948990790563e-02
-6.417936626960610291e-02
-6.298163609151040399e-02
-7.732576998466986207e-02
4.341071918923219974e-02
-1.014407911956665131e-01
-7.243456427424391220e-02
-2.523686008331154848e-02
-6.363165876941269394e-02
-5.377622379664247915e-02
-3.136480853810583169e-02
-1.220258424454483126e-02
-5.128173046646775091e-02
-1.527301684643146001e-02
-9.365485215471439084e-02
-6.064792728161428476e-02
-2.729210917437496775e-02
1.746624786031630155e-02
-7.020123003332189027e-02
-7.490184764158566710e-02
-2.973607733812939219e-02
-3.759358921702798950e-02
-5.983464443809374811e-02
-7.374680602890801295e-02
-5.148918607449341073e-02
-1.911301312426930132e-02
-4.326514057641690780e-02
3.515600259889374579e-03
-3.387154955555775337e-02
-9.729598758479604537e-03
-1.720817941741212970e-02
-3.525631035042890715e-02
4.473462465273567168e-03
-5.419731469691309311e-02
-3.122611976569954900e-02
-2.375605932364389938e-02
3.605894780952891010e-03
1.480012176173572946e-02
-2.465336357063804829e-02
-2.475090196568908302e-02
1.061161778128992539e-02
-3.337378701801622244e-02
4.765433866091088599e-02
1.551072753217952460e-02
-7.933743092280183540e-03
-3.505369914312592150e-03
4.665756260594138699e-02
5.097162675660769915e-02
2.446625846869544818e-02
4.920238408098717708e-02
2.377482649273224280e-02
5.482668084186609336e-02
1.116310300412957229e-01
1.358862701099739223e-01
7.000214954366759668e-02
9.343908654391544499e-02
9.608995519199604873e-02
3.619781183536328190e-02
5.648320440651664887e-02
2.427178401442237066e-02
1.095621141816041921e-01
1.563658137239640200e-01
1.314427394577849240e-01
1.018038048409979912e-01
9.810837489517140741e-02
9.050088329163336054e-02
1.324765428109911936e-01
1.063364985178961719e-01
1.005185667381295611e-01
6.396833951944910779e-02
1.132284538749178671e-01
8.861858961330074114e-02
1.028525875911412146e-01
1.187871705849957160e-01
3.786596306929043698e-02
7.659206888205757902e-02
7.151546188095797563e-02
6.920206688611876822e-02
5.333752091822929753e-02
6.870077059602741620e-02
6.367054681048620046e-02
1.304487866243460303e-01
1.296821731926665888e-01
1.444580387778732766e-01
9.906251122120113273e-02
2.423443890631426512e-01
2.044370006965038067e-01
3.079629896651109311e-01
3.232625803359583938e-01
3.451090449919555492e-01
4.703184287734100688e-01
4.879720291699378154e-01
5.299368153477481691e-01
5.934201204596354362e-01
7.053369506229484331e-01
7.264597735726578964e-01
7.962587212504615986e-01
8.495205057908336022e-01
8.972410245803377205e-01
9.423033836524153939e-01
1.048636494755705639e+00
1.045842118135115406e+00
1.029836993829003067e+00
1.000215991312233932e+00
9.808835459760263387e-01
9.548615861227209844e-01
9.768139464006475592e-01
8.795956177011416965e-01
8.333361145407884862e-01
7.513287482441252108e-01
6.496994495105329337e-01
6.088754019017794672e-01
5.035889188579111275e-01
5.040406229477564226e-01
3.817236248134605603e-01
3.278301116625993994e-01
3.157809536976464715e-01
2.229047572866522942e-01
1.960088808075871603e-01
8.837351937653031841e-02
1.286870320597563733e-01
1.325811468408164551e-01
7.736318525613608554e-02
9.878440422755480066e-02
7.123445134459338579e-02
9.735647225680316152e-02
3.842475725059004560e-02
5.124192443266585573e-02
1.424338098591003410e-02
5.687524050096449957e-02
4.944392695012314598e-02
9.423945156379159860e-02
5.072422988740613037e-02
6.130447946377288321e-02
5.870042355964904396e-02
8.499773897466550432e-02
1.492731068818158313e-01
-9.733511262124558416e-03
9.943949222549822164e-02
1.418377856143615279e-01
9.692389653801899985e-02
1.339181560731129705e-01
1.591455533043131532e-01
1.211998722519692928e-01
1.154916653782283864e-01
1.686166826266905228e-01
1.607824230241822194e-01
1.492788104571285135e-01
1.745580681028751635e-01
1.899244169873209875e-01
1.642221817480692403e-01
1.794612366248720670e-01
1.902251915503710977e-01
1.647009499135760335e-01
2.179381660162461876e-01
1.548349592432972655e-01
1.849948876237808848e-01
2.148218759384371290e-01
1.626505152891570549e-01
2.227017360826626935e-01
2.041517896130989052e-01
2.397343024389875232e-01
2.195470149668979076e-01
1.971084757413862909e-01
2.094086460781240111e-01
2.105937284337347781e-01
2.630126069589527882e-01
2.042412767702797560e-01
1.965901824065106607e-01
1.935430657238722263e-01
2.034037155628548033e-01
1.617008695352915582e-01
1.819097854029248507e-01
1.603716912754839241e-01
1.613269919413958808e-01
2.086340366729776130e-01
1.817580798675385578e-01
1.549068622110055249e-01
1.685962468655372859e-01
1.614313303644899222e-01
1.658853187235424520e-01
1.143843468172783262e-01
1.219721948162218461e-01
1.064170815622473287e-01
1.174811885681413259e-01
1.174717438889248955e-01
1.026967388464659070e-01
1.511596086103597913e-01
1.778525977840996475e-01
1.418000353949205872e-01
9.441853346570951155e-02
1.120210495440081139e-01
9.806192600478461086e-02
7.614886538020340656e-02
1.285499996654164145e-01
1.434705757709964780e-01
3.366425693665951735e-02
1.155606756467120050e-01
4.930131134059327624e-02
5.394052032131653462e-02
6.518123855006005551e-02
9.814234888916655020e-02
5.529102760699435015e-02
5.450480142849186554e-02
6.315263712022298193e-02
6.345490472145970395e-02
4.417678731928546126e-02
5.524176246350463032e-02
2.822993270684762135e-03
-3.507511783544427220e-02
6.807138398387736766e-02
-2.128405904709721949e-02
-9.481204095561315826e-03
-6.562344768171163301e-03
-1.472382386407222049e-02
-2.422429756129061348e-02
8.790198473161738024e-03
6.584197346934765604e-03
8.578754650812939198e-03
4.464688123534392428e-03
-2.684316227705618035e-02
-2.884781116806153789e-02
1.545386025954236658e-02
-3.546084044599901591e-02
-3.763259389768997681e-02
5.030590808227118627e-03
-2.475977681499570010e-02
-4.059598975468380749e-02
-4.145318344797858934e-02
6.087651831321781726e-03
-1.100263600336337869e-02
-2.235525569212502839e-02
-6.522841514926309980e-02
-2.372515399265388153e-02
-3.797140842156216528e-02
-5.953230221368567554e-02
-5.071495302024213447e-02
-1.223142746781665999e-02
3.762898586758711694e-03
-6.557390239801715037e-02
-6.208313649427672082e-02
-1.356912765306087648e-02
-4.687458704382679864e-02
-1.818196451764255567e-02
-4.757195395821497974e-02
-1.767539334296096623e-02
-7.625587266813099729e-02
-1.859028171420608333e-02
-9.804211596781711724e-02
-7.269355047095901745e-03
-3.598344882773764353e-02
-2.162922313480714759e-02
-2.762499812419753203e-02
-8.575464145189833076e-02
6.618160072192097454e-03
-2.412447665130484920e-02
-1.120417719462578690e-02
-5.756519503369372792e-02
-2.601630431545531169e-02
-7.213954699185001762e-02
-2.791636808996202090e-02
-6.007294670546793613e-02
1.189018562982935290e-01
-1.251952498551349782e-02
9.969630562271347696e-03
-3.664071812016245905e-02
-1.628673052924470635e-02
-9.830737965137864576e-05
-5.833179647365979714e-02
-4.509604775038560109e-02
5.617815411281770754e-03
-2.859643479484776096e-02
-4.283099868021671142e-02
-3.751506858270464706e-02
-5.327332444914466281e-02
-7.321163814129472147e-02
-6.295731526925844868e-02
-8.146126404254706160e-03
1.339287530470723020e-02
7.178545856352427923e-02
-1.835210793728905831e-03
-3.558483237202396399e-02
5.587306832422984926e-03
3.137462813859490801e-02
4.525233984395118231e-02
4.660930102218814597e-02
4.026755316642959687e-02
3.059984568510213526e-02
5.467572584066647534e-02
2.013269890361778919e-03
-1.756492510661553791e-02
1.107124643811063097e-01
5.182533845638478964e-02
7.463152871043345071e-02
-2.003272742271718435e-02
1.157647343312231958e-01
1.094497283511824126e-01
3.308282103288695541e-02
7.569248471379143306e-02
9.820438653112849303e-02
5.711660759639843044e-02
1.142740513847636807e-01
1.352928456939774260e-01
1.176587863780148013e-01
6.461681664858726082e-02
8.380391241998973173e-02
1.140971843006749059e-01
1.128085688937128656e-01
1.154618566298881710e-01
1.159882453356647497e-01
7.093064875496001009e-02
1.498759871538141164e-01
1.447160083263902552e-01
1.413115008353291180e-01
1.378472638421145979e-01
1.153576377089239602e-01
1.042547894276875109e-01
9.025503864132003451e-02
1.652106539012423991e-01
1.163900192341001255e-01
6.536664596864907861e-02
1.127757937317579173e-01
5.012135122034022672e-02
1.199069178334054575e-01
1.177438018660563329e-01
9.976576420804257606e-02
9.246115437216628763e-02
1.447243735894370165e-01
1.357275746794012472e-01
9.410307905251777405e-02
2.069918440230262835e-01
1.661776803931073188e-01
1.838273609218470384e-01
2.990522145571928303e-01
3.311741128141577062e-01
3.340874091776325217e-01
3.624542518764870547e-01
4.315662811352803385e-01
5.092364196716696600e-01
6.258676780133828332e-01
6.972959236976824515e-01
7.327838868200369227e-01
8.149943337169788249e-01
8.531257433838146387e-01
8.912385093204646669e-01
9.224753125250054753e-01
1.017454932753566021e+00
1.063715075070322147e+00
1.037844094642831561e+00
1.092107878954367450e+00
1.034964365015721421e+00
1.026146201482045495e+00
9.820954612646684012e-01
9.802148548824879404e-01
9.032835235105601823e-01
8.250732158588445220e-01
7.624771520695827753e-01
6.550276186437140602e-01
5.534169330694391764e-01
5.352903930304788727e-01
4.789527199190974915e-01
4.383115539307987363e-01
3.601604870938996950e-01
2.994299152954854604e-01
1.796874558670258915e-01
2.448005450956076967e-01
2.023215306389146984e-01
1.932356234690001118e-01
1.478448360644861737e-01
1.644834533197699622e-01
1.008795046147674956e-01
1.071792831123477285e-01
1.097297593961085449e-01
1.190229835873344161e-01
1.105521677726418184e-01
1.129298946289233746e-01
1.085657279655132534e-01
9.768308664773460437e-02
1.342873061349870722e-01
6.143428569905244607e-02
9.767838256286887066e-02
1.695520377957996649e-01
1.071228043766989380e-01
1.306454196417938252e-01
1.804416592901299521e-01
1.409238516179296408e-01
1.256333082326907546e-01
1.925556091125540659e-01
1.538640241813886145e-01
1.618120375152689583e-01
1.148684268464508773e-01
1.762103243170793643e-01
2.061652910848504050e-01
1.782704672405459323e-01
1.581298602616212357e-01
1.873659924878604832e-01
1.883492678942826626e-01
2.040198352422093464e-01
2.007041259059031690e-01
2.705354342647476318e-01
2.337804214356759003e-01
1.763456276965538749e-01
2.342546175277459841e-01
2.341707607384854173e-01
2.741523965207020574e-01
2.362643542195432267e-01
2.376967854766563193e-01
3.010821052231587580e-01
2.147324440282523672e-01
2.719780235523863721e-01
2.508561422380413686e-01
2.344442481573853487e-01
2.301944751669399158e-01
2.901941586629172565e-01
2.628481487089533442e-01
2.660109474888837089e-01
2.734074265381503666e-01
2.553628036922629407e-01
2.113301641993556024e-01
1.937345681273485720e-01
2.844843636260666053e-01
2.416392425791469567e-01
2.345882873790479106e-01
2.828813877279421907e-01
1.930841222221369724e-01
1.453344607284187961e-01
1.624866279731113916e-01
1.964883537088367715e-01
2.113179145767803968e-01
2.447635968032139953e-01
2.233652536913996733e-01
1.161319921953636591e-01
2.718029590834958875e-01
1.701631888015793792e-01
2.139291857180156131e-01
1.880286921882093065e-01
1.663177647836649731e-01
1.535284957452292820e-01
1.217426729232611998e-01
1.109591501608146041e-01
1.391132261406015647e-01
9.699900425258338454e-02
1.826804419925373013e-01
1.308172356731117925e-01
1.854362075470216975e-01
1.044245400805771939e-01
9.471880961248420328e-02
1.252150641994493607e-01
9.488737365203256391e-02
1.271653975939169290e-01
1.365638173085527152e-01
1.219797063002931586e-01
1.256743123260334050e-01
1.051587910591066100e-01
6.020543782552241485e-02
1.070777744864875036e-01
9.017449740690525184e-02
4.724103241492596389e-02
4.773342838845370112e-02
5.655545374733704500e-02
8.966298708995266986e-02
5.699339346227812186e-02
5.063874886968366962e-02
4.350936736451099102e-02
3.530889408278865826e-02
8.763250343119022984e-03
6.545119892616393931e-02
9.123579842319450017e-03
3.985939472034660119e-02
2.387835272799375061e-02
5.757102214314013117e-02
2.287630062170802059e-02
1.618282976950179142e-03
6.026230955569627373e-02
4.684009290297526731e-03
3.308290703465702198e-02
6.572824399446300370e-02
4.769791122320713242e-03
2.281111552701698547e-02
1.230199813133317326e-02
2.857531268771183394e-02
2.204125818735777620e-02
5.123529426448351909e-02
4.590321294863433654e-03
6.108260869595560222e-02
7.069500482576414335e-02
2.999866751145490937e-02
-1.608696028370600745e-03
2.069870374423625828e-02
1.806215387005528916e-02
7.489380899119706114e-02
1.857749884623181511e-02
6.313989691453167352e-02
2.501486649524752720e-02
2.309227441214265625e-02
1.116114125004009569e-02
1.406515227892545135e-02
4.872314361420226891e-02
2.764695939345730713e-04
5.117921498068019742e-02
6.583657534999119709e-02
5.111180326812497093e-03
5.939488627754334338e-02
5.492947858045227338e-02
4.992516403898672461e-02
5.176968148276631099e-03
2.113437290710029962e-02
2.160384664636145688e-02
8.851562799813045279e-02
2.612587143509442419e-02
2.163231696408996624e-02
-6.525754841255913818e-03
-3.760859448303857655e-04
9.216797259630770539e-03
4.164637822452238458e-02
-1.073779227243537235e-02
1.330788580735368584e-02
-2.111257803718619847e-02
7.834972613755553095e-02
4.121340769427819795e-02
4.922524723327012519e-02
9.278051246444863481e-03
7.906364744896268726e-02
9.175510661388083800e-02
5.130849762072370313e-02
3.777071989714363837e-02
7.176669004493047010e-02
8.051374086665649688e-02
8.806807813917578998e-02
8.558092617807312730e-02
9.850613836735853945e-02
5.294108018576960256e-02
1.054158761443576425e-01
6.897813881391678947e-02
1.201034129633900271e-02
7.830186444298078974e-02
8.060617206738500407e-02
1.096136981788503051e-01
1.327848746731219998e-01
1.187683701297840427e-01
1.786287838433489594e-01
1.080191933886512912e-01
6.952033529532161693e-02
1.428183228785828707e-01
1.233679693576207187e-01
1.122482944808535776e-01
1.408300095902072224e-01
1.309842851418404064e-01
1.384292699970343654e-01
2.088532363357163413e-01
1.707968846155148712e-01
1.626462916749917831e-01
2.216963663762585857e-01
1.676584615119831034e-01
1.419448290597956075e-01
1.409335748848901115e-01
1.797453647312699521e-01
1.338275897037228268e-01
1.484025170834581131e-01
1.721579222382210450e-01
2.171277227489263606e-01
2.210796683664791318e-01
2.008925768074076856e-01
1.794434255431513470e-01
1.606589361105023039e-01
1.874884378399192530e-01
2.273480724756566929e-01
1.763327605262420827e-01
1.567877255562147021e-01
1.650864150920392237e-01
1.619045374159533424e-01
1.877455898450482441e-01
1.514686005466727992e-01
1.918694575532080004e-01
2.047889269354317698e-01
2.094696627362448438e-01
1.819230559369784117e-01
2.299581184254541610e-01
2.437159428701555774e-01
2.880250711110449169e-01
3.069790374643565634e-01
4.072270888966620372e-01
4.246673299693008996e-01
4.255361599323045363e-01
4.944900963986907927e-01
6.351775104292229912e-01
6.613806985892051182e-01
7.243683643373184378e-01
8.389062711840832298e-01
8.671828787783101289e-01
8.981247122838953434e-01
9.558551994973437660e-01
1.055672755335029578e+00
1.134585296876992055e+00
1.124006473839372466e+00
1.099745331156252171e+00
1.103538963933071049e+00
1.097704621671033776e+00
1.008870380900724673e+00
1.031727677823512268e+00
9.998840049919658357e-01
9.784515949495861120e-01
8.944587897596435466e-01
8.517961444682611294e-01
7.742799005670147894e-01
6.954758542069868765e-01
5.858127156602884744e-01
5.299307375017633381e-01
4.084469587868097551e-01
4.067551509513014363e-01
3.700424441578159529e-01
3.009845037907949994e-01
2.259086901096114819e-01
2.883697676867289506e-01
2.274926281580986198e-01
2.465726064820426555e-01
2.015314817593149010e-01
2.087171244852151775e-01
1.944584813022391390e-01
1.340354867511371617e-01
1.364422850638410956e-01
1.381402324811014937e-01
1.228740091466470619e-01
2.069508309917411637e-01
1.583803213168715196e-01
1.747695677979519413e-01
1.255019948957810660e-01
1.948724958742674984e-01
1.632348925078711821e-01
2.187850371045618747e-01
1.659963572072708504e-01
2.322294399976281287e-01
2.262806181305817566e-01
1.898983173889613463e-01
2.522202936951847274e-01
2.499404491398333206e-01
2.359079132153230063e-01
1.970817690344645323e-01
2.564724683617737311e-01
2.399150933497808391e-01
2.447477738490708710e-01
2.506619438625704577e-01
2.525511527034136616e-01
2.323030194299980367e-01
2.174187674014624316e-01
2.156094699489371491e-01
2.803781331328950577e-01
2.025605554426490873e-01
3.006631323904159214e-01
2.973729174366456229e-01
2.761142146326464042e-01
3.186842230423607703e-01
2.824519621657290425e-01
3.048404584230141046e-01
2.352229266369418592e-01
2.280464724119251607e-01
2.892173845923529107e-01
3.095781401808257449e-01
3.256524035367808212e-01
2.917149702685681856e-01
3.039550572845647891e-01
3.193098254335994812e-01
2.906978327544625373e-01
3.106052043259108220e-01
2.572358315784898375e-01
2.391841428409956227e-01
2.703121471600722914e-01
3.067067339408386939e-01
2.589664981185365589e-01
2.963666479661581921e-01
2.423032004234091097e-01
2.516480169456122296e-01
2.721528641206056309e-01
2.404115551511450954e-01
2.408299148091255226e-01
1.726608204065864516e-01
2.710639045383083090e-01
2.371493985544477767e-01
2.070349577750515147e-01
2.849459661245979936e-01
2.007714615227974009e-01
2.033804167028844256e-01
1.843361311637746747e-01
2.406061419782401511e-01
2.447880086510921815e-01
2.360674795644758239e-01
2.300696023943695212e-01
1.667351563594640373e-01
2.291856972331134390e-01
1.675600719895837531e-01
1.216349613778492655e-01
1.496884361580270995e-01
1.669250400086970676e-01
1.325705301534232938e-01
1.512060704442684811e-01
1.579044647560469139e-01
1.492643122886234686e-01
1.518773533748725146e-01
1.222435182696336026e-01
1.013971288886647976e-01
7.483415761378434117e-02
1.121790161348928810e-01
9.474046670888940092e-02
1.035029159010497912e-01
4.129639799627838476e-02
5.438009664040501651e-02
1.119114051795548764e-01
4.438483232284168994e-02
8.474196845702798575e-02
6.266690718981582364e-02
5.805978273224723929e-02
8.489539250969430073e-02
8.078349469610807132e-02
9.404545648663739654e-02
4.246286438900767624e-02
4.698618410576481386e-02
1.053398183586749248e-01
6.314816399789136003e-02
7.922420603111217374e-02
5.180535705429663990e-02
7.895365043191508725e-02
-1.068811498396980003e-02
9.729014477977479536e-02
4.795367862090881006e-02
2.309446702062958878e-02
2.771760891038734659e-02
5.079117450264161032e-02
5.456453561657082646e-02
6.135659928749865460e-02
2.064814988004861143e-02
8.192823479165448064e-02
3.948480650217819909e-02
3.745446132910633386e-02
4.741412420830257157e-02
7.364968964550347441e-02
5.235161068823571129e-02
3.674084538423433299e-02
4.297759712383513592e-02
8.897743853322412355e-02
8.380903322900717933e-02
6.289895530228674370e-02
5.618752507072876518e-02
1.209716598621631001e-01
6.533137072439848536e-02
5.673489953787017037e-02
4.517321990617265831e-02
6.188831179687131340e-02
-4.019470167235434516e-02
8.200526765951804409e-02
1.306591055109383726e-02
2.975878306530485920e-02
9.418070321132336609e-03
2.949757306730979925e-02
4.159518767070023715e-02
7.875393611869038746e-02
9.107294362702285373e-02
1.110271616148630069e-01
5.632646781397690483e-02
4.723253121244212760e-02
7.782442073412937367e-02
2.954247071221086790e-02
2.702623433906613595e-02
4.593537670050353711e-02
5.701149879228464140e-02
-2.768882159482816130e-03
9.260060687919668965e-02
6.930524912286883943e-02
8.772547192915663983e-02
1.851688224846824091e-02
4.771598319696178370e-02
4.842446396402436126e-02
6.624600701176119877e-02
7.395920165778020750e-02
1.039037941728157555e-01
8.384493179585839062e-02
6.192450351894697447e-02
1.532974732689448560e-01
8.341386946181567064e-02
6.810046095151701950e-02
4.287618613447812671e-02
1.064596687616045645e-01
1.289646364815741630e-01
7.869802525994881726e-02
1.364443762784380842e-01
1.251212388134244347e-01
7.442305264633441997e-02
1.514738473431932464e-01
1.298676752192384487e-01
1.091560323132045596e-01
1.767362101216162218e-01
1.811885603616663620e-01
1.235385271093425164e-01
1.715535973924771085e-01
1.734455289726453686e-01
1.696883920029899351e-01
1.603788005648116299e-01
1.752258406176781524e-01
2.113367152981762420e-01
1.986002357533092622e-01
1.312455984487281291e-01
1.271199321718805009e-01
1.376170076151999877e-01
1.540383265522218825e-01
1.731199633659103732e-01
1.827150215885304518e-01
1.943824595201496808e-01
1.949292087445796406e-01
1.936426256325863293e-01
2.281585123932943215e-01
1.419348739043577723e-01
2.003401394235826971e-01
1.980627307170393092e-01
1.480689061520637506e-01
1.997538800324938635e-01
1.929166490289395131e-01
1.788700692840804185e-01
1.067648838914831283e-01
2.083641280868153423e-01
1.878200009657667591e-01
1.965583722811815037e-01
8.853226636484413936e-02
1.830433343079181097e-01
1.682441101701876440e-01
2.664709068922560542e-01
2.156834287294905617e-01
3.196866729202233470e-01
3.361421078761635539e-01
3.525423379672254498e-01
4.245388660357311550e-01
4.128430492270502850e-01
4.746496536068358085e-01
5.867413608781820722e-01
5.963385789057532582e-01
6.528660874244603951e-01
7.521051039010219208e-01
8.034872735969739166e-01
9.511661488802441999e-01
9.786340049285991993e-01
9.910855270492712199e-01
1.022200004205216173e+00
1.095488501454770613e+00
1.141950021121279635e+00
1.123099717880647219e+00
1.080594598003351781e+00
1.047659400257669127e+00
1.048627979595690984e+00
1.027395689080076835e+00
9.520551915001173038e-01
9.368135247910980290e-01
8.570254435169519791e-01
7.793026646051784967e-01
7.168126822247747887e-01
5.897114786701013189e-01
5.483610851846612011e-01
4.676051752118066673e-01
4.505742970776269174e-01
3.540645396173635606e-01
3.390866354441292030e-01
2.897570541375372732e-01
2.769637196687082525e-01
1.932964040986391296e-01
2.185423996236304511e-01
1.537537133928704169e-01
1.422477360410080993e-01
1.561442612705621347e-01
1.888271964028802041e-01
1.231128452479141044e-01
9.268552915380970370e-02
1.171797833281832679e-01
1.349856861435665967e-01
2.047829564247475864e-01
1.634407171032402073e-01
1.329697560612163043e-01
1.556346801256534573e-01
2.117036107203537076e-01
1.623573939689691437e-01
1.679227552368926513e-01
1.679638396195466121e-01
2.064591077861495094e-01
1.753217660215914964e-01
2.227814924619983539e-01
2.340187823962088520e-01
2.260310147143539949e-01
2.063351821002414321e-01
1.764647868463502800e-01
2.169584189227041215e-01
2.087601914822788673e-01
2.104475456837321956e-01
2.314793804771409502e-01
2.577022374813702776e-01
2.291094409227547035e-01
2.108036617331688067e-01
2.273081117494713532e-01
3.105547273637590533e-01
2.798157579373300452e-01
2.378509360270933404e-01
3.081885744095924085e-01
2.649481811397541575e-01
3.427974146512737241e-01
2.842984323160339666e-01
2.950439359422992180e-01
3.044919218872910727e-01
3.248944775752163339e-01
2.677289192196801726e-01
3.231083164853469358e-01
2.622674669720099216e-01
2.696340068169890136e-01
2.798791176286604121e-01
3.059993840492226669e-01
2.669004079946399877e-01
3.244000050426048554e-01
3.124021935181042209e-01
2.711944767223475883e-01
2.381006752979899499e-01
2.938807806136378709e-01
1.974452836628009800e-01
2.787357148110851668e-01
2.276956332306474817e-01
2.857578281932095510e-01
2.019181013864185803e-01
2.188294491165695133e-01
2.468403837730840655e-01
2.465615276078033935e-01
2.043822990103700277e-01
2.077075470625646958e-01
2.406293718795857184e-01
2.365251637059436474e-01
1.899504551376632044e-01
1.764010895963739334e-01
1.476044294011952807e-01
1.903103703754263354e-01
2.010902698577894110e-01
1.752630960249458580e-01
1.370007910271155149e-01
2.124074562411309985e-01
8.981872595218713673e-02
1.734384667168494820e-01
1.478389059622078894e-01
1.497311122913881076e-01
1.064977239511357976e-01
1.200710348707789837e-01
1.281034180537634348e-01
1.115145976727533322e-01
5.519696499067573703e-02
1.554464191743234469e-01
1.187852760683069109e-01
9.567615560110105666e-02
9.312487687229970001e-02
1.363357093265963604e-01
5.937274744608350696e-02
4.859951668613960579e-02
9.930199900040838357e-02
8.399463787914265844e-02
3.629175935229728145e-02
9.588178550987083715e-02
6.885954767821551858e-02
3.001548792683046349e-02
6.875819822613744858e-02
6.151089137745203994e-02
4.603387248022688949e-02
5.772900551525345786e-02
6.264478531944994710e-02
6.907446950370207950e-02
4.278266323859172826e-02
2.948089546119999488e-02
4.292214004379484721e-02
6.973792216557821166e-02
5.127586950501887564e-02
2.104240969465372493e-02
3.107502589743953159e-02
7.802626839557233462e-02
4.927114172252919366e-02
3.016264943032012993e-02
5.871086652139138884e-02
7.168769855505170360e-03
3.235695375670818302e-02
7.784885905049630794e-02
4.033522272081375287e-02
6.855708116689508691e-02
1.667231673118513627e-02
4.199886256717893368e-03
5.263762563832697500e-02
-3.763192690254782424e-02
2.204854331155019567e-02
4.703084601626883465e-02
3.247606198888294132e-02
-4.794545061592320884e-02
-2.569014521853820593e-02
1.084853226936877309e-02
2.814592124357215286e-02
2.897286954779983853e-02
1.304225070824051140e-02
3.484220004175419411e-02
2.578020543117654634e-02
8.585250821124499124e-03
2.837548767986565468e-02
-7.336590112058682250e-03
3.107091596279503570e-02
-1.351958975348865888e-02
2.647844377853188907e-02
2.575924208583291186e-02
2.982079689890378658e-03
3.113354480306123467e-02
5.857121927657515936e-02
-1.802936841499886561e-02
4.156103200946084653e-02
4.598540412622546814e-02
7.728558689020073591e-03
3.863863281766800883e-02
7.758771633670661326e-03
5.399549792955171679e-02
-6.480640150648918352e-02
6.191106797576739068e-02
-1.344194621978803475e-02
2.415725910838537743e-02
-1.249203703998497464e-03
6.996419740441033042e-02
2.029343867157720055e-02
1.320237491937541197e-02
6.558125266001452180e-02
5.666509837479748180e-02
2.763468185051358439e-02
1.106948309037294326e-02
1.039687378477155422e-02
8.602955152936646310e-02
6.414692785235165395e-02
6.078262782825594179e-02
7.453679561481799110e-02
5.673899689314351735e-03
5.891820755695979794e-02
6.437202592678019364e-02
1.075233477200848997e-01
3.886740085169965164e-02
1.194671059659521833e-01
1.466359917527578494e-01
4.617124264585845822e-02
1.031441706823657961e-01
1.224488129662389402e-01
1.383700540101706344e-01
5.179953670111536734e-02
1.312301822929627937e-01
1.186764893350749639e-01
1.206112764617465610e-01
1.947499058026234686e-01
1.294443737596065458e-01
1.522726239813912141e-01
1.376375598398989208e-01
1.505351810298947712e-01
1.614883956623952566e-01
1.728651125981378323e-01
1.234463806120968260e-01
1.515564301311190520e-01
1.523741195928027536e-01
9.659968100262660007e-02
1.163074803079908598e-01
1.701273498263575490e-01
1.276887772514480601e-01
2.177596941363880989e-01
1.659680301717960382e-01
1.482397414539481373e-01
1.776872532710558894e-01
1.535205306671988401e-01
1.343371690215451331e-01
8.565225066495826822e-02
1.484448807628674927e-01
1.723403806750128386e-01
1.166214047314921010e-01
8.613528331548088446e-02
1.184601228151226510e-01
2.166536810134470636e-01
1.839701931079583963e-01
2.479705956774530262e-01
2.328271626329124488e-01
2.513299551963418810e-01
3.703954154575453961e-01
3.415671897191360218e-01
3.976382288199123982e-01
4.768763644130092350e-01
5.170533642103307681e-01
6.154177034889758424e-01
6.739356225198706030e-01
7.440466086114910782e-01
7.783909480140800419e-01
8.108225227380112532e-01
8.937973840845104823e-01
9.467180601089432157e-01
1.018430057627215390e+00
1.014580121504662369e+00
1.012050478047741287e+00
1.025480610824838879e+00
1.062079993423162172e+00
1.048690170879036376e+00
9.783717549112627143e-01
9.362544476187896203e-01
9.122087701379353319e-01
8.370673408421520634e-01
8.008668681408070977e-01
6.907339593810142286e-01
5.997559042393955098e-01
5.874779098013501732e-01
4.783398433369950298e-01
4.007790736240158802e-01
3.930016792903967549e-01
3.572001333589207017e-01
2.728619594954271865e-01
1.971411500654713655e-01
2.393709112966172503e-01
1.765401214825578213e-01
1.491572278503677240e-01
1.126602024124834095e-01
1.452013320569116861e-01
6.830749251749841655e-02
5.886532116709621010e-02
1.478605507267607422e-01
6.335713486321359333e-02
1.179638803651891915e-01
1.318524396638104113e-01
9.921446187376144199e-02
6.972902575953214555e-02
1.189456783398906564e-01
1.461845326529527533e-01
1.194477308326030995e-01
9.178820084463693019e-02
1.285639047466308471e-01
8.317549169255539221e-02
1.009219319038323903e-01
1.278370845022246960e-01
1.429211810762251456e-01
1.104805102549102636e-01
1.594614335649929826e-01
1.729859706295963917e-01
1.561786317893278098e-01
1.030549714617557400e-01
1.759914359556336017e-01
2.322168469360585408e-01
1.962530811878124837e-01
1.875585718249525025e-01
1.802844949127762053e-01
2.129213620985620503e-01
2.057753351846999534e-01
2.244034811550725261e-01
1.736881748738141606e-01
2.133296270543216799e-01
1.986684147934231759e-01
2.261575724531374176e-01
1.588271900461511454e-01
2.072661485471699594e-01
2.368354520001568486e-01
2.428402562355336525e-01
2.216271803594759282e-01
1.581853123127219263e-01
2.423328668356050375e-01
2.703500879967939419e-01
1.970338952810112287e-01
2.084329134661163929e-01
2.440605841420530053e-01
2.431655106313084791e-01
2.490377398863409253e-01
2.441870784510449255e-01
1.650751352562721541e-01
1.936360855646740153e-01
2.234813016969915411e-01
1.984813233586756598e-01
2.081429711531912752e-01
1.890902415732223785e-01
1.755170903529797433e-01
1.766954456084852410e-01
1.454430710454208131e-01
1.523452778257760321e-01
1.668158350774349707e-01
1.619784875237826882e-01
1.749460957330549737e-01
1.437227834828690987e-01
1.968088956327711525e-01
1.776096780008120934e-01
1.197541074816821371e-01
1.348277475333729547e-01
1.593202504327615454e-01
9.774607532318335679e-02
8.857472190960583025e-02
1.440507020099932589e-01
1.199138748808112331e-01
1.255426382284339226e-01
9.701489703618909610e-02
7.420910208158726373e-02
3.599537442437514972e-02
7.485723402111815750e-02
1.023275365599774223e-01
9.741458974254746384e-02
8.708968527904618895e-02
7.358811576942189681e-02
1.114520840344288416e-01
-6.133686797980660022e-03
4.279800329975447237e-02
3.375616900248706864e-03
7.382049408539168023e-02
6.598642187740588749e-03
4.952529786048107119e-02
2.045547519295240479e-03
2.455141094114677430e-02
5.266872948814914357e-03
4.847226977499001499e-03
1.216530067885986804e-02
2.679164597770263001e-02
-6.871754476267089018e-03
2.049750169383595527e-02
2.238428789816304665e-02
-2.363187532237926922e-02
4.320412915029109985e-02
6.901016022139494499e-03
-3.037431744831159755e-02
-8.681967212975857939e-04
1.012205475701462992e-02
-4.972044853958738908e-03
-1.813298043173292712e-02
-1.291571993645392880e-01
-5.596893550091312786e-02
-7.832902682337362921e-03
-5.896537065335850925e-02
-1.501034052044846606e-02
-4.886668565151019994e-03
-3.573883010834917606e-02
-8.616567244850623086e-02
-5.613123326569252614e-02
-1.423007821836165185e-02
2.245363883387738180e-03
-9.855159567190674430e-02
-3.426957268634722026e-02
-8.126554360581086933e-02
-3.503169766152334358e-02
-4.292115217612397365e-02
3.217317089780671879e-02
-5.519520432332396254e-02
-7.926768607618643603e-03
-9.448816720994478169e-03
-4.585978826739212089e-02
-3.671248312740758857e-02
-4.049804736896251561e-02
-6.302893986662597148e-02
-6.579683780986127217e-02
-5.332389992252812433e-02
-7.528767755688478558e-02
-5.621802795529701191e-02
-4.710294115101276019e-02
-3.637575283934543768e-02
-2.786633385980248623e-02
-4.696445005978543835e-02
-6.399050280299009574e-02
-2.793558701306392972e-02
-1.669241343705431604e-02
-5.464438206665195308e-02
-6.911518625774940028e-02
-5.250547519751724845e-02
-4.395008021725224645e-02
-3.432199021003341788e-03
-1.613818412437009742e-02
-3.609401151102542560e-02
2.211464946506397355e-02
-3.471629143020583952e-02
1.012774901116822446e-02
5.903715307814028090e-03
5.510538351424620895e-03
-1.746489305529195721e-02
-2.149569939188384488e-02
-2.254211989087543874e-02
5.316996370993337662e-03
-4.114529731152728048e-02
-2.241544863240337027e-02
3.864059903311825583e-02
1.071159273195523148e-02
2.422968791889497375e-02
-3.721794287012139546e-02
-9.527234081935592735e-03
1.766441306913556913e-02
1.080595359270516281e-02
-2.013930003837986760e-02
4.413714048165686549e-02
5.852163651765685676e-02
2.259971567356165723e-02
6.007403115695376244e-02
1.021678085193928609e-01
9.216717054027795397e-02
4.428754760900802806e-02
2.344761467952564266e-02
6.841917977231197490e-02
1.367599305820699773e-01
1.111654912583441290e-01
7.531251330124430488e-02
1.265949465485038117e-01
1.187446601665614887e-01
3.034459979477317770e-02
1.224763569826917142e-01
9.711494932486344767e-02
7.007740366727011061e-02
1.009099450840247464e-01
1.122539447098053200e-01
7.719806273761156690e-02
9.815468837091631538e-02
9.209090361722782614e-02
1.256749572793597614e-01
9.213318625986899324e-02
4.911594902636157167e-02
8.524818169542350277e-02
6.851795436967872410e-02
5.607305721843294094e-02
1.281385868537935346e-01
1.146441419598905470e-01
5.947631024530190130e-02
4.869105990939590067e-02
8.257269526493968281e-02
4.572394923726993271e-02
7.920108651782011011e-02
9.130047796339371691e-02
1.032117857463121235e-01
1.118864002463541008e-01
8.916471281002577576e-02
1.295202036374014376e-01
1.851618433529860497e-01
1.082794256504165525e-01
2.110213956316840389e-01
2.019536259066754547e-01
3.216798128161781900e-01
3.525310244321422370e-01
4.059545833865225162e-01
4.165204061091369314e-01
5.141964743616495026e-01
5.849028453155136198e-01
5.715427318477723784e-01
7.159642843526269340e-01
7.967120873202483411e-01
7.983772637569338526e-01
9.149626983538234892e-01
9.476045961993146971e-01
1.023584550599168086e+00
9.956476094389147269e-01
1.026591486198241920e+00
1.031500762277417937e+00
9.237903014079414943e-01
9.713852972813334929e-01
9.468589042162434133e-01
8.254824968476163205e-01
8.597306413362557631e-01
7.788191207353666323e-01
7.109137642153724457e-01
6.600497328494688842e-01
5.556571973902724171e-01
5.003396069245339417e-01
4.591099703247889519e-01
3.732650193171903608e-01
2.599990608567182004e-01
2.664588153707894147e-01
2.226337341323649799e-01
2.097897792678328766e-01
1.406115627645670163e-01
9.543767924471682762e-02
7.466543861894900380e-02
1.310291356798241602e-01
8.440629521370193733e-02
1.090038278900654356e-01
1.078687083403606917e-01
3.647917342193343626e-02
3.321327148049504213e-02
5.463199419865138323e-02
7.883062164214121870e-02
2.129189203448886986e-02
8.070145475928550138e-02
8.348893974237045490e-02
4.235207937551972029e-02
4.848852985185906489e-02
9.986027770398922532e-02
1.542149250772057167e-01
8.879531532027765128e-02
1.132236250750843221e-01
9.090807844235256063e-02
1.218864401101368844e-01
1.017435066848432212e-01
1.184054415985129616e-01
2.052483135222986088e-01
1.405000773646343237e-01
9.576651631783658636e-02
1.672515983254851402e-01
1.869718180630894899e-01
1.783145167017020083e-01
1.575168830173753476e-01
1.398646143527313701e-01
1.449443772900186334e-01
1.701376686280887673e-01
1.686708786014308736e-01
1.665024831015985973e-01
2.229957059404938380e-01
2.171583137842856004e-01
2.302078613298468301e-01
1.708982271923119300e-01
1.689434269145866363e-01
2.005651580938046241e-01
2.120207191031210359e-01
2.026903183005567266e-01
2.115654653523837414e-01
2.489664148148743317e-01
1.947563522449797246e-01
2.250546764887440543e-01
2.155535889413723871e-01
2.016937813950881453e-01
2.201355407834786060e-01
1.723937846041079802e-01
1.641541670396008401e-01
2.036821043461291836e-01
1.387114850351655326e-01
2.000537408111564552e-01
1.474299567437914182e-01
2.231070597426390301e-01
1.617175386706281581e-01
2.129971414396003571e-01
1.586457128135984607e-01
1.527271244039945519e-01
1.814850174611588041e-01
1.593003667542590152e-01
1.433626647666723097e-01
1.279604444371617022e-01
1.228536525095848264e-01
1.999280645849187132e-01
7.337950079462378372e-02
8.194183335058796702e-02
1.476649201468808736e-01
1.397339441266881310e-01
7.331883726492348374e-02
4.274986134707961516e-02
1.278498829667927272e-01
5.267762108581719449e-02
6.380805285805905835e-02
7.595658226505382082e-02
3.551088469795420088e-02
9.013443444267456306e-02
5.784863124509173615e-02
2.569560095746441231e-02
2.340041725239698500e-02
8.132231080947832647e-02
2.938540304324421121e-02
5.166334125685401180e-02
2.856195848705105761e-02
-2.798751376684217862e-02
4.299997273134637671e-02
4.891650277191831458e-02
6.824253016419892792e-02
-4.761628236352968141e-02
-8.875825181592407465e-02
2.192439302481963281e-02
-1.831033998414031971e-02
-4.615439363318464550e-02
-2.795147703650240067e-03
-2.211334425396261488e-02
-4.938287536945946271e-02
-1.589721866953172288e-02
1.408007021868599995e-03
-1.237459522489497976e-02
-1.404900339291837580e-02
-7.994358640054169407e-03
-7.368755558731886202e-02
-2.601499228373975112e-02
-1.869354153883935957e-02
-3.853810136205854109e-02
-5.328694948443941232e-02
-5.189515114958828668e-02
-3.932393881873326447e-02
-4.015029060181932175e-03
1.352924746458065292e-02
6.653798009394286395e-03
-8.056031614096199889e-02
-6.253645624824055727e-02
-1.518683810657726549e-02
3.618318906837683646e-03
-6.484324884756423324e-02
-3.072275547120585301e-02
-7.050871779110003124e-02
-2.854347385448923607e-02
-5.638299693594062828e-02
-3.179210917094930922e-02
-7.379544391540854287e-02
-8.658268430681620442e-02
5.529170906229583654e-02
-3.563372654554565477e-02
2.630207635480463768e-02
7.537991806524618754e-03
-8.676538315290413528e-02
-2.677693351435006183e-02
-7.636735926388557583e-02
-4.629018046663872094e-02
-9.378979113882793262e-02
-8.427406398165290802e-02
-6.245909039628064902e-02
-5.291691795419709715e-02
-3.506666237098360339e-02
-6.695812690960067926e-02
-3.098388532198809164e-02
-9.255536447979467729e-04
-2.625628164090655636e-02
-3.590003607510004052e-02
-2.296493983647420606e-02
-7.551533433719093136e-02
-3.068361374729544622e-03
-6.662228626991391345e-02
1.690479891959258824e-02
-5.369767666894668945e-03
-1.051044963885796116e-02
-7.782895319849145177e-03
-2.427445816954286462e-02
-4.608423486918087481e-02
-4.885396094222362734e-02
3.400991392372198358e-02
-1.317785030655894279e-02
-4.727530145894950908e-02
4.325791198471456989e-03
1.971738633602650170e-03
-1.512005930735100395e-02
-2.888796707804582378e-02
2.363159690785483075e-02
3.367758946207402571e-02
1.891618943421143062e-02
1.555053103476727872e-02
-5.703278728598659697e-03
3.672178981417664745e-02
8.024775491891046608e-03
-6.204990860338932546e-03
7.078640789650683662e-02
1.129446244469139299e-02
-9.444811024554820855e-03
9.207682859565405331e-02
5.857485572806533924e-03
5.189161551601882694e-02
3.608294548295995496e-02
5.254338493498444951e-02
1.461866394093243593e-01
8.148775160378325666e-02
1.002265552856947822e-01
1.178250243384428436e-01
7.913529341409340778e-02
1.349360649692437908e-01
1.177816013584834509e-01
1.325802067994466538e-01
9.130383671519622102e-02
1.290371146702306571e-01
1.176878358485668186e-01
1.536379110085749344e-01
1.048632062165093248e-01
1.829003745186266183e-01
1.324898895279716382e-01
1.185086623947573525e-01
1.144977553671477771e-01
1.206478249685173088e-01
1.007181732050931172e-01
1.380000894115783472e-01
1.158389685772159422e-01
1.725862826131754346e-01
9.938073876013506225e-02
1.070583137964539189e-01
9.635761965716929667e-02
1.648462038863230117e-01
6.579213540814135563e-02
1.137458103738248211e-01
1.239261980617375331e-01
8.662773465511450222e-02
2.085843441610052695e-01
1.136774627272187366e-01
1.590072038160106893e-01
2.296377746550509746e-01
1.942504336037937929e-01
2.419400828933659930e-01
2.654968821009675017e-01
3.186800185350386339e-01
4.033031678349114357e-01
4.145696976912012222e-01
4.090393699199063038e-01
5.532336937276128852e-01
6.244219994482763658e-01
6.978447042179873883e-01
7.551891346405100736e-01
8.007297022605707193e-01
8.802516635345374318e-01
9.945450556076135262e-01
9.853393116730395640e-01
1.040530265595593917e+00
1.012268610469229779e+00
1.043979264202724133e+00
1.018859078801487739e+00
1.070694149203576195e+00
9.557223738005513614e-01
9.727146237605889256e-01
9.210803715667711389e-01
8.604629414555768907e-01
7.172188460860609016e-01
6.584377629068770554e-01
6.524761891744886855e-01
5.513559058132556645e-01
4.918502005896291385e-01
4.339679316023587474e-01
3.553332448114248643e-01
2.958728910872406304e-01
2.843553872228211099e-01
1.851444458033237317e-01
1.913430579482685856e-01
1.566725471838312511e-01
1.517595661203411106e-01
2.049593691559743747e-01
8.929660189582348806e-02
1.203094503680035426e-01
1.074808671739885951e-01
1.132228632285577768e-01
8.792900616443846684e-02
1.373656289892231930e-01
1.159875762361998464e-01
1.189637575071403885e-01
5.892686384846029801e-02
1.083845764645151727e-01
9.488072666923172416e-02
8.941601319537516301e-02
1.018606256476579514e-01
1.245845128557806908e-01
1.457257894431624456e-01
1.673336597429415096e-01
1.718496102823469096e-01
1.585390182861650121e-01
1.573731779326577596e-01
1.518871077963251381e-01
1.600584698065100897e-01
1.498672733091125919e-01
1.661161377710159148e-01
1.951621817253230973e-01
2.361991078604589456e-01
1.907819733026932252e-01
1.761535851175833334e-01
2.343782754569220805e-01
1.499329489610292110e-01
2.457752407553232543e-01
1.757246506847437717e-01
2.423912095147279788e-01
2.120827480374843921e-01
2.393898582189772639e-01
2.953492122903762507e-01
2.104966039596136707e-01
2.080608559607223518e-01
2.425341257727572919e-01
2.877129150211326092e-01
2.487417014187500441e-01
2.457622197544653830e-01
2.501929596636576214e-01
2.153150811886501981e-01
2.508042397263055001e-01
2.332533574407428811e-01
2.839644625283821999e-01
2.671283641497581574e-01
2.020264221135303351e-01
2.314531586824729315e-01
2.536630898184967786e-01
2.059318027049055200e-01
2.002427279401873261e-01
2.157065211335339738e-01
2.365596413693211442e-01
2.537316588868313572e-01
2.257158608031226421e-01
2.885226096532988449e-01
1.900281385614954466e-01
2.280172650076392749e-01
1.678251719363224037e-01
2.445530109484400638e-01
2.319847975456999500e-01
2.073986091549272770e-01
1.287055006248722100e-01
1.965150513408983057e-01
1.454550906686468414e-01
1.781664245749641218e-01
1.154125635290094432e-01
1.616287877723433797e-01
1.374002338072432827e-01
1.191539465665461955e-01
1.548054572242645310e-01
1.300620705492437912e-01
1.200872390590355110e-01
1.430614349653783202e-01
1.728609207213809285e-01
1.189072406093208273e-01
5.146146114162682139e-02
5.401416691189248054e-02
9.807866487516826715e-02
1.221882961704783555e-01
9.095924340955473253e-02
9.793526338820868204e-02
7.664516019583347828e-02
1.032490021645598721e-01
8.901852970606960458e-02
3.622717185173979226e-02
7.670381184751740022e-02
1.360770984553750715e-02
7.010582992376646061e-02
4.512904818060053252e-02
5.552297777767620929e-02
5.767771338660646063e-02
5.381588383422147154e-02
8.545192618801823736e-02
4.165892358880871754e-02
4.415698760624808816e-02
7.637685046795170130e-02
9.151477413858950805e-02
3.233874136633454327e-02
1.589276857565596890e-02
1.588629539835273441e-02
4.190576310331724230e-02
2.101572246985249082e-02
-2.652121637986065705e-02
5.858726098876999855e-02
4.839237623983456971e-02
5.745527417379089896e-02
6.259038986356027512e-02
2.727615594892998305e-02
2.874128781742568348e-02
5.056255191508993163e-02
-1.658371106191837419e-02
8.860800072578632613e-03
1.728115568474394154e-02
4.639945574657389910e-02
2.314579688986271450e-03
-3.112577961529956402e-03
5.146437074160377725e-03
3.202950993038522487e-02
1.579642093800044320e-02
-2.573666008590320270e-02
-1.984669431628985348e-02
2.186672586268569723e-02
2.290501745898934627e-02
1.870503463894007332e-02
3.855120868716439136e-03
4.173395865486986822e-02
2.933105772053809512e-02
2.849552457808455369e-02
2.977697307919207476e-02
6.683594618977889423e-02
-1.153284196938841183e-02
6.880694176966524467e-03
9.778487220770480659e-03
5.799656396518826362e-02
9.497616993403956709e-03
-2.569560544300672489e-03
1.857947928059772158e-02
2.550179602834723100e-02
5.893457323883554561e-02
1.240575810140441722e-02
4.008408221694480245e-03
-1.737345386931973823e-03
1.625482859318643988e-02
1.046268011502320266e-01
4.044148593728009305e-02
4.829709928484116066e-02
3.185792830724371028e-02
3.765441081721862537e-02
5.895309802135520472e-02
5.423155658028148973e-02
4.999755904685979774e-02
4.236551513841206595e-02
3.386744474384600911e-02
5.992461683060678473e-02
5.266808459864879416e-02
1.173252176553438858e-01
8.825799733865574703e-02
4.012781764307532528e-02
2.910309790413755440e-02
5.629065475494347132e-02
3.999587771042774353e-02
6.319918434370361271e-02
5.250587206047514777e-02
7.660123936665180766e-02
8.193535843424258613e-02
1.009187354100793826e-01
9.552669024714879886e-02
7.998277913507989556e-02
1.488781438877810337e-01
1.299302635782172977e-01
1.069131832412108657e-01
1.020318462766530709e-01
8.989294787811269449e-02
9.287784182756687879e-02
1.755476404319184502e-01
1.772054607090984557e-01
1.360556157780169750e-01
1.989209441116686627e-01
1.804905076012871534e-01
1.718031822352185101e-01
1.949162242184549754e-01
1.905703759918786211e-01
1.791666570287256954e-01
1.694555101972794742e-01
1.750863304516304675e-01
1.312430053454782808e-01
1.561711391901428048e-01
2.344426914442329091e-01
1.554047555908137923e-01
1.240673285211303101e-01
2.056661495094352921e-01
1.846162694160673468e-01
1.846315931972371538e-01
1.688928189633752408e-01
1.989953941670726256e-01
2.156855578698761711e-01
1.525298396019033609e-01
1.860246566564198178e-01
2.002282524505140104e-01
1.500862763822463641e-01
2.149643234098384537e-01
2.073646997924774027e-01
1.433782727292323145e-01
2.382840927004021836e-01
1.682159354181833044e-01
2.010375762097482699e-01
2.648147231092424225e-01
3.036181721960629076e-01
3.092666041761739093e-01
3.274888818323780648e-01
3.848888609309235598e-01
4.337051522195136677e-01
5.282646630879493932e-01
5.536432659844442439e-01
6.127721709151836560e-01
6.568089619622042852e-01
7.526784480001189603e-01
8.349759394193806417e-01
8.691954486469901653e-01
9.097733817594897410e-01
1.042881374967108643e+00
1.025309866322209995e+00
1.046758279045418627e+00
1.151508914300610753e+00
1.135198732595620985e+00
1.132510958005951140e+00
1.095910179184574229e+00
1.086906520067117077e+00
1.029944699638826178e+00
9.396924028346328450e-01
8.572791491003709519e-01
7.846436932111441331e-01
7.496863099343017423e-01
6.505164682224383599e-01
5.900354144283099789e-01
5.423333969270687227e-01
5.256488095160118945e-01
3.801473755290691314e-01
3.737930218071501276e-01
2.889087583209997145e-01
2.695730152452546213e-01
2.801376438614311959e-01
1.986515526766889361e-01
1.935118689200374387e-01
1.878843995212644835e-01
1.912866773574577739e-01
1.441835493608719099e-01
1.920148090287611686e-01
1.370788299947364175e-01
1.633944664958733861e-01
1.433652752622252835e-01
1.728951382639016821e-01
2.142023292843803217e-01
1.486136937705367089e-01
1.606807963421625074e-01
1.529154866801055168e-01
1.533828690541807760e-01
