1.093299021305207841e+00
1.161738077352617804e+00
1.119836924993959926e+00
1.070970144766595578e+00
1.011194221876962729e+00
9.210181644067794160e-01
8.860330176257894541e-01
8.130689688714336505e-01
7.547496283649726134e-01
6.442082405744282703e-01
6.472206846363984800e-01
4.713247039174751629e-01
5.147124435346241977e-01
4.571948853505746202e-01
4.482096316811302605e-01
3.244426662591022303e-01
2.760692145975005563e-01
2.611356032889500245e-01
2.460287335298753930e-01
2.036728968907496884e-01
1.529584205686235487e-01
1.916357566789177180e-01
1.650696664553847615e-01
1.282672799750343984e-01
1.058748036316827651e-01
2.269982725415082281e-01
1.779840299392525804e-01
1.713149440973242010e-01
1.537096757747953846e-01
1.813490090159404766e-01
1.332341832893567668e-01
1.754400556156524571e-01
1.817786882290029493e-01
1.489695628792837012e-01
1.821678240491942380e-01
1.785615767981221513e-01
1.737586320896941927e-01
1.862944329574833802e-01
1.570543892890018389e-01
2.459331686185997623e-01
2.666713682491359538e-01
1.977051615495805659e-01
2.644067118226945401e-01
2.356563846580365107e-01
2.416980323430117927e-01
2.083901363187234401e-01
2.356000735612503172e-01
2.732187964922446199e-01
2.326772789288500953e-01
2.441723901659709761e-01
2.554305176383865339e-01
1.724547331172467945e-01
2.882532697275702605e-01
3.009634720955580156e-01
2.959451694426503132e-01
3.161362727864441835e-01
2.770531547412390383e-01
3.469011042734360117e-01
2.690728037182355536e-01
2.891851276609887500e-01
2.873712289266647235e-01
3.034463987616919933e-01
2.910978992618086236e-01
2.952608273055647992e-01
2.776947698696695666e-01
2.842321259447513349e-01
2.293376022218231725e-01
3.190635397334972700e-01
2.626075741407523090e-01
2.764834064375519818e-01
2.570150689146712963e-01
3.031819191341201813e-01
2.667647202088664349e-01
2.064469017235142922e-01
2.845617284111394696e-01
2.498498304289376304e-01
2.674422273140721895e-01
2.887501433499995995e-01
2.295816338121274558e-01
2.529057994335928150e-01
2.263249263963524327e-01
2.739549455178683646e-01
2.414597472035034664e-01
2.330100103772309583e-01
1.909814941760712426e-01
2.451339952775500874e-01
2.432922486838854370e-01
1.882971526603106072e-01
2.101683484622347275e-01
2.174481706729134434e-01
2.606065357632315060e-01
2.000795336190866469e-01
1.826463228965496954e-01
1.723513406785370516e-01
1.685608820274930586e-01
1.889676976638069161e-01
1.340782692110016605e-01
1.832101040194023533e-01
1.037922932544151355e-01
1.649392060219797007e-01
1.683400835950946139e-01
1.593627628615870984e-01
1.386118151679771038e-01
1.378161856051084988e-01
1.095835961694403560e-01
8.361583406246174410e-02
1.207880212207036175e-01
1.114572271242420809e-01
1.333497954697947518e-01
9.781293679775097949e-02
1.033921201832339321e-01
1.039778104936919523e-01
1.094160147952067397e-01
1.177466073114325773e-01
5.787387996192386308e-02
1.048838342095659987e-01
7.590846576998297457e-02
9.823891560840231074e-02
1.210875210121235002e-01
1.138831856969942796e-02
1.091082877226785125e-01
6.728229729490621536e-02
4.344794500863401188e-02
5.437799460550044039e-02
3.506138765387802059e-02
7.983321046270638877e-02
3.226668968877795252e-02
9.823686907463846651e-02
8.174913421060295282e-02
6.677436685106885594e-02
-2.077878626475800072e-03
1.845088469518536139e-02
5.491358147149666413e-02
5.580390958919290156e-02
8.408584460511889236e-02
-3.210982243813923637e-02
3.192023217344704122e-02
7.928729565025835480e-02
4.358505740219752872e-02
3.925385246887869162e-02
4.520240613671913654e-03
8.429708842858357754e-02
3.768468001247875232e-02
8.477381957622404096e-02
9.570059495229243929e-02
9.104197868170363361e-02
5.039049834551181245e-02
3.670779431904724888e-02
3.457014193634063565e-02
1.101320096793605013e-01
4.470621285186636429e-02
8.268040223871726824e-02
6.562362672067717506e-02
3.891892939913350197e-02
4.383791182009949550e-02
8.715136403949566568e-02
5.286862070543060788e-02
3.866464873179015910e-02
2.849491369750576861e-02
6.280592457978846632e-02
3.830147723686711664e-02
7.230036968673986264e-02
1.316024869829806876e-01
7.173024508693714996e-02
1.113448646576662149e-01
3.694598111402617319e-02
8.022437274348874492e-02
9.884328669621519903e-02
1.042033235419047160e-01
1.029960775279795959e-01
6.710868691216832771e-02
9.549475108024334247e-02
4.065623382273972353e-02
1.219906381025303854e-01
4.801781985369428518e-02
1.172278097945671782e-01
1.141491235601880955e-01
1.174149031032011570e-01
1.519379276671662393e-01
1.254242458129409266e-01
5.813906474753360171e-02
1.199094036756833404e-01
4.998971574223608910e-02
1.085567284005927863e-01
1.033831854657811244e-01
1.400784546517865881e-01
1.012387083771197349e-01
1.071957820714086462e-01
1.511185256558951195e-01
1.764312752024403685e-01
1.463468080879732902e-01
2.209775503537207419e-01
1.459068989070672062e-01
1.813788384931913078e-01
1.758305260154169880e-01
1.597026182299357555e-01
2.134678162968675630e-01
1.512690116871809320e-01
1.192335726181527611e-01
1.808997401862956766e-01
1.797675126399510270e-01
2.217380682176951501e-01
1.543066481985554406e-01
2.090061812348962267e-01
2.064074547265784543e-01
2.045756725671361576e-01
2.263092439044177007e-01
1.939185590823981897e-01
1.953808146813597602e-01
2.061041643786954980e-01
1.879474982158543528e-01
1.485081706205707008e-01
1.746612280398399664e-01
1.769500140863143889e-01
1.655981411015349791e-01
1.709060622545413299e-01
1.841121169808585534e-01
1.694835093399038317e-01
2.032701497780087796e-01
2.050352041815914073e-01
1.106668315477360720e-01
1.444002568607442583e-01
1.234488186788754993e-01
1.989954586939191583e-01
2.127805190355981368e-01
2.476754390493799141e-01
2.939016663226320936e-01
2.984922298365433879e-01
3.188459117183090608e-01
3.801286397438532472e-01
4.148604463118136243e-01
4.405207311923745594e-01
5.738275547853193270e-01
6.221903107844898306e-01
7.200858961057123864e-01
7.078773243163936080e-01
7.642735636104762698e-01
8.497010813703113064e-01
9.500375732906175541e-01
1.017277956670795014e+00
1.044735510591715322e+00
1.074598740947282804e+00
1.118233030765816149e+00
1.088380059652052756e+00
1.130271834763502348e+00
1.141505150285369696e+00
1.021034131611907814e+00
1.004941101164714246e+00
9.207004254101390783e-01
8.752723411824178124e-01
8.518520181143548475e-01
7.214753486155445206e-01
6.788260200848315051e-01
6.641510305035435158e-01
5.714824835490067700e-01
5.234439179531937825e-01
4.017818682986304957e-01
3.882126950958862954e-01
3.943158110651232562e-01
2.755713484625973431e-01
2.446689879909366983e-01
2.465869284964683217e-01
1.775319940651869099e-01
2.065102540102578821e-01
1.160792102012964400e-01
8.613693991198242972e-02
1.606361669628064981e-01
1.169323389110103750e-01
1.268109079341690482e-01
1.694317336637820859e-01
1.627231677595661619e-01
1.092350012762113298e-01
1.646337539117253834e-01
1.437382584524268814e-01
1.695035848803998768e-01
1.610401095655062953e-01
1.214968289422354852e-01
1.503813480092993649e-01
1.047401484134430766e-01
1.880888937539340333e-01
1.999315507983587537e-01
1.724090068547523280e-01
1.955844242131909716e-01
1.753185501577792793e-01
2.476645148725852286e-01
1.767509645125205642e-01
2.112596205895023727e-01
1.867868965281683502e-01
2.377877968108390028e-01
2.667410787695705943e-01
1.779923808993756629e-01
2.643754445389941421e-01
2.979723531655008584e-01
2.569361733838217976e-01
2.366194895720244995e-01
2.592519981954845565e-01
2.472800293794302773e-01
3.255396708293316066e-01
2.943173912097011846e-01
2.986207003993771592e-01
3.382693524515544281e-01
3.156281156874294336e-01
2.729780847134749000e-01
2.783564055653988678e-01
3.490075647622954969e-01
2.562929970867241503e-01
2.732175069040210236e-01
2.475102667454416872e-01
2.225189900240008289e-01
2.494834269476318145e-01
2.485264524918174844e-01
2.536821760925177527e-01
2.885658739723306332e-01
2.672701777420993796e-01
2.950627471530791190e-01
2.660550860696195841e-01
2.633917425484941233e-01
2.454874456878921585e-01
3.085737137558652310e-01
2.331444552345825760e-01
2.687886495274742771e-01
2.010421337519365803e-01
2.242205269290357128e-01
2.865815049582006724e-01
2.415684862445372227e-01
1.735402034047399678e-01
1.789612053019854487e-01
2.522559313679165194e-01
2.010260100971653641e-01
1.842293985820581126e-01
1.631729425455905880e-01
1.710430675786177024e-01
2.169849455495514445e-01
1.475696280672498806e-01
1.445275450644626647e-01
1.746221064678247226e-01
1.195396115693623945e-01
1.168362146712104699e-01
1.393024246560652935e-01
1.343687571694461291e-01
1.035625551547291745e-01
1.365542371351930739e-01
1.235601793527328490e-01
5.255329309325382919e-02
1.300701336272523656e-01
8.460462765035456356e-02
1.210561351914719030e-01
1.545982255974986674e-01
8.568252090844545588e-02
6.399426259862234234e-02
1.205082995754344632e-01
4.993624861803436232e-02
1.280097323667118980e-01
5.361760812165451695e-02
4.516479077065184422e-02
1.315563838393465357e-01
6.823428589064854666e-02
1.029210382308824306e-01
5.054490830519556277e-02
4.562828174887240129e-02
-4.184495465499077360e-02
7.376385422702425032e-02
5.260758998903027062e-02
3.546399299586785320e-02
5.446959700731615617e-02
3.587665265514460716e-02
4.557909350348157348e-03
4.198166734952901713e-02
2.373038698026933013e-02
5.013248927047532499e-02
1.803778000990850783e-02
1.102227845533708742e-02
7.478018735655067584e-03
-3.912842215873938226e-03
5.809195652670419083e-03
3.339395027512954972e-02
-3.035139926147465209e-03
-1.672542739609518547e-02
4.136063770123984962e-02
1.273119272466671781e-02
3.916611174655834637e-02
8.816221989534170703e-03
-2.382386027449463067e-03
-3.813711555736931658e-02
-2.030719597960901207e-02
-1.311759123688278038e-02
2.099886126988683224e-02
8.846908082221275477e-03
-1.906624177711377377e-02
-7.210526674090156352e-02
2.484960557427992600e-02
3.698368679363034373e-02
3.933101454799483448e-02
-1.878597782766950469e-02
4.077140515403699511e-02
2.679986852772115249e-02
2.655585939718707600e-02
-8.611403761359825992e-03
5.694405271901255457e-03
6.468913081037025448e-02
6.019750932869306209e-02
8.634789844471623191e-03
1.612013200073120212e-02
-5.510697673310221978e-02
4.733073551587951844e-02
3.415445661058281318e-02
2.282492042467804821e-02
-4.788478132905172636e-03
1.621933553536790765e-02
5.928628863397077814e-02
2.741249447036948547e-02
9.690767432594046826e-02
4.387897224733287166e-02
-6.268794937857650323e-03
1.092162107938614291e-02
4.102113922378979732e-03
5.348457194962253497e-02
6.492901671427414589e-02
8.459625417851811269e-02
2.614015458300657582e-02
5.337406686333771161e-02
8.118603838368870784e-02
9.292118324534438811e-02
1.336936463481388886e-02
7.294462117451447347e-02
2.279052270295516686e-02
4.493864944018610696e-02
2.834942877679992937e-02
5.361671749712525192e-02
3.355231380359598170e-02
4.646302608460487621e-02
5.971302845623018690e-02
1.008906884500560264e-01
9.774719605940475342e-02
5.229225468910154995e-02
1.886493286650718915e-01
9.642145404113211526e-02
7.570534617580597370e-02
1.373638964573302701e-01
1.238141307074284020e-01
1.033595352455501937e-01
1.429325318114798848e-01
1.141718726969360997e-01
1.282282223190386872e-01
1.834197113270721047e-01
1.450833644852438375e-01
1.612817644163326292e-01
1.282167847602407873e-01
1.490323245079572256e-01
1.213993175631258581e-01
1.196967184070996393e-01
1.309566326422337001e-01
1.212504390196411791e-01
1.716025161188515502e-01
1.558835293591851745e-01
6.753444370726226220e-02
1.856661174327812192e-01
1.507805731232494395e-01
1.636195190750173722e-01
1.222173732954095482e-01
8.116603894372603767e-02
8.578652075403307709e-02
1.774839586044707485e-01
7.986500038928567857e-02
8.987070499399664458e-02
1.274858558219388038e-01
1.094145177707377958e-01
1.813016495192911748e-01
2.024517027936584002e-01
2.204050640732955757e-01
2.189852269772737947e-01
2.814201742900422909e-01
3.677581143114428963e-01
3.188662758501545902e-01
4.488949371503668240e-01
4.984473395630639181e-01
5.342787542981127791e-01
6.088578281251069146e-01
6.826788925519973183e-01
7.106879054070521784e-01
7.569351173783681608e-01
8.948394762264167968e-01
8.857559824228800061e-01
9.374921390307900948e-01
9.919508753020935821e-01
1.041582883177632812e+00
1.031162587995521518e+00
1.024432391477911874e+00
1.061621525980538383e+00
9.972921678147823599e-01
9.459182033294787351e-01
9.340299665682149088e-01
8.677366202108713900e-01
8.040692012579414572e-01
7.492713296997605132e-01
6.622362364361705778e-01
6.217242467028960551e-01
4.850005039642956151e-01
4.995671562519573561e-01
3.736752462053286594e-01
2.959194941055048322e-01
2.711411513474673574e-01
2.402193455948284095e-01
1.907654434580330349e-01
1.519966184996529024e-01
1.850904965420087922e-01
1.076970624595141451e-01
4.980575891953516188e-02
9.485459029027512590e-02
1.580859515228270895e-01
5.913529620962523770e-02
6.086554196502078073e-02
7.455451809043597833e-02
1.334163810476670653e-01
7.800833710058190096e-02
6.079801980365487357e-02
1.058658805617320592e-01
1.076976796595846136e-01
1.181461993992021925e-01
7.651582678496292311e-02
9.653073483585795922e-02
1.524869627852692977e-01
1.363558127026550104e-01
1.537868227242429053e-01
1.333814227346870884e-01
1.721799618720565861e-01
1.547464624831338953e-01
1.356641470406741434e-01
1.790851441515831644e-01
1.357314730933379399e-01
2.134424480472687513e-01
2.024028688398566700e-01
1.682518696936698421e-01
1.761895109736498211e-01
1.902278833470989472e-01
1.853839456771241012e-01
2.342292800741372638e-01
1.823454289387300142e-01
1.570244577601931923e-01
1.976610539752394202e-01
2.310299731316341476e-01
2.416266548402253300e-01
2.170209809374332721e-01
1.966876044321122785e-01
2.161429784144065502e-01
1.992313161019130807e-01
1.507993862447393196e-01
1.951129475713829775e-01
2.363444470428117672e-01
2.129099565148215023e-01
2.114085336924179936e-01
2.531439902813314990e-01
1.899346596551179656e-01
1.914274678238655769e-01
2.255521390138133242e-01
1.921357967102202136e-01
1.895187395221248627e-01
2.547082732216418566e-01
1.729635155220087817e-01
1.797416304582460655e-01
2.111867900975637202e-01
1.925823972491467195e-01
1.486164616301107189e-01
2.388694974765196433e-01
1.568241873027118594e-01
1.683818340809735137e-01
1.837583108470003945e-01
2.302593948606372620e-01
1.476789351513849713e-01
1.268382804013788168e-01
1.636875745162711393e-01
2.056403691168457448e-01
1.412388068847448275e-01
1.227022871286547884e-01
1.370721954611496818e-01
5.711728676974342500e-02
9.496868103423911078e-02
5.271305048823914791e-02
9.075343243889205658e-02
8.028877109350437968e-02
1.073489558440585828e-02
8.949210108923177920e-02
9.699567620977964100e-02
6.708376968444035304e-02
2.157400045770273972e-02
1.000393147587122222e-01
1.137785199850258611e-01
6.378393427237298574e-02
3.620811546755827587e-02
3.179985430282728648e-02
5.038366562296981571e-02
3.558927764911525710e-02
4.161898015848208149e-02
3.787568855927334749e-02
-1.781951548443842792e-03
-8.173526335833611323e-03
4.412387926207919642e-03
2.332344035931153275e-02
-4.085006910122991608e-02
-4.134327576533688986e-03
-1.404335473209769591e-03
-1.782421427943681538e-02
3.611419029132385827e-02
2.839393628335031700e-02
1.442671974874222551e-03
3.976908576029358766e-02
1.082228562930594162e-02
-1.356113450634121101e-02
-3.382477046985662983e-02
-3.318766961742789651e-02
-1.161423306081950033e-02
-3.577412790508984614e-02
-7.161586326594113205e-02
-3.891660844474410796e-02
2.037022007998726125e-03
-1.072197470785817286e-01
1.097105565783115799e-02
-1.494266036842355899e-02
-4.016633967476531536e-02
-2.540353637838847420e-02
-6.033495999341990934e-03
-3.463622554853622304e-02
-7.892103186706071749e-03
-1.148544712560287465e-02
-3.236246371044043668e-02
-7.149720628165044667e-02
-4.162117004106859197e-02
-1.003972993916863177e-01
-2.621385489871738694e-02
-5.256345946166084138e-02
-5.877974036320299245e-02
-2.096723392780391881e-02
-7.901885202773406558e-02
-3.777935660833957321e-02
-5.153579148049655667e-02
-4.691437623929423095e-02
-3.309373299263032586e-02
1.300235684681731035e-02
-2.977998722070777232e-02
-9.730983959154171359e-04
2.077309627948886739e-04
-1.844595837738887203e-02
-9.667289703893565400e-02
-4.829883209002067135e-02
-7.350931740646376999e-02
4.551731034757994232e-02
-7.002115967362090854e-02
-8.424598454829552996e-02
-1.217574958703297183e-01
-6.893968639071826332e-02
-3.324995267890998307e-02
-3.269923278573547143e-03
-6.680287642870465226e-02
1.788058374978078457e-03
-3.376351282191011188e-02
-4.473993936066508054e-02
-2.313567178544284272e-02
1.625336563947939184e-02
-2.249494488389890828e-02
-5.482465282968038839e-02
-6.189383409114020129e-03
-3.789863191039466450e-03
-1.864363785016727448e-02
2.102993764351057671e-02
-7.475270296637316625e-02
8.387498330903804533e-03
2.516907331700424244e-02
-3.766158179108747284e-02
-3.434103322786703771e-02
4.462973658373758923e-02
5.460656487654129421e-02
6.499082311847763360e-02
8.347464824957954999e-03
4.019725700360492204e-02
4.925153556442218167e-02
-6.845461507106902210e-03
5.420176555491489079e-02
5.871921260311373236e-02
8.191548647581524401e-02
4.729395119222180172e-02
1.066871321652522187e-01
7.612701403195737404e-02
1.293230112813510413e-01
1.044788066473598676e-01
9.415930848188847069e-02
5.378433043472273523e-02
5.268776827863186352e-02
1.429660658994602873e-01
1.235054205398548877e-01
9.041553388465972674e-02
8.780402497865587297e-02
1.078408641747195251e-01
6.123737241751977395e-02
8.750787732270889907e-02
1.194086457633297543e-01
1.224877336259440341e-01
8.772856606554996217e-02
1.451079322094194768e-01
1.265036005793771234e-01
6.995909785629839117e-02
5.254720503089330141e-02
1.065396409287885093e-01
7.335158759682386398e-02
6.630785454964241432e-02
9.164108013528826646e-02
1.071138507105163784e-01
1.114041446063505636e-01
9.341604515289622657e-02
2.957902339252025531e-02
1.367559068538750089e-01
9.736095389257112820e-02
1.485183223786713524e-01
1.582180137249797336e-01
2.572398068925335624e-01
2.855312963663198533e-01
2.499938001352760841e-01
2.695909116372950942e-01
3.240672703928405562e-01
4.278330485662481530e-01
4.658173429480785277e-01
5.145727204736154636e-01
6.002274193118319889e-01
6.979224071973854082e-01
7.489706369652089357e-01
8.001893290977563078e-01
8.615976096820063823e-01
9.173535526123143269e-01
9.692136661724151114e-01
1.000162254925384131e+00
9.591690044466589793e-01
1.017536024250143667e+00
9.924239766560659648e-01
9.507998425893866568e-01
9.359790854926242076e-01
9.370969631240054776e-01
8.728819311801946368e-01
7.906244595402852626e-01
6.948242846656524918e-01
6.120289178855592427e-01
5.547334682166149555e-01
5.144885460524211140e-01
4.488557528535165875e-01
3.659988503796709480e-01
3.545328759523637130e-01
2.880763668031965374e-01
1.514291119764398508e-01
1.948742312601297877e-01
1.809889340400569480e-01
1.369190579664067153e-01
1.261734993171204910e-01
8.354362138159618367e-02
7.647758565577758572e-02
6.778032540363487790e-02
6.843580897000317576e-02
4.194693063910437392e-02
9.063451526102403455e-02
1.008036567730411087e-01
4.381758499738974688e-02
2.738799605937722315e-02
2.562374282127755087e-02
8.229900921793742441e-02
9.243547640942267885e-02
9.208569313240894116e-02
9.994006718750778062e-02
7.349907831518956436e-02
3.644228521520462283e-02
8.690954743454010201e-02
1.571722423887968456e-01
1.212431681465256650e-01
1.317654071718946385e-01
1.518638188512300979e-01
1.051505899943067923e-01
1.426068044088701359e-01
1.567147823284728847e-01
1.186959471644239567e-01
1.627670363959052569e-01
1.957294729163918390e-01
1.496832838320103776e-01
1.146693880549990996e-01
1.759362122453766442e-01
1.552449119354072093e-01
1.843051002826366913e-01
1.572717660354541747e-01
1.877467866675777419e-01
2.258196433714597662e-01
1.909452947858243654e-01
1.447608896636124465e-01
2.076328508337849099e-01
1.987445071317727463e-01
2.059835995014125953e-01
2.298694590102001167e-01
1.856511165690380993e-01
1.931314888940698082e-01
1.708981795421182781e-01
2.072287719314284959e-01
2.057299247979690604e-01
1.918558769222057092e-01
2.206411195688592342e-01
1.653642114422713416e-01
1.981732978982351512e-01
2.099704973110112227e-01
1.729311319235223854e-01
1.449376140521084766e-01
1.319418126982719874e-01
1.838433394758388906e-01
2.261234491310459838e-01
1.528832471976033225e-01
1.803569535055901119e-01
8.948744871107691679e-02
1.686814702606216076e-01
1.198910448641148652e-01
1.356463187501373568e-01
1.445766695321132889e-01
8.703265182582894943e-02
2.257709017389621098e-01
1.077065546349981889e-01
1.384779713897422715e-01
1.594054411574607200e-01
1.177526301016472293e-01
6.644780547324008468e-02
1.006910865609952910e-01
3.683540349955489318e-02
7.642917887214749351e-02
1.311139803132653214e-01
3.298745495988625320e-02
4.519539829268409692e-02
1.202185906006965621e-01
5.417701347296907666e-02
2.750067249254455060e-02
6.101847879350268122e-02
3.044002828088662738e-02
-4.167517743657028068e-02
-5.565350345848207869e-03
9.255223934095689609e-02
3.643504810495674928e-02
6.640684622971144979e-02
-1.231405438604361857e-02
1.313818780515271789e-02
6.112468294923137369e-03
-8.686346611373803317e-03
1.075498743944113683e-02
-3.211813542094522911e-02
3.464591297390012120e-02
9.572918544380165651e-03
-1.231939846685912304e-02
-5.598120957366510553e-03
-2.101946709341879355e-02
-6.586344975864402707e-02
-4.594675707794344810e-02
-2.356263588228293959e-02
-3.054830319333116592e-02
-2.214778029802980108e-03
-6.389149461880502812e-03
-4.143781157176110869e-02
-5.468421413060858827e-02
-4.556938934912956041e-03
-2.265003051453705341e-02
-4.800870774744534636e-02
-6.456229570642166293e-02
-5.143544426411619103e-02
-2.017874414108419834e-02
1.796566189756089449e-02
-3.962577490176135558e-02
-5.882124964077523055e-02
3.038485303499450368e-02
-4.592882636390949874e-02
-5.898047775811396387e-02
-4.770921531528202891e-02
-4.948688071427948670e-02
2.106155637454747154e-03
-8.641513120565941231e-02
-1.851850551063611433e-02
-3.679304595221391527e-02
-5.323669177483245085e-02
-4.664707178295982720e-02
-4.408631536297452636e-02
-3.388279710320826060e-02
-4.998685135627937981e-02
-3.829605378629934859e-02
-5.949546379561906212e-02
2.947940327668994998e-02
-5.459878891871168538e-03
-2.079430285225458003e-02
-4.842893897881580395e-02
-1.007968951571485902e-02
-2.529539365977001228e-02
-3.018861815929877943e-02
-4.916676678808955953e-02
-2.427768560126206815e-02
1.873691879176798969e-02
-2.851241885296396800e-02
-3.790525471798937562e-02
-2.597044590682690696e-02
-2.646766330927373054e-02
-4.290042786652314977e-02
-4.728942792644050264e-02
3.268518570143791324e-04
1.443026057934365669e-02
4.815480492936791840e-02
-3.983995535760752327e-03
-1.195458456333360273e-02
1.406974208382360397e-02
-3.754845939638357111e-02
1.185480671021817839e-02
2.684105172477525142e-02
2.972351076770826661e-02
5.255382992742194115e-02
-1.165892828814585336e-02
-4.502499572890360235e-03
7.998766806254997697e-03
-1.462430965872978106e-02
3.957614461427967634e-02
4.843940615872642519e-02
4.995507798311833031e-02
4.265673870743235535e-02
7.353732825719556943e-02
6.590193350685319418e-02
3.592269775271003662e-02
-2.911111419276248349e-02
5.485619781397979566e-02
7.131717881410500059e-02
7.686475265728580364e-02
7.526284128169380416e-02
6.958854060505352546e-02
6.516288298365940923e-02
6.423363567796215590e-02
1.126712822609532705e-01
1.363792310154784138e-01
6.997535256679530968e-02
1.090971012810887514e-01
1.376336648560776699e-01
1.109285994333145120e-01
1.402642990041353399e-01
1.528723938002233274e-01
1.336293973976042382e-01
1.077347619542989993e-01
1.623986283354708626e-01
1.148088675061911118e-01
1.142593326808645088e-01
1.367735711310609781e-01
1.109676144508112833e-01
1.116853365687078548e-01
1.053616074209222098e-01
1.092231677450104244e-01
1.186566908607611520e-01
5.188416214203628307e-02
1.068780406274323080e-01
5.632165802361570328e-02
9.755780345293892097e-02
1.218010002138143200e-01
1.055995226982990309e-01
1.426482481838990679e-01
1.410520608727969805e-01
7.852726810496074572e-02
1.958673598009138539e-01
1.888708893870214844e-01
1.910349291346228606e-01
2.264854029491679688e-01
2.165581449983976503e-01
3.303243350988465110e-01
3.940773012192352875e-01
4.105525964447918064e-01
4.651683630668549396e-01
5.618156238063796160e-01
6.612874744549156469e-01
7.269409389203942418e-01
7.868926207920989846e-01
8.874336459100385932e-01
9.142509425007800949e-01
9.737291312140401445e-01
9.850556756462517383e-01
1.004718262805575524e+00
1.069820850326431927e+00
1.014170148436094543e+00
1.050969213140827696e+00
1.001701809762907125e+00
9.995364625864918695e-01
9.557205127453254345e-01
9.013623256184520871e-01
8.370497510928913698e-01
7.890227130204510164e-01
7.257614601791199105e-01
5.934739783707471128e-01
5.650050713259157087e-01
4.869192282627770041e-01
4.419832948115407500e-01
3.650947372594919860e-01
3.627677716601526159e-01
2.754035466486263739e-01
2.661806680087269728e-01
1.732971897654880800e-01
1.646121866956138935e-01
1.312572839713003203e-01
1.431618295855419387e-01
8.188326220257749477e-02
5.609720410745186459e-02
8.180305793693409822e-02
1.133576218280962916e-01
7.044340729334752638e-02
1.027429548202282439e-01
7.685515692226772833e-02
4.633736796303863925e-02
1.280214013078766477e-01
1.261700179462285354e-01
1.102406093197928760e-01
1.178585322605359004e-01
1.157700763850757208e-01
9.665102060635392955e-02
1.725864119633373772e-01
1.362617729911538011e-01
1.560588845366586153e-01
1.361967671226870513e-01
1.703929144498339265e-01
1.973747207357829103e-01
1.738764252574411251e-01
1.854750514108070569e-01
2.066802207056396556e-01
2.071237616011836480e-01
2.226522486112455512e-01
2.062204447352372350e-01
2.112933493426623899e-01
2.137580303110816204e-01
2.371989946776336122e-01
2.027518886846063073e-01
2.358206341990031207e-01
2.927626986357070304e-01
2.382643273241735471e-01
1.949436722945132594e-01
2.252098820858284001e-01
2.552761623637319066e-01
2.189436196188372097e-01
2.117953664215037335e-01
2.014792286426413392e-01
2.379812401733207572e-01
2.935965360018739090e-01
2.299644396314928230e-01
2.724677725312540932e-01
2.377515389003697632e-01
2.340738988390084485e-01
2.604116186556590384e-01
1.977493580061309708e-01
2.923511431607483946e-01
2.565592151948176691e-01
2.698205127594256458e-01
2.280590832396222345e-01
2.478949575860040500e-01
2.578986850897688754e-01
2.238215510759332671e-01
1.967069872129376396e-01
1.907173363234498653e-01
2.021988675570177973e-01
2.173467534679005275e-01
2.011057303718389866e-01
1.865791699692069261e-01
2.167097949825042835e-01
1.774999481938122070e-01
1.682409739386596659e-01
2.090810112046531666e-01
1.920593747088620573e-01
1.333658258227347071e-01
1.247150231339191756e-01
1.258994120920108040e-01
1.526890205752265972e-01
1.834396077525688451e-01
1.860044977753319839e-01
1.596288407063978232e-01
1.890804921257074334e-01
1.323855246107105144e-01
1.543264602603440228e-01
9.872660976751347628e-02
6.408637146727670653e-02
9.652659276274980216e-02
9.716780771064262301e-02
1.737317135273423740e-01
9.157140602847685384e-02
5.659037658089184630e-02
1.117514013319240856e-01
5.586329199080734137e-02
7.895132896827282420e-02
9.711603504745430770e-02
3.916071637093343494e-02
1.091073065197351033e-01
9.402289660328441712e-02
6.761388745769625341e-02
1.065230309997016594e-01
3.962108121356740231e-02
7.218624151003297240e-02
5.415255810274052783e-02
2.423043488909032428e-02
2.285760961896432519e-02
9.989206375458627163e-02
6.874769486723153467e-02
6.179680511512287977e-02
1.462717767478575320e-02
5.302271856843898679e-02
1.926303095295194001e-02
7.988030003988312588e-02
6.407173472228859523e-02
5.411497157916843326e-02
5.001896008847396546e-02
2.189789317935113278e-02
3.828238322770022295e-02
6.912774815191505273e-02
3.618832912120266421e-02
-3.656658994494276990e-03
5.866102871170434524e-02
1.441864840338053649e-04
1.921731920333204571e-02
5.529926908567711630e-03
-5.883816181382930249e-02
2.443262593781036357e-02
8.414941707159891149e-02
2.840346989262651153e-02
1.075840857071007767e-01
1.401082129672578773e-02
2.521248375077644530e-02
1.544166099141305523e-02
2.041482862431337822e-02
2.977712140733370164e-02
6.409411905053870318e-02
-6.236469602578335880e-03
1.937081268271003895e-02
3.779956955346285008e-02
5.798692794030982367e-02
-4.485039182199265784e-02
-2.172538358381659318e-02
2.183448495995317373e-02
5.463654942382970003e-02
7.135675602030985137e-03
4.218314158976475825e-02
8.207632085231385266e-02
2.375024509352505891e-02
1.737529896474548918e-02
3.924446115996946954e-02
3.145491336606245913e-02
3.478249410068874614e-02
2.288482431961656738e-02
2.190671439144104352e-02
9.323930628846351099e-04
5.105294020284056877e-02
3.205238432431641721e-03
1.179198260341027434e-02
2.452974976100419369e-03
3.087053155409927654e-02
4.389172034736478489e-02
1.278166820139198592e-02
4.064887815827272766e-02
5.656846350249934707e-02
7.931079862890520055e-03
3.573956474170511544e-02
1.163929473537961001e-01
4.494115031269894228e-02
9.161089111765655102e-02
5.949545261400755736e-02
8.528070320072964061e-02
6.009707022255707243e-02
3.186842482050269293e-02
8.074379457077610067e-02
1.124068396410939641e-01
1.247803372448947068e-01
1.140776144792860214e-01
9.186435551761819307e-02
1.482059693656707089e-01
1.043303377575016122e-01
1.115018259758806946e-01
1.071561566240309682e-01
1.289794490662332926e-01
1.377401049119195142e-01
1.601349467648614522e-01
1.152295217019914386e-01
1.462033522244068906e-01
1.398759309236699278e-01
1.802487576395274682e-01
1.796450566527723613e-01
1.424235140901912999e-01
1.903851771863888098e-01
1.759082795390304321e-01
2.026740057007488105e-01
1.604260206057614990e-01
1.979861040041332731e-01
2.062239636312295510e-01
1.818994577889281039e-01
2.419079823751317804e-01
1.924827061787048321e-01
2.290701569178528463e-01
2.500482818438417576e-01
1.222733635733634638e-01
2.050684217894507277e-01
1.842253220866116314e-01
1.746191209010191092e-01
1.466948302951434913e-01
1.399171886500331363e-01
1.364993186765531830e-01
2.379611027991667682e-01
1.912742616183896738e-01
1.440342190661911825e-01
1.647402089491670218e-01
1.510356172357308624e-01
2.675580539671626457e-01
2.583551015640719317e-01
3.030617549380568154e-01
3.246278878462632855e-01
3.959179460268708595e-01
4.046230519303155582e-01
4.802370794692648603e-01
5.396217290188514148e-01
5.608561353885339607e-01
6.412108938205982600e-01
7.224568658104701946e-01
8.093988772640100526e-01
9.072226505064728830e-01
9.303172185145929252e-01
9.788713514193778664e-01
1.036875006858236636e+00
1.058622459381290293e+00
1.086710442008137711e+00
1.144265630683082069e+00
1.090363833438048324e+00
1.090102537848340436e+00
1.035572114356801299e+00
1.053957123308028043e+00
9.399953311297035707e-01
9.081627771589964038e-01
8.765514811303507514e-01
7.537293403920134471e-01
7.363424091834056551e-01
5.793715332482121116e-01
5.403422215954707397e-01
5.057624554624361446e-01
5.208052632532239601e-01
3.981342947796763232e-01
3.499217707196946026e-01
3.366657552657678631e-01
2.331390639137872756e-01
1.442054938256506214e-01
2.623114686605446666e-01
2.086619051336474906e-01
1.619768471068083748e-01
1.658774794568683708e-01
1.879767041477641565e-01
1.476784605347659651e-01
1.534336133105146383e-01
2.096187178126318329e-01
1.122785228131425450e-01
1.673561646625773003e-01
1.183916374711389136e-01
2.058985254085351768e-01
1.723062777857276573e-01
1.478411981764668759e-01
1.286742814671206769e-01
1.686582019284652845e-01
1.903656544645959958e-01
2.252899151590625482e-01
1.635336024843541680e-01
1.774379588442566158e-01
1.930998714390430304e-01
1.905633915181641214e-01
2.041398829913211588e-01
1.969061648354127614e-01
2.433664317598570881e-01
2.218405403102218787e-01
2.419949064751374945e-01
2.559877458079602430e-01
2.104911336623647433e-01
2.745047735901499086e-01
2.675920242952239958e-01
2.720074983343996333e-01
2.658333470945902222e-01
2.656235750434171594e-01
2.789270392834354850e-01
2.834948709200478811e-01
2.482250984278407957e-01
3.335797870978736701e-01
2.678109858412182631e-01
2.927110259006355242e-01
3.273467696195326848e-01
2.834662413854409646e-01
3.018004984552367098e-01
2.295648679645326817e-01
2.360952689650581970e-01
2.946655419050829283e-01
3.006378669421332361e-01
3.272980827994912967e-01
3.169531935877047957e-01
2.436105177174685277e-01
3.275298432239862612e-01
2.515397196071157970e-01
3.105897033617127656e-01
2.682905304718742334e-01
3.601498345156320391e-01
2.575113578425459737e-01
2.692733632645696873e-01
2.722578644637209666e-01
2.560062255363720340e-01
2.289150286056520489e-01
3.202947447130515268e-01
2.310047594002835603e-01
2.249128998717516703e-01
2.358576157167163179e-01
2.396368252548025379e-01
2.078802221436405750e-01
2.515233719095471554e-01
2.219178917725652123e-01
2.122996227286494675e-01
2.227618023033741679e-01
1.748621491291508234e-01
1.770666442922675943e-01
1.882666284652050326e-01
2.111647553737477367e-01
1.703334708046104762e-01
1.625776110851800960e-01
1.033504650275368780e-01
1.403931699729522031e-01
1.063736838112993299e-01
1.086434341413370086e-01
1.565736522895354588e-01
2.402036115346155021e-01
1.416343974826770602e-01
1.410982513192996224e-01
1.037531872768708979e-01
9.071844253826560900e-02
1.796101081832444657e-01
8.967646907695181469e-02
4.991144742505908977e-02
1.135048163116210013e-01
8.963591428762435198e-02
1.169557297153524106e-01
1.428197433187687049e-01
1.037302461424082500e-01
9.649347368830396565e-02
1.066539599574202468e-01
1.653369362438658341e-01
1.500288182707531504e-01
6.981642649963086533e-02
1.055505407579506727e-01
1.285355554711131443e-01
9.378302900842719336e-02
6.914316003536689903e-02
5.447202589387663274e-02
7.075551845473937451e-02
3.210275516297016185e-02
9.176370325930216509e-02
1.053381675301966192e-01
5.050427676777274888e-02
4.778913362481687632e-02
2.859938409966140266e-02
7.335018450515876087e-02
5.815036566175482702e-02
1.438090102498603556e-02
1.444031878703014027e-01
2.942808607171200352e-03
1.249311408799087114e-02
8.332281842265293337e-02
7.435237859380960934e-02
3.276119244340258002e-02
3.042526097759495896e-02
6.716343125726237373e-02
6.445133630231256183e-02
3.171029444434662892e-02
8.240044172976847270e-02
6.953357057717082790e-02
9.230082871104160203e-02
5.057517842476642878e-02
7.627405748174068134e-02
4.505399406851452043e-02
6.810486001095286679e-02
6.261523678205542509e-02
7.737158813848613037e-02
6.760419154451727253e-02
-4.509823090037369531e-03
3.354540883783574401e-02
5.507618381881745906e-02
6.687072556620450581e-02
7.798859243468338198e-02
7.013747095502466389e-02
3.304808174730843734e-02
8.232975689720288537e-02
3.120591531615219891e-02
9.416816389978038826e-02
9.707428537489397324e-02
5.789775294149502455e-02
3.991641802807203987e-02
3.977326293002908519e-02
2.928329374531731671e-02
3.603412237097280979e-02
6.007979022138086600e-02
5.067192113210636228e-02
2.130790550885425932e-02
5.744590118714821420e-02
7.729205997282309615e-02
6.709455166987288166e-02
5.339748181014469797e-02
1.170348924167227689e-02
1.212142702710886921e-01
8.929087240677506532e-02
1.039409100944414660e-01
1.037911022981494735e-01
1.175310302315190902e-01
1.142559916022309885e-01
1.145954230046051792e-01
1.392871142048149047e-01
1.506075274897297478e-01
1.677609543397568515e-01
1.063774084011540333e-01
1.439433095784967698e-01
9.344594106449446991e-02
1.322998198432550898e-01
1.459199532219807027e-01
1.790596055062691205e-01
1.581794423766192670e-01
1.866179443949261829e-01
1.606023733096136885e-01
1.579089232249671626e-01
1.551864482198090922e-01
2.036741548197593954e-01
1.749594151229245942e-01
1.165017865826492166e-01
2.109530692187970569e-01
1.661621916033951263e-01
2.015511717686829796e-01
1.631385610172103595e-01
1.982428176486715210e-01
1.120077317857320343e-01
1.969641710454116124e-01
1.711239604907972833e-01
1.583253744950156583e-01
2.178725601442472737e-01
1.896403313431736237e-01
1.838656869561041129e-01
1.672773167980876330e-01
2.136122817645773608e-01
1.716087627548402994e-01
2.274612352614660549e-01
2.184389644055321766e-01
2.238732183477105675e-01
2.109087207937223318e-01
1.660394925638622454e-01
1.902391864711431291e-01
1.896209563440351131e-01
2.310904271340352145e-01
2.196502085947268368e-01
2.310931285286023928e-01
3.115345717099641254e-01
2.808686083431507496e-01
3.067495613332077431e-01
3.543458221107950723e-01
4.456161355945506553e-01
4.721051800778760521e-01
5.386035754500607675e-01
5.948421979150495531e-01
5.882445429326181863e-01
6.901063549914430162e-01
7.820599432045274302e-01
8.662672764239082168e-01
8.897615679671992961e-01
9.452607274490876232e-01
1.014714990050903820e+00
1.102379225792094131e+00
1.025157122358432149e+00
1.024908753732930666e+00
1.158177513458348740e+00
1.048721641642949232e+00
1.058268690659695865e+00
9.893982551238386103e-01
9.788869169181121377e-01
9.286757972239929604e-01
9.190774255563785022e-01
8.256609916382402492e-01
6.962191567540617632e-01
6.075520334184656424e-01
6.111062789215597757e-01
5.146908604659230502e-01
4.468843846097095840e-01
4.475306705556352238e-01
3.084702943402554132e-01
3.054690894873866025e-01
2.968767581079137519e-01
2.100937181103432194e-01
2.577259700414689103e-01
1.669911556793449714e-01
1.785307143332462709e-01
1.473171457630730596e-01
7.697885901078832527e-02
1.406666918583224513e-01
1.736759593072888241e-01
1.175545967734132613e-01
1.300839636073356509e-01
1.350894988031658139e-01
1.693459766016965351e-01
1.459466756881500626e-01
1.615156423991132018e-01
1.664466156303500977e-01
1.545360486504371300e-01
2.260558927237676374e-01
1.499139847272027981e-01
2.071885257942721048e-01
2.298761306071351873e-01
1.929944691618778463e-01
2.045180840479256523e-01
2.241336631826358894e-01
2.025710928622992679e-01
1.622455560355612336e-01
2.169788475903428604e-01
2.790570765671493980e-01
2.518425923183154613e-01
2.420370309977948886e-01
2.671881362894134027e-01
2.447601002182206997e-01
2.543623933272127768e-01
2.447047303987656963e-01
2.758897712626487420e-01
2.491471962420062913e-01
2.591673206078405900e-01
2.981026049532275457e-01
2.687114693829624756e-01
2.939926970227054737e-01
2.986434032470492994e-01
2.787399211592183623e-01
2.720488442391724715e-01
2.440847877864601723e-01
2.515733022980923272e-01
3.031658122249945020e-01
3.026763674531702253e-01
2.549638488371340772e-01
2.958904210839589100e-01
2.894661976175241791e-01
3.096616547663096353e-01
3.448293577064099336e-01
2.950323463436922977e-01
2.546493554996812070e-01
2.949327472810318596e-01
2.383138183402301324e-01
3.328498207025218369e-01
2.257608194909949961e-01
2.717751941101203550e-01
2.544808831389895887e-01
2.375736350636414307e-01
2.310162110924069423e-01
2.812870722318580041e-01
2.523522403064765718e-01
2.255388177874467492e-01
2.766700840931592409e-01
2.156013096014521013e-01
2.355477121185222955e-01
1.675301025089176443e-01
1.632935062479035915e-01
2.172946662086718272e-01
1.993000227020181314e-01
2.484910488575559628e-01
1.569522762145650341e-01
1.924150069312330624e-01
1.588277172737720955e-01
1.857431260596695277e-01
1.775113789372278483e-01
1.478406889661934009e-01
1.207504779597321359e-01
1.271831069299731998e-01
9.847265282246658868e-02
1.374099628931542694e-01
3.693245338224763336e-02
9.862872178458254036e-02
1.381861801218500219e-01
1.326128631213194520e-01
5.313749817315688989e-02
1.144331207386597160e-01
5.831266579994910659e-02
7.695919602760989409e-02
1.072081336135457669e-01
5.105688228788049510e-02
1.193619872499493556e-01
8.066480764373140655e-02
8.340162166361267393e-02
9.855753411348350257e-02
8.983068299683538704e-02
8.424130775195078080e-02
3.758952534965921688e-02
2.131628425884382269e-02
4.363972510059464793e-02
6.394149846003518989e-02
8.875302212914961547e-03
6.279033740627956717e-02
5.452338402906589665e-02
3.593766011304616592e-02
4.145308290421142322e-02
3.988397586981067000e-02
4.960496368737632444e-02
5.727256204908966891e-02
1.196389914240497676e-01
3.727181471444196426e-02
1.166228419398448492e-02
-2.733584502799544375e-02
-1.345169918475418516e-02
5.072614626211457284e-03
4.754822670118435263e-02
1.415092180064815228e-02
3.738818331179480370e-02
2.467586617483339545e-03
3.738540848871093475e-02
4.923502926934328339e-02
1.038141848618124100e-02
3.492443938761148614e-02
8.130519716379260714e-03
-1.610729124216792388e-02
3.700320759969615014e-02
3.235456611102395519e-02
3.739145595770819452e-02
4.790497085444396508e-02
1.146208619593371697e-02
1.339616185241971832e-02
9.866679710637043729e-03
2.857447571746794812e-02
1.389867118650943943e-02
2.172938128122192322e-02
-3.727252703243838505e-03
-1.294223968215192470e-02
-9.324306058305595682e-03
3.055093480808759518e-02
1.695305071264400706e-02
3.695237514949316349e-03
3.874813020932935809e-02
6.302163001007635157e-02
4.983106080659525233e-03
-1.204434291876848445e-02
4.959761280997515565e-02
2.260412879176112999e-02
1.767637732631078401e-02
5.489584922015700724e-02
1.783178225664059507e-02
3.913416427112282464e-02
3.372328686895056937e-02
1.281312613599619454e-01
2.884460421241975131e-02
6.325857337388667012e-02
3.012475972537138197e-02
5.385063245219730288e-02
3.739238414706742147e-02
7.027506980615708110e-02
4.690173113647913561e-02
6.845092127395593917e-02
3.444893204435089257e-02
3.721326887991766724e-02
8.823519415984203834e-03
8.060858724671127185e-02
5.467233170711709861e-02
1.446534241224943784e-01
6.938138003824911859e-02
1.257959879511283963e-01
1.276499776007174181e-01
9.088520654317304437e-02
8.110848622407464126e-02
1.040783628271430838e-01
1.470017736716146828e-01
1.862448065528521102e-01
8.521190741685195913e-02
1.270748707198625371e-01
1.126752515173796571e-01
1.238611185756069294e-01
1.895218813971356886e-01
1.184995355455344679e-01
9.627130602740055498e-02
1.530680693050305297e-01
1.604912895788183635e-01
1.381299857264623732e-01
1.315257393089591109e-01
1.575163892964742129e-01
1.124801090909060136e-01
1.654355755321082200e-01
1.417023192020484823e-01
1.926623434253098011e-01
1.591236833267542783e-01
1.431348100113393196e-01
1.387297626168644549e-01
8.529249929539300945e-02
1.371789671551978673e-01
1.324642064168363165e-01
1.380081816182615329e-01
1.291340707049976610e-01
1.768223563927886766e-01
1.261239896133845573e-01
1.105781910906538656e-01
8.959956474872823873e-02
1.322660985681368695e-01
1.233572826777983716e-01
1.285763672198111107e-01
1.751392246670455399e-01
2.404431774298931013e-01
2.615097480130026963e-01
2.279615158824460086e-01
3.065690432457944259e-01
3.633819414246161617e-01
4.194608961215813281e-01
5.068293160307829615e-01
4.852341859069280727e-01
5.590736163979542761e-01
6.334093780977076982e-01
7.325460166559238928e-01
7.068825954918911414e-01
8.453144476877358926e-01
8.568818556273233300e-01
9.609549694832233424e-01
1.064414331558358073e+00
1.059655055655990941e+00
1.013969653817158978e+00
1.043399708121732772e+00
1.021296777516093268e+00
1.065969467706763485e+00
9.281158230386195029e-01
9.371659687614896095e-01
8.763684993880230811e-01
8.016324423280606348e-01
8.208468877817592935e-01
6.551752977406978262e-01
5.962608384738047329e-01
6.106405169644634201e-01
4.928959683902826572e-01
4.275336440071537125e-01
3.558268127637495559e-01
3.219267060565089156e-01
2.625729269499899599e-01
2.130683399072937356e-01
1.588398110489295245e-01
1.737026945679758239e-01
1.316123798246108256e-01
1.173789036807748182e-01
1.375055132826664694e-01
9.256104268135903479e-02
9.764190321855067967e-02
1.470176003205362070e-01
1.063676134378274130e-01
7.848173871324366779e-02
6.298052727740907630e-02
9.424048803304424515e-02
1.250305732317253393e-01
8.753196089301820693e-02
1.082686641198893074e-01
9.580489705705846903e-02
1.070183766020361416e-01
8.610425007788269358e-02
1.360490825539378834e-01
1.376487453812582917e-01
1.830099959912565577e-01
1.473572226262828966e-01
1.281734910869204991e-01
1.985416851953897277e-01
1.712636363680146712e-01
1.712860521229969679e-01
1.703583609280003575e-01
1.803708930723353920e-01
1.547824825395995585e-01
1.829035249122179518e-01
1.833527930847513310e-01
2.050104610023449347e-01
2.319651511541363786e-01
2.313783611983669664e-01
2.214109954885987441e-01
1.577788065057325051e-01
1.995673625686664732e-01
1.607848963441760592e-01
2.504352524698632010e-01
2.165633739870049812e-01
2.176363331635566556e-01
2.030175079386841719e-01
2.626996978503991498e-01
2.286661812409296057e-01
2.226655711789009284e-01
2.299736238836611601e-01
2.320328681564138573e-01
2.213263350827591180e-01
2.622802198435558174e-01
2.606494899080032956e-01
2.242230093828868620e-01
1.960541864039783699e-01
2.268360746234346359e-01
1.964837348669759565e-01
2.541453979905623495e-01
2.551467052280710912e-01
2.260335458102462614e-01
1.657209112891510350e-01
1.824113436235069718e-01
1.859789475415500326e-01
1.621421913677169035e-01
1.734285508696297162e-01
1.844551136407317771e-01
1.880707512561244354e-01
2.055095774307094114e-01
1.607057869574688991e-01
1.467093490038902381e-01
1.113227657982461122e-01
1.545554909917863928e-01
1.246591051054661697e-01
1.260476003942319345e-01
1.093635829270374477e-01
1.042271274687018856e-01
1.359147414257311226e-01
1.067210489138216561e-01
1.493702117534759510e-01
6.310186338061717082e-02
1.283560034201292055e-01
7.032664122948624474e-02
7.783025267499348032e-02
8.879131646493937380e-02
9.933754627829957662e-02
9.522302266570092932e-02
8.947386097294147966e-02
4.681511394918994040e-02
1.025547834688867316e-01
6.188631035549038706e-02
-4.942505098651313322e-02
3.620683252017593140e-02
1.951649461852867848e-02
1.744855097690871382e-02
4.200130270655293152e-02
2.833379281742888500e-02
-4.779171688405334933e-03
5.714318789503846502e-02
-2.979957760879348855e-02
-3.496743665452370364e-02
-2.995719942743944875e-02
1.311812523863951918e-02
8.123683690635048749e-03
-2.981175278564694373e-02
-2.570076275021749429e-02
-1.023631382090520875e-02
-4.430614243527303264e-02
9.696331070534011665e-03
3.083417114950822574e-02
-2.325494711671386577e-02
-9.191606261720643156e-03
-1.789499123108492101e-02
1.841667340378697060e-02
3.425689334921787343e-02
-3.597104225395050120e-02
-2.545927388550812617e-02
-1.789345203199739498e-03
-1.821692946390397055e-02
-5.687657886056390888e-02
-8.468736092526593651e-02
-4.916134934850746596e-02
-2.217537131835294398e-02
-4.454619929182065258e-02
-6.502689579578335710e-02
-5.140350405041663184e-02
2.036455952780581030e-02
-6.893433558333908473e-02
-4.499843561191663177e-02
-5.147631028033200495e-02
2.229566066859890033e-02
-8.092442611099318062e-02
-6.063061511961999328e-02
-3.541465437862683502e-02
-3.253216436475998147e-02
-4.132656230410661213e-03
-7.402965400382391370e-03
-5.919954560494168627e-02
-2.876178808216228386e-02
-4.339928643995702440e-02
-5.192881498965905285e-02
-7.649505771181876190e-03
-3.038077196281759387e-02
1.000704307801085491e-02
-2.329469607936782843e-02
-9.426983444194764195e-03
-1.182546426348179275e-01
-3.360965759561162364e-02
-2.270123708376445976e-02
-1.921842240474654073e-02
1.228240046445959466e-02
-1.455895674828852626e-02
-6.837143912173258842e-02
-1.457890963418240551e-02
-4.209841683430512460e-03
-4.604837281964302420e-02
-3.833938741092453306e-02
-4.281272849627759669e-04
-2.178746841935541231e-02
1.329650993356495947e-02
-1.138785185789886745e-02
-7.965706970201694159e-02
-9.443971854679281130e-03
-1.991253606133430373e-02
1.392675813237365112e-02
1.179238569387981717e-02
-2.532987157155800265e-02
1.294932555503709032e-02
2.732420576555701086e-02
2.899192945394846177e-02
4.957206106984389515e-02
-5.674576091520416865e-03
2.517256831221474644e-02
-3.202505144771703588e-02
7.524405369221205675e-02
4.857656758279568776e-02
4.740528430610010946e-02
5.197175899306540753e-02
7.521424991153498329e-02
9.692204837213627688e-02
6.172457557381056531e-02
8.732835603116451129e-02
9.134885632740503969e-02
1.757770761769888307e-02
6.612289999463581702e-02
1.039373819630929618e-01
1.310430503338224917e-01
1.375710113450469840e-01
6.242037393583092092e-02
1.310728870289057935e-01
1.335661927270830329e-01
1.159735572326591468e-01
4.354947925870467085e-02
8.811782698832736072e-02
1.071110518601955663e-01
9.597520462296521560e-02
3.677765287126516514e-02
9.241439438482698665e-02
7.044534609967434413e-02
1.139785037887369179e-01
1.084214178791096939e-01
1.075037487471634245e-01
7.870836205593284562e-02
8.878220519756455098e-02
8.471104273058896461e-02
1.146820883319559781e-01
7.268740668624570911e-02
6.919508719799308261e-02
1.262897137500388622e-01
1.304637755692409640e-01
1.316626893920075925e-01
1.809750990092748590e-01
2.168215260691176982e-01
2.168845993718592213e-01
1.890307692077749513e-01
2.738936968515005566e-01
2.959494349985209438e-01
3.255409185873334721e-01
3.756670040707754676e-01
4.665216956541052284e-01
5.475473373594166304e-01
6.317586934734972237e-01
6.790653322526278846e-01
7.437912811599196594e-01
7.853682193856410532e-01
8.581425490619737362e-01
8.599551186377600853e-01
9.660308587153111359e-01
9.957321683769306819e-01
1.062027739136816029e+00
1.012461462633416742e+00
1.045287101884978975e+00
9.781951893683887844e-01
1.013844444974402403e+00
9.656735328210532820e-01
9.056705469960295574e-01
8.151353035095058042e-01
7.423932081190028898e-01
6.698842842361478755e-01
5.820843756961224802e-01
5.557965134132148988e-01
4.668036514605048981e-01
4.216749331951912261e-01
3.558383346500062494e-01
2.645217678516698090e-01
2.805240429591406848e-01
2.097075922493957245e-01
1.969932656053013653e-01
1.064007361387818984e-01
9.422562510025876692e-02
8.620490310391287769e-02
9.059148914910465644e-02
6.944210249862509121e-02
1.060696071901659210e-01
9.157267487159762021e-02
3.631384816445900471e-02
1.462132587432711794e-01
5.636427840875183476e-02
9.991200661536345229e-02
5.582554454398341859e-02
8.699962093851607015e-02
1.011885585021619627e-01
3.240176073968187992e-02
1.350756197883036802e-01
6.458414189280349549e-02
8.305858585639822045e-02
8.098693963195052747e-02
8.779669702778852836e-02
9.490835326126977056e-02
8.038820449234401755e-02
1.447125345871180802e-01
1.309488044275421981e-01
1.288846174389197408e-01
1.689631888596029585e-01
1.968050467478245080e-01
1.022072293536825938e-01
2.027569094267324401e-01
1.582226649305558952e-01
1.230646180092091757e-01
1.804380341979385793e-01
1.687850663542838636e-01
2.020993125225433173e-01
1.843739668202403204e-01
1.941689042431385126e-01
1.735701932666369185e-01
1.586316110423736381e-01
2.142793974590499473e-01
1.784931951413914752e-01
2.081929992210221625e-01
2.422324170832831636e-01
1.940479652484475293e-01
2.206735449843788555e-01
1.992236138671240331e-01
1.893112049908529659e-01
1.531282177366712627e-01
1.982045372970551167e-01
1.934899700046838200e-01
1.709703084584771882e-01
1.343718275280275654e-01
1.433098857275171556e-01
2.446312354615544638e-01
1.895462390474050296e-01
1.423539711840014210e-01
1.641081967587372237e-01
1.789239392347759250e-01
1.882646283107778096e-01
1.637290713254695440e-01
2.270523505349958393e-01
2.239376233169496078e-01
1.686457911282153721e-01
1.412553590801330361e-01
1.586421925491054985e-01
1.020735300888535313e-01
1.665745940730840036e-01
1.362841197789482484e-01
8.937532280247784122e-02
1.024418231194782203e-01
1.315059058841721029e-01
5.864567972578400151e-02
7.607981907048927406e-02
8.319440793893603803e-02
1.207299916506881510e-01
1.372410887109713484e-01
9.155739027374798500e-02
-2.016236636619701816e-02
3.566398102271395310e-02
1.686484386329874519e-01
6.321311015148502188e-02
-2.487948945671517031e-02
1.194370625391184548e-01
3.243194922576443651e-03
5.573287451043373864e-02
-5.130539728922453580e-04
9.543623993045752263e-02
-1.748823227419857990e-02
3.263282477015835847e-03
4.825545112220143429e-02
-3.683777816728635301e-03
2.378736172881519562e-02
3.056771068617992332e-02
7.573210835717610057e-03
-3.429833133725237321e-02
-2.764088019679959013e-02
-1.843977184044887085e-02
7.933242288410656540e-03
1.206554223498042255e-02
-8.580425011398634672e-03
4.028136582156061074e-03
-6.694755281069622588e-02
-1.229193977125461745e-02
-2.506200206419830281e-02
-1.002351357354529932e-02
-3.954430471723086038e-03
-5.958037236788585322e-02
-3.275987508045863361e-02
9.269146924617013839e-03
-2.284962596102232957e-02
-3.608198642453675636e-02
-7.062453108235247634e-02
-1.873078995562106608e-02
-7.756835917249474410e-02
-4.197978242217307449e-02
-5.205859072312567226e-02
-2.614428270122518688e-02
-5.646868820908880482e-02
-4.886155970501830648e-02
-6.677193068355874450e-02
-4.729278464909984075e-02
-3.373625283468319885e-02
-5.089058933861614897e-02
-5.012018653533732715e-02
-3.598134192440757828e-02
-1.104591207595184005e-02
-1.886260856406940176e-02
-8.009809307760590302e-02
-1.830906369014964619e-02
-3.041016127584769690e-04
-2.014048644449057540e-02
-1.136501303059423290e-01
-3.319688339082960127e-02
5.108226592002232391e-04
-5.426367499976866154e-02
4.643310188778449615e-02
-1.056967530573284103e-01
-3.556944817496558026e-02
-1.786030830535311961e-02
-3.394532441192640859e-02
-3.396591690575582329e-02
-6.919350869036135221e-02
-5.457136673951976102e-02
-1.933513253145187002e-02
-9.909316284447353129e-02
-7.551486649149993791e-03
-3.704707297303926755e-02
-1.584728548132405962e-02
-5.679038441779742097e-03
8.232691093219424161e-02
1.402539084718286422e-02
-6.217835968291934856e-02
4.071007072393068721e-02
-1.033723111349514612e-01
-3.292257338198009697e-02
-1.183939450674035415e-02
-2.399692931069526830e-02
-2.840253574984429041e-03
-1.315431817060444541e-02
3.387155229580185445e-02
-1.549766042207350106e-02
-6.407442876803712273e-04
6.004595181147651117e-02
4.022413460166474053e-02
1.056063305785162609e-02
3.448842920804225803e-02
8.133005170452373145e-02
-1.140373586937365458e-02
2.622312891643545363e-03
2.322794941425730675e-02
5.228075367112634125e-02
8.016541668983433178e-02
3.353493642419111409e-02
3.358326546048695516e-02
2.778334619628042290e-02
4.407691155329084703e-02
5.775815520249952262e-02
1.744832023983217822e-02
7.023057658752232535e-02
6.006240587266164360e-02
9.083081818244678751e-02
1.505766345703319908e-01
5.537245079931194663e-02
1.367592132692379281e-01
1.591339313928781807e-01
1.403851591862897985e-01
1.236021052100935158e-01
1.541819407388358709e-01
1.347157407972766341e-01
1.495484858201701628e-01
1.198259737017043219e-01
8.404926373259484496e-02
1.499455906836817121e-01
1.921168883987727782e-01
1.020867122981073405e-01
1.111983213397205322e-01
1.119516191492240104e-01
6.256769770174369638e-02
7.937516342677702896e-02
1.124844325995691674e-01
9.964870594991992458e-02
1.029780241381508255e-01
1.045402341650015915e-01
1.032068404689132496e-01
8.883376462828639075e-02
1.326675153868336066e-01
1.405739725418720387e-01
1.193014607593427395e-01
1.776411132894819833e-01
1.710581112806726645e-01
2.394865669200928193e-01
2.546781688225326912e-01
3.100302537378206158e-01
3.518514929212736009e-01
3.991016958198202458e-01
4.700948812646523756e-01
5.494041032843296479e-01
5.947499401690301557e-01
6.628598489488438661e-01
7.175196926436463452e-01
7.397966909705381289e-01
8.573121431540952075e-01
8.738749634852606141e-01
9.420865034551928474e-01
9.701568774071649415e-01
1.000123160730119309e+00
1.014936073585916754e+00
1.048999027318797683e+00
1.031146941905127346e+00
9.986229574693267219e-01
9.940995768102214303e-01
1.001900607582182579e+00
8.692575636728124833e-01
8.187016449444997068e-01
7.329270700454266763e-01
6.747401684246757680e-01
5.370787525824382014e-01
4.367042213491669767e-01
3.895276548908176983e-01
3.736343640162491098e-01
3.780433998871397527e-01
2.952092073353754231e-01
2.324905958698842978e-01
2.241477632742396864e-01
1.865263621221293633e-01
1.098124052271493983e-01
1.442650863618970825e-01
1.395536494767964375e-01
1.660713027104950279e-01
9.262528031914797622e-02
1.407399579294371650e-01
7.514232086292352286e-02
1.564303998943651630e-01
6.973538571057644186e-02
1.090781728250468652e-01
1.015987007762512162e-01
1.416565314374545193e-01
1.421521550679415991e-01
7.521682616897501505e-02
1.017110417340443551e-01
1.811336547783219397e-01
1.260307041867147759e-01
1.533046494194069687e-01
1.026757430340723837e-01
1.333438050240050021e-01
1.253990304256032418e-01
1.803566508210608099e-01
1.805758356453626701e-01
2.009581356128568030e-01
1.374038153636067128e-01
1.920239047126606480e-01
1.816403580928405426e-01
1.130149319372601852e-01
2.054026005714105207e-01
2.352298657053785158e-01
2.483481050068251927e-01
2.046971133662994213e-01
2.349344593623334809e-01
2.304415473920579660e-01
1.950354585779902894e-01
1.944109664000587545e-01
2.230447656753112573e-01
2.202647184085476662e-01
2.325157613107260712e-01
2.195347931130519348e-01
2.402954155665975589e-01
2.034345584298082876e-01
2.822818920354567829e-01
1.827691573337376918e-01
2.353642478099099433e-01
2.317541691795464154e-01
2.335031560298672093e-01
2.115936986330888281e-01
1.905709590781608231e-01
2.417536211394965828e-01
2.266937455644977284e-01
2.423376720824429731e-01
1.789413222471472331e-01
2.772615030803667335e-01
2.203906212729694614e-01
1.282699472253577000e-01
2.216431409326702351e-01
1.980236753934624949e-01
1.741441711206855869e-01
2.408356745968591450e-01
2.272931650629038403e-01
2.049922570318615245e-01
1.922163086828910517e-01
2.000662146555219345e-01
1.324648524151225970e-01
1.803208878302864082e-01
2.063711654033714149e-01
1.950422770308830045e-01
1.268621520521006907e-01
1.584468932926337836e-01
1.136749901526356715e-01
1.465447494654202876e-01
1.137541132896165985e-01
1.047345343439706339e-01
1.361363948325678419e-01
9.823634087665480963e-02
9.085557424814068306e-02
1.200161259969277916e-01
5.988845964956321377e-02
8.964557501598169331e-02
4.828320586874785408e-02
4.895685143711319548e-02
1.200743136624195795e-01
6.794754171337989701e-02
5.455105609877465567e-02
9.737688380609500760e-02
1.162628390723387528e-01
7.142375272165175926e-02
9.074782385830948428e-02
3.998997841674877679e-02
5.474438446670032432e-02
5.006880296101551969e-02
5.646153061898844666e-02
7.274204435722893269e-02
-3.068073676739001363e-03
1.168417882955076481e-02
2.135216989807256840e-02
4.477491783676844882e-03
3.829351502223812820e-02
3.587854629918389021e-02
2.921161922713849668e-02
1.360050110402755662e-02
6.446979478585690426e-02
2.901358684412330344e-02
1.660456617086295689e-02
2.181568443670953497e-02
4.096522580486682691e-02
2.397153076467781543e-02
-9.357054613407911337e-03
6.856153230579020708e-02
2.873003503387197913e-02
-2.041242811906645790e-02
-4.097369459175831397e-02
3.359466332970692526e-02
5.120377386683541698e-02
2.554750857945843612e-02
2.998961802539769350e-02
3.042349314555195874e-02
1.116183258108841350e-02
-3.964340111673689271e-02
-1.033638989710644260e-02
3.434067655164861621e-02
2.800098493374273897e-02
4.506611127056092854e-03
-6.074160359079777520e-03
1.561817228417306837e-02
1.769428684551335729e-04
8.189551071393024947e-03
1.468284640220465266e-02
-1.242358274029269419e-02
3.510841562833563745e-02
6.418702525087046848e-03
2.628062339914933460e-02
1.389427793399462471e-02
5.864101450511384483e-02
2.909335264170720414e-02
2.552134127902699196e-02
2.497868768234612347e-02
7.697118057185770024e-02
1.381056189666389489e-02
2.081252242661782437e-02
1.988556117369717768e-02
-4.129834442253739468e-02
2.151372751991470489e-02
5.036480739294869891e-02
3.659408041349442031e-02
6.788730641792428688e-02
4.766749050822512851e-02
4.085793587551827394e-02
5.431913368005698850e-02
4.062449468659949658e-02
2.347106600421609152e-02
3.043154491124751282e-02
-3.460894243519491154e-02
8.753355442827553956e-02
3.674313923703791812e-02
1.461266020729772366e-02
3.836935218368912187e-02
1.057347523627618913e-01
5.905422133356264675e-02
6.870017361071081852e-02
1.278772713690817242e-01
9.485352617017842047e-02
6.583155964721415510e-02
2.834126222017859312e-02
1.035214952322998094e-01
6.915404895354437809e-02
1.145599563847353036e-01
9.866349758084000388e-02
1.177773401823006827e-01
1.378201810891132029e-01
6.448986321184324577e-02
1.256096824403586665e-01
1.265034658130612666e-01
1.408711534776353469e-01
1.523941347343563679e-01
1.466576950781385003e-01
1.272656158367089785e-01
1.171536588799499262e-01
1.074345556038184962e-01
1.623476119072272406e-01
1.778811084241362916e-01
1.547441797626861182e-01
1.924302291824230571e-01
1.661354882615655448e-01
1.686059460911419616e-01
1.291669653136138796e-01
1.596825232431648978e-01
2.008086826179089623e-01
2.148677044933857416e-01
1.665562689728485868e-01
1.972105223342578151e-01
2.122179446445405793e-01
1.399781733608501666e-01
1.757551856628226661e-01
1.700097087585365763e-01
1.947059361107736364e-01
1.358355437914505193e-01
1.693086934468433502e-01
1.518393263023369022e-01
1.732374554759778529e-01
1.995841466692632737e-01
2.117369870391915543e-01
2.113446214654545741e-01
1.548696164516016327e-01
1.842471943100049414e-01
2.468141599504770634e-01
2.578730399399917772e-01
2.603917226752378578e-01
2.751796751763577187e-01
2.259832875187036405e-01
3.420390250501872398e-01
4.333369101405273871e-01
4.918936106163115385e-01
5.756855187546039421e-01
6.476636220443900971e-01
7.657044259246875706e-01
7.434875823297391051e-01
7.750811927712240035e-01
8.690932060026660411e-01
1.004806513340591234e+00
1.004605658059404938e+00
1.074638564898624526e+00
1.056229571070902873e+00
1.074583540324171249e+00
1.041706007056240502e+00
1.073553711147377410e+00
1.061350720072585352e+00
1.052666837442015835e+00
9.984623385392662476e-01
9.872742630111194240e-01
8.620446538420688531e-01
8.079737219882177079e-01
7.314167863333688180e-01
6.413982174881110998e-01
6.059522008744616661e-01
5.194707582998639994e-01
5.157183886131335715e-01
3.852352415949752418e-01
3.475265884454449283e-01
2.753038130904478242e-01
2.838661724125272068e-01
2.010695099197851721e-01
2.136078919105580953e-01
1.570746011778807461e-01
1.457355400914864818e-01
1.396357351864848384e-01
1.754672285340074522e-01
1.448432191451466400e-01
1.406739186862992486e-01
1.600164133283777101e-01
1.238281783153091231e-01
8.649577925004821310e-02
1.153963032880300776e-01
1.435010952374612958e-01
1.549512909692447038e-01
1.779964260877703319e-01
1.620435709113159928e-01
2.023336802220297992e-01
1.882819621138497879e-01
1.409296713471461515e-01
1.125723475198763257e-01
1.646294546624889887e-01
2.048589245006524062e-01
2.177108006968169196e-01
2.092306665701358370e-01
2.217516507351207644e-01
2.634264576545194414e-01
2.297892084136303192e-01
2.452971015048484582e-01
2.879822604062025615e-01
1.908675943508210404e-01
3.014342337111656778e-01
1.781026969481403488e-01
2.346079134305554259e-01
2.468884559914169829e-01
2.186833855258756842e-01
2.664847255744051124e-01
2.733587332109305157e-01
3.002596382708626610e-01
3.021461211144972347e-01
2.886477791603018206e-01
3.191902486756630908e-01
3.068399811562411705e-01
2.792496832812079166e-01
2.937199139812778359e-01
2.718667950882671658e-01
2.546015629597025431e-01
3.042679236789442854e-01
2.461649437770404292e-01
2.848477166576692254e-01
2.205125042202024099e-01
