1.172648935143909332e+00
1.148190042610277128e+00
1.125776705799245159e+00
1.097693628483071615e+00
1.072691880482159243e+00
1.045301234337702612e+00
8.776204307970342233e-01
8.934221519005781653e-01
7.983743659413504723e-01
7.431253611396836378e-01
6.892644151809542707e-01
5.598778467976341933e-01
5.436714135643112566e-01
4.156616754066919661e-01
4.009903766554241411e-01
3.401823695459602614e-01
3.057340913040770269e-01
2.380733843995591348e-01
2.504717832754176920e-01
2.603541480428335220e-01
1.642441271531497604e-01
1.843563118988153227e-01
1.936255110237642407e-01
1.517422956091052100e-01
1.970000596121439240e-01
1.411789343138075692e-01
1.503500976957258262e-01
1.253162246499740784e-01
1.613598509793610358e-01
1.610179334580031374e-01
1.840687770915665489e-01
1.504988456045278922e-01
1.541130591520699644e-01
1.937254495116378372e-01
2.272524099942007658e-01
2.098374240073454799e-01
2.521137853224576508e-01
2.191280236780246138e-01
2.238441991005645504e-01
2.344310478835654465e-01
2.644487765999369300e-01
2.626232149930059490e-01
1.985612737625219448e-01
2.606345827853586705e-01
2.499649377870759581e-01
2.414280315288396261e-01
1.991443099568043773e-01
2.110296874663168953e-01
2.510034837082921189e-01
2.224853551949947383e-01
2.603611864616665050e-01
2.961033971282603927e-01
2.609763149461551413e-01
2.843583143039333794e-01
2.529089146515731135e-01
2.968142569932863961e-01
3.056181066089131426e-01
2.498774508544894801e-01
2.718598820511948788e-01
2.579042551160226071e-01
3.123444044705520617e-01
3.027777741803768796e-01
2.967937162316760524e-01
2.945004140817082949e-01
3.077340089226093811e-01
3.076724460974057940e-01
2.814985411598189824e-01
2.759226171693698881e-01
2.914972013245095139e-01
2.855110804641812217e-01
3.506282615207424458e-01
2.745746263880284310e-01
2.917557802776698517e-01
2.937215194760549042e-01
3.181548733074809343e-01
2.479315117921507272e-01
3.083327449705497436e-01
2.593627236864345931e-01
3.342485972624179569e-01
2.653102437768556365e-01
2.126069015482639768e-01
2.384399884409271753e-01
2.791791151220484046e-01
2.361489149298873769e-01
2.264199695614005636e-01
2.441980384383736769e-01
2.066296437636819250e-01
2.049594926666808981e-01
1.772116215415728002e-01
2.516727987344197226e-01
1.573890183961192124e-01
1.934296590242803038e-01
1.970551543793689631e-01
1.766114523049238383e-01
1.338307984771771597e-01
1.359858283603975759e-01
1.762148232840034523e-01
1.318331920014119141e-01
8.786922897855314885e-02
1.565584473599913595e-01
1.138210492922397399e-01
1.541140736951364665e-01
1.244515608877619917e-01
1.184750544520801752e-01
1.231567894363616023e-01
8.320963531342792652e-02
8.853291513261643542e-02
1.015900189386332031e-01
7.130893307315566698e-02
1.234658181447350761e-01
8.940221004850866515e-02
5.187197700566371916e-02
7.547328014731946588e-02
9.232469752958788467e-02
7.310308624067810013e-02
9.582701980728985935e-02
9.854639156365491148e-02
1.510111759648528618e-01
1.112522554756806559e-01
2.554800139170169959e-02
6.186704956431047370e-02
6.283356479974011588e-02
8.636258324026113709e-02
3.949431077440188065e-02
5.006440718654611710e-02
2.727317120556037311e-02
4.523943070800319488e-02
4.515351194193555767e-02
5.159552685708954090e-02
2.435672330965664087e-02
8.845760747672831714e-02
7.228158061732695150e-02
1.383762114782968039e-02
5.733365497264433092e-02
8.909134203514912365e-03
9.550307381236133875e-02
1.030797272546082888e-01
5.245423719874173912e-02
2.806225751107128616e-02
3.327096208276716233e-02
3.918341174135249461e-02
4.922396424274894100e-02
9.320997473330616678e-02
8.046282160670320538e-02
8.065361221448336115e-02
5.639769206403107832e-02
1.645563665033970141e-02
2.777163433521854727e-02
5.252926851171559053e-02
1.453345165830761260e-02
5.956923189583586409e-02
7.451151343199270694e-02
6.665171682359670446e-02
6.540719638040626283e-02
-5.748629289033198309e-03
9.025908319315872896e-02
3.288164210632042728e-03
4.581437238003720214e-02
6.907968707872849667e-02
6.145140830525299552e-02
1.257681058903588334e-02
1.823421037060916558e-02
6.012781924140785106e-02
6.723888705317351833e-02
1.916862723961950885e-02
6.471482068717643310e-02
8.120543019601099421e-03
7.305037301847788767e-02
2.865093285296883840e-02
5.854632817830985464e-02
5.460098819446827789e-02
9.327211328024699599e-02
6.709355983720889649e-02
4.339192094207742351e-02
7.385618177251979111e-02
1.292220022403539059e-01
8.922138176193813996e-02
6.750598813288330446e-02
4.673847127715213823e-02
5.592666413233406131e-02
9.770911989646519080e-02
5.383956775923758042e-02
8.381612602255274214e-02
1.304023526639350727e-01
9.553705883967306134e-02
6.261018271911776567e-02
1.644772689908200747e-01
1.563605290046262974e-01
1.230409841145856109e-01
1.509531850668356101e-01
1.094821130773322715e-01
1.441492743419346412e-01
1.147209368549974295e-01
9.183506292424756245e-02
2.153535480045001560e-01
1.004929420458438305e-01
1.566689041433448615e-01
1.612948837589250617e-01
1.730608973008064821e-01
1.595997911789253654e-01
1.644314030061359289e-01
1.752507065311414425e-01
1.895175030737204502e-01
1.787878705381196198e-01
1.801764134310006316e-01
1.456114974005513762e-01
2.482772621995900098e-01
2.061396495386102479e-01
1.980973690959325628e-01
1.744018478899217461e-01
1.638675629738731709e-01
2.201467820533400399e-01
1.894577212557976564e-01
2.123400349625825245e-01
1.521695369263451891e-01
2.377730108956029875e-01
2.167007119711543139e-01
1.852484206357501162e-01
1.995522433917457095e-01
2.055407935908661887e-01
1.410885068472100268e-01
2.297171136058767660e-01
1.926066010972409814e-01
1.565538553861188786e-01
1.455490523915903556e-01
2.104556475724758680e-01
1.916887519135401508e-01
2.070092172734573355e-01
2.037766916496293601e-01
1.872460114356824523e-01
2.514928302472187460e-01
2.543949101247612310e-01
2.895008477150802229e-01
3.974887653928573794e-01
3.947639944684100399e-01
4.455677103683811091e-01
5.548200972029536659e-01
5.460470038011693283e-01
6.044342460322486010e-01
6.506428435225050100e-01
7.299412334628996302e-01
7.551077965198363939e-01
9.116870490137408689e-01
9.176665726270927248e-01
1.044454073956034845e+00
1.069601861609482674e+00
1.118098494584232050e+00
1.144526613878646293e+00
1.205846186195208558e+00
1.205181523279247324e+00
1.158618969202833471e+00
1.109397688269275761e+00
1.128136850160760707e+00
1.023759225457060662e+00
9.491975248861995729e-01
9.459444610800287201e-01
8.972035622381029363e-01
7.749017564463815955e-01
7.245224194376511662e-01
6.261824500606694155e-01
5.892666797623550279e-01
5.335487605881299444e-01
4.311504966664363447e-01
3.525616063440125680e-01
2.904852203388715304e-01
3.193686886611118991e-01
2.213887454380964737e-01
2.367095662862970518e-01
2.246515306541785051e-01
1.672335775973895211e-01
1.627872592000523533e-01
1.871862626204875979e-01
1.257521199724789263e-01
1.182727499707570407e-01
1.363779360880131852e-01
1.814303255558239458e-01
1.925581613951587168e-01
1.435602068917208596e-01
1.283327784876100164e-01
1.854692021445186467e-01
1.078270990155742182e-01
1.700751538664428131e-01
1.663493443115300341e-01
2.117014194035095886e-01
2.200948978555731517e-01
1.554150092918128723e-01
1.942166910570261584e-01
1.775795162959457885e-01
1.913964210022471302e-01
2.241784103979655163e-01
2.010091692089967519e-01
2.221897829901997024e-01
2.503020719106191505e-01
2.721261957729344538e-01
2.402749086186958261e-01
2.399269483084714438e-01
2.077721101029472717e-01
2.929604401834309257e-01
2.644340701015416850e-01
2.575898879384471152e-01
2.597416401092618732e-01
2.714279418652323361e-01
2.868965068059287638e-01
2.934461989485191991e-01
3.174303378137870446e-01
2.785917130928767804e-01
3.258098041356880525e-01
3.064472161447395204e-01
2.740948915840026312e-01
2.267064963454963611e-01
2.797645194833765503e-01
3.240600512411281886e-01
2.537926319592719304e-01
2.789061553438544339e-01
2.804093081839569290e-01
3.023790549561196084e-01
2.607903533980225341e-01
2.443059348571708089e-01
2.851114003660005225e-01
2.430039926419188256e-01
2.072156626627968956e-01
3.141599886057800384e-01
2.831335592842060822e-01
3.079179835460718606e-01
2.734654371180825216e-01
2.632356808781181057e-01
2.492582161665168050e-01
2.277238789124281793e-01
2.436036586322707365e-01
2.064008025751284670e-01
1.855185538212057728e-01
2.020856061683478921e-01
2.451324607635890496e-01
1.636482067485563463e-01
1.582739475595815459e-01
2.065927783042691146e-01
1.704385798388171058e-01
1.914645541774747661e-01
2.005929457975267338e-01
1.787463191770030657e-01
1.399578804012628075e-01
1.914753954962519766e-01
1.693650856228217372e-01
1.420859755870770014e-01
1.348920397006628802e-01
1.411083557759369722e-01
1.149798745484815754e-01
6.996591907194729676e-02
1.360904808955019085e-01
1.291209123320703478e-01
3.431589924973017791e-02
1.137600394288373479e-01
1.463740510128053451e-01
5.524246650735996356e-02
8.242070802853736222e-02
7.486617656364275009e-02
1.260043588376602020e-01
1.058479224643623512e-01
4.205594960264491533e-02
7.502188485062505352e-02
1.303482707326248380e-01
3.919483952359209544e-02
5.442538400830955470e-02
6.714234808854052661e-02
3.056264403837999355e-02
9.903395488618026155e-02
2.937388539034556378e-02
-5.627992229412133451e-04
2.304686446150319354e-02
5.620404199777125076e-02
1.060949683002269939e-02
4.168114882684707811e-02
4.766620214661176913e-02
-7.194877436628865572e-03
1.054930482919444468e-02
3.641534965975019161e-02
4.559795990563840495e-02
7.029925691374975735e-03
2.649799913032467591e-02
1.225682316420783659e-02
4.151449049207082270e-02
3.423490661319673889e-02
6.486570938260888784e-03
3.114377377918334244e-02
3.568714250843692780e-03
2.887671699316939067e-02
2.855325844603684785e-02
8.485035572245165636e-02
2.978434371649088530e-03
8.215457431917188441e-03
-7.539049471262168969e-03
-1.964769114063656674e-02
-2.865120193275890598e-03
3.030403260664327886e-02
3.202618664301276619e-02
1.835173917440570054e-02
2.140435062826257645e-04
-6.082680254113840244e-03
-1.912920447955186384e-02
-8.648227737185725308e-03
-3.108684088166024234e-02
4.823802446918298847e-02
6.237995263281861935e-02
-5.101785077301324717e-02
1.556015997799227793e-02
1.492142565170179527e-02
1.290066830939919258e-02
-1.120919549951949340e-02
3.723051223657505154e-02
1.890142543570594996e-02
3.769824900013834384e-02
-1.530176438626716304e-02
-3.445474102286841950e-02
2.038044971156008356e-02
-2.117926644933198349e-02
3.981440063902116910e-02
-5.505435408260864194e-02
-4.634173129706624025e-03
-8.258279637774477641e-03
1.175091305168136924e-03
2.004628483497116614e-02
2.531753155320154436e-02
3.400020802966249867e-02
3.900578702100602341e-02
1.293865906974467524e-02
8.326292895415157713e-02
6.372924509366983958e-02
1.507620177109288834e-02
2.285949651571118207e-02
1.971917793598677512e-02
4.357231912880236285e-02
6.696691972113303325e-03
1.556761532256560089e-02
-2.215450720380510510e-02
3.472709974850940462e-02
8.264895297466418045e-02
5.034962778370406095e-02
5.640694490348896473e-02
7.217089590103968610e-02
3.842805299890950793e-02
7.403421673121604596e-02
1.048512374318621987e-01
9.226046615953330254e-02
1.173560294139912030e-01
1.308744998050918595e-01
1.177244302358506911e-01
8.126199135376918625e-02
9.703755086713501676e-02
1.698489072569841496e-01
1.256775114143355021e-01
1.257969214224496646e-01
9.841567321506319854e-02
1.250117065020850404e-01
1.524491330029902059e-01
1.342360172304807864e-01
1.206445599203651159e-01
1.296180659353871889e-01
1.755669138994168099e-01
1.609620962921381737e-01
1.576013664306548934e-01
1.549905956090139592e-01
1.059948152554864437e-01
1.489294586363047179e-01
1.716489285880594406e-01
1.302448869994780878e-01
1.655267414504414114e-01
1.504323870748234260e-01
1.566143324630987765e-01
1.309832836861021532e-01
1.538470042476364485e-01
8.142897961822023745e-02
1.250608302448979470e-01
1.450376988143030621e-01
1.333685456711553585e-01
1.598643931755382996e-01
1.269797774399197832e-01
1.227046649687004859e-01
1.007379311561192037e-01
1.564897738526581650e-01
1.995879689996573059e-01
2.315702163685651738e-01
1.972303094176841853e-01
3.111746879120319553e-01
2.899005469159077752e-01
3.652696118880126575e-01
4.079346044096892054e-01
4.993947294204912901e-01
5.564804736799213725e-01
6.444539813496343861e-01
7.520023376167496165e-01
7.814626427920666751e-01
8.232536818562610215e-01
9.213859428337558555e-01
1.026634650012531402e+00
1.040266390007048347e+00
1.090864592922492715e+00
1.044605074627291907e+00
1.120743623548458912e+00
1.103935016582298312e+00
1.080376696611356158e+00
1.075291175031858337e+00
1.041713103461824996e+00
9.709356855329334124e-01
9.370424597498496766e-01
8.604729367687379282e-01
8.158202867147913429e-01
7.276682012330836224e-01
6.573975270772367541e-01
6.019445973129362581e-01
5.185392163238137231e-01
4.353282130566608066e-01
3.118844467501352136e-01
3.349723972969050334e-01
2.437583810262617112e-01
2.266805067243925498e-01
2.050096025297731550e-01
2.046072846979641036e-01
1.962795008256276730e-01
9.485877745108566017e-02
6.898847141656691551e-02
1.080720042545452869e-01
9.868165759121962088e-02
5.118074900902980229e-02
8.479054002372651833e-02
1.030559818584466242e-01
4.948591082905655358e-02
5.892464515066990483e-02
7.266779438204107322e-02
8.951081074322385367e-02
1.210784291507579769e-01
9.521382251998150581e-02
1.116864634230499143e-01
1.826239790705378452e-01
9.189379333664796090e-02
1.064226856646374592e-01
1.518306061513282623e-01
1.666182719482658392e-01
1.548955656353788457e-01
2.021556024977007315e-01
1.627827077034090797e-01
9.926405513075253761e-02
1.666399951030842486e-01
1.516581514645919115e-01
2.152143529668870403e-01
2.073865172636489007e-01
1.353214015996723196e-01
2.278840892262299356e-01
2.196982047416468908e-01
1.856888823332873972e-01
1.967214980257355195e-01
2.442228284613334188e-01
1.464109309086249477e-01
2.217192961649278593e-01
2.436504220911987761e-01
2.103558531963138356e-01
2.342918993264974659e-01
2.194461292753276116e-01
1.939794324045211182e-01
1.940252340903380057e-01
2.400916391771306668e-01
1.997395329060544233e-01
1.727884403878063857e-01
2.215515143027943501e-01
2.014813124539218958e-01
1.795387551136962689e-01
2.159517685274093268e-01
2.347606563151006798e-01
2.099535368824570480e-01
1.746415668063502624e-01
2.180464652295616146e-01
2.313064071514389919e-01
2.630110400562263862e-01
2.359668046178390877e-01
1.583805751247354676e-01
2.098681074201321772e-01
1.871769448933026103e-01
1.400626623407433269e-01
1.780907579293891096e-01
2.219137949906646590e-01
1.948501256322141273e-01
1.230545037817949994e-01
1.482354693620020758e-01
1.568413306630462023e-01
8.438122145434148735e-02
7.954117136440180813e-02
1.291261741056730916e-01
1.235755686179927926e-01
5.743103583166297987e-02
1.182941695365446189e-01
1.333483701776201624e-01
8.831548377841186293e-02
9.083901009239001012e-02
1.004359217450847830e-01
9.079497979199052660e-02
2.198948152301431758e-02
3.942306051941855266e-02
4.934411525147186506e-02
3.016143607650398351e-02
9.489338845471276263e-02
6.495533277885505441e-02
7.810767551591275837e-03
3.000386237882671225e-02
6.583129175053267779e-02
8.175491129163083015e-03
4.891339356559812335e-02
6.082621918708155939e-02
5.194265806635230132e-02
1.716097140644413932e-02
4.573230783559139451e-02
-1.085174690454284580e-02
7.616503169491956049e-02
5.744331144048313298e-03
3.000717772574401643e-02
-1.802139449613885530e-02
5.204198556897361716e-03
4.051949296898484099e-03
-4.245157014426226977e-02
-4.553988089716391741e-02
-2.499182456975620678e-02
1.235801666742938898e-02
-7.757006176299638400e-02
-3.522314379008378848e-02
1.335776609916637658e-02
-6.439851352050410260e-02
8.785548591037743715e-03
-6.396782268190803755e-02
-5.884359791166834941e-02
-3.689301061151620265e-02
2.267789259723197032e-02
-5.370082082243318733e-02
-8.739395564176861975e-02
-7.830173480564786570e-02
-9.062097355198021897e-03
-7.838195300760515682e-02
-2.766122650029151364e-03
-3.692635659956208100e-02
-4.055631766931531296e-02
-3.119337630859255264e-02
-6.462356895333576379e-02
-3.690505420580879326e-02
-7.724286569605129382e-02
-1.359774730483771787e-03
-7.298942998113194802e-02
-2.931806675931764722e-02
-7.381205407680503650e-02
-5.902288435367050029e-02
-5.447172463590352343e-02
4.598051189694445096e-02
-4.406959368027282831e-02
-6.843110080080530566e-02
-5.724277392210049692e-02
-8.913784875505392780e-02
-4.894179944023526602e-02
1.144700585264064180e-02
-3.399594224252432129e-02
-1.692760933242671781e-02
-7.123769719217135088e-02
-4.990233879836578762e-02
-3.749572321495702604e-02
-6.512528478687504285e-02
-3.105560207145760879e-02
-2.421241144584302188e-02
-2.593170562508658600e-02
-4.620605807952522792e-02
-8.308716286950290630e-03
-4.802420130724618236e-02
-4.990764453964885439e-02
4.777872658394285987e-03
-7.057042225106704980e-02
-8.720123925790841668e-02
-6.074468941624987933e-02
-2.152803443367970818e-02
7.100260102124132666e-03
-4.930273662075944363e-02
2.706963458590532640e-02
-2.424836947923441482e-02
-2.601239875039536645e-02
-4.531450413801378641e-02
4.167112159422359241e-02
-1.821212833580836826e-02
-5.027716903990678970e-02
6.701677569276981439e-02
8.915450452153368677e-03
2.509680964252697377e-02
5.580399312425324970e-02
2.820309742968160616e-02
4.359977033103720756e-02
2.072069121869671293e-02
4.597393611014538584e-02
2.791775105592574080e-02
3.339972110859351639e-02
4.271499899271734985e-02
3.235896571380120906e-02
6.452352299423945448e-02
6.952975024411790772e-02
8.404071236530641364e-02
8.353901308826094940e-02
1.290701261483651607e-01
1.051677380970776621e-01
7.165534469839707210e-02
9.547620221608607571e-02
1.279678674331072019e-01
6.044902806529210693e-02
1.523646015771249473e-01
7.128773860645745697e-02
1.237016418345824598e-01
9.861558123309877022e-02
9.815741942222222516e-02
6.140116810929310137e-02
1.280504383137839042e-01
6.205142745903727275e-02
5.685093828023537327e-02
1.339383426144866718e-01
1.514693820565636562e-01
7.607413951239672123e-02
1.242468552366446100e-01
1.159630078972251066e-01
8.721642395813580806e-02
1.280778558906052189e-01
8.149076941687724562e-02
1.009339951605448260e-01
4.772977709864164447e-02
5.024876119273391506e-02
1.246299446577407988e-01
1.113207194382302700e-01
9.854825301557762485e-02
1.715189838079142770e-01
1.867319024911879843e-01
1.632297599458977511e-01
1.319557639468594834e-01
2.037173371250468601e-01
2.198145294967359387e-01
2.917324782489545965e-01
3.117543567469719390e-01
3.610290124948810631e-01
3.918047536957953714e-01
5.322403698103580494e-01
5.293023065916898640e-01
6.616060795620610779e-01
7.650161429024340265e-01
7.934156089632959930e-01
8.491260229564773221e-01
9.396842833676918305e-01
9.682282890504680939e-01
1.039427623236132359e+00
1.031475378513639019e+00
1.074622045297434214e+00
1.068727220929770017e+00
1.066124983320218433e+00
1.089339388236280737e+00
1.007555810557315024e+00
9.668925513555211015e-01
8.739615253261695527e-01
8.331828167371300164e-01
7.470774582552884846e-01
6.823437311344414669e-01
6.264944217357593104e-01
5.189817735667722198e-01
4.520852233572413281e-01
3.839145958547692805e-01
3.232849244673777211e-01
2.897565961083175545e-01
2.262591353383902604e-01
2.413285316154678284e-01
2.424044903111875482e-01
1.167081932041829084e-01
1.198742762324507272e-01
1.245220862218908570e-01
7.214558480235096216e-02
4.081584796188642700e-02
1.165249738453228157e-01
8.135327326620075961e-02
6.888558606494385450e-02
1.031383521251670321e-01
8.440674717388317594e-02
6.261667301146180142e-02
3.834269711905110428e-02
5.706303010482552396e-02
1.127071196588777247e-01
1.020799190176190502e-01
8.133218824235613487e-02
1.454293257032427678e-01
9.334295666301362093e-02
1.333926346884422021e-01
1.161181409237857509e-01
1.732659524928369388e-01
1.436120066053474253e-01
1.281068260453665508e-01
1.269946467270226254e-01
1.374477989996080174e-01
1.215901927551896466e-01
1.076668179733290959e-01
1.630987131619111574e-01
1.428334677814173947e-01
1.475708992686808607e-01
1.656044564802516550e-01
1.742284249882929403e-01
1.770364368848159620e-01
2.328624020258592553e-01
2.042126823821583947e-01
2.509182637416109696e-01
1.775577379776142328e-01
2.169714252957895273e-01
1.843672624192380927e-01
1.811130628578379309e-01
2.640496663686515699e-01
1.780271700504487964e-01
1.351540444780463812e-01
1.815441242107092845e-01
1.428489535434771251e-01
1.745135082857433018e-01
1.768869453110709367e-01
2.029402963253568726e-01
1.392738227895597980e-01
2.351703603605035664e-01
1.412057135501307847e-01
1.914983675516507000e-01
1.831330149659032014e-01
2.148304852387301067e-01
1.975262593326454763e-01
2.192070870297668228e-01
1.691035354003094238e-01
1.620915744669556569e-01
1.842613288014184336e-01
1.983709864930797984e-01
1.876556113788279412e-01
1.677759485972054321e-01
1.601472668084341078e-01
1.469712809605475679e-01
1.551161053591686434e-01
1.985092201885891305e-01
1.247307279290912618e-01
1.155425886767122295e-01
1.076562157924795399e-01
1.269391681841166575e-01
4.595303415499099597e-02
9.989554900544420080e-02
1.247200935189757692e-01
7.689432989115344008e-02
9.270548845119348791e-02
1.448644895470847516e-01
8.608307758627564699e-02
3.592226077684328167e-03
2.320150920350725482e-02
5.280286657291152069e-02
3.116889089196086399e-02
5.346054651929665891e-02
3.672975291856898916e-02
7.589671681475122778e-02
3.667713647934139898e-03
2.582636586141323631e-02
3.436753498978965815e-02
3.404024075077534406e-02
2.432718342535508671e-02
-5.613638725834823456e-02
1.514214369765056606e-02
4.725164827859361372e-03
3.193773881939004217e-02
2.463119035099944898e-02
7.254196637890085453e-03
6.667333239323829097e-03
3.524135314700838767e-02
2.672679445609450755e-02
-1.827167083894333521e-03
5.211326553144956381e-02
-3.311876494409461691e-02
-5.172575960318913368e-02
-1.824795942656518705e-02
-3.077314962588205763e-02
-9.503584627477053293e-02
-4.204961928046765940e-02
-1.346422273838415035e-02
-2.670235661468721086e-02
-4.934642814568834801e-02
-2.578029859238933214e-02
-2.426681370004513810e-02
-7.332058073124730901e-03
-4.877580280845016797e-02
-3.987444678059587355e-03
-6.352519988234148207e-02
-4.644473676139866669e-02
1.914991340167475353e-02
-6.295559082893380232e-02
-5.236835851717458468e-02
-7.051503128568334389e-02
-5.800968273333960423e-02
-2.926754353999009087e-02
-1.240855901474748751e-02
-3.431264619207429617e-02
-4.360754600940101172e-02
-7.123021608057097942e-02
-5.580971694854790222e-02
-8.039590653114471464e-02
-1.190857322044399161e-02
-9.786160220392178810e-03
-3.511788236536519253e-02
-2.057042344083607338e-02
-7.409809237170772445e-03
-3.051624018345240955e-02
8.428059288929548587e-03
-6.389254923989862167e-02
-4.340640054303160356e-02
-4.671288944561868828e-02
-1.296190108036160069e-02
-7.506254717972965507e-02
1.178462003215966641e-02
-1.437037638877684473e-02
2.176851640511948127e-02
-3.141632377526071274e-02
-4.610362581963619449e-02
-9.204935350377405068e-03
2.752928514583044550e-03
-4.875643302952034630e-02
-8.631686114099704210e-02
-8.013845277183032079e-02
-1.635738456883998465e-02
2.328121107211356122e-02
-6.054216966481353046e-02
-2.813727679673280746e-02
-2.871548456886218945e-02
4.122201526522983883e-02
5.340866873763318312e-02
6.062920336273348865e-04
1.722964757132977587e-02
1.901252783731961771e-02
-4.267925515746061327e-02
1.972244853533979686e-02
-2.856844459891169988e-02
3.456282781299988005e-04
4.337508631253268743e-02
1.551972598954086749e-02
5.028861828686766178e-02
6.052007296544760495e-02
-2.664047206851921298e-02
-3.455345252482662499e-02
7.051947660629991066e-02
7.675922073391705514e-02
5.354503765163558249e-02
6.287973857106747555e-02
8.324980091995382026e-02
8.808540333685112300e-02
5.814027084216198682e-02
1.013379874598480390e-01
6.761340496862069949e-02
9.057070065788444535e-02
9.439493174893631711e-02
6.757628773822085821e-02
7.583175987337462121e-02
1.696654147224804787e-01
8.012840784663112503e-02
1.219134851069938463e-01
1.317923152143797294e-01
1.159791402095825680e-01
1.405543259089447050e-01
1.326567693797404690e-01
9.861243447123854700e-02
1.422988420876996341e-01
1.108615694626855636e-01
1.799646313810424614e-01
1.407006316499100906e-01
1.064616119651772275e-01
1.369589516394309481e-01
9.779460174663476280e-02
1.318072889391457281e-01
1.155985236175528785e-01
9.572385564553019532e-02
9.350587387385131399e-02
1.900651710986341891e-01
1.184696573545156312e-01
1.021334380260732755e-01
9.726394765133165865e-02
1.312238635569863421e-01
1.014111405522743203e-01
9.351690296200176888e-02
1.340557710063242647e-01
1.460028885862489356e-01
1.510105448895006364e-01
1.578928693841798181e-01
1.994112308449185189e-01
2.294871353842398154e-01
2.640872769457566771e-01
3.359376214680143136e-01
4.462575594091036657e-01
4.774737618372881798e-01
5.594281980017156153e-01
5.524241479213661821e-01
6.913035322440932440e-01
7.211776387657722331e-01
8.170218148855052931e-01
8.718884273560618681e-01
9.140072022789557105e-01
1.005223897894349516e+00
1.048589073424109008e+00
1.020588564386366803e+00
1.097169211961000812e+00
1.140911856968851223e+00
1.122935103494526521e+00
1.114584928169239486e+00
1.050404054706781443e+00
1.040695977246992365e+00
9.793083121415802061e-01
9.162750198583935468e-01
8.352808146655464894e-01
8.117154698158061121e-01
7.208094002965166336e-01
6.436468837360529438e-01
6.253105411303154781e-01
5.087367029012475061e-01
4.658591722594105367e-01
3.789237418911439725e-01
3.072459496522452205e-01
2.397107171999476594e-01
2.389535460016381507e-01
1.184276792565257530e-01
1.791496665254748155e-01
1.586044850909008319e-01
1.257278440369031247e-01
1.169279924477391042e-01
7.332622820824331866e-02
1.467238457191531731e-01
9.192509218694812356e-02
7.187763295729110435e-02
1.180707533419468602e-01
1.070822599723258300e-01
9.608207851232461461e-02
9.678790121758759635e-02
1.150287138997229397e-01
1.605216533695827397e-01
1.395242466118566949e-01
1.299449681607082741e-01
1.622659792003180446e-01
1.433542211712885150e-01
1.604843121764681080e-01
1.589181347838451164e-01
1.780301006825912025e-01
1.529433544075682327e-01
1.379724937766071691e-01
2.051747416090918263e-01
2.288435810273733995e-01
1.565549486910752519e-01
2.001748636812059889e-01
1.866641440644954408e-01
2.317958918622130826e-01
2.176695095550374159e-01
3.148629114694699860e-01
2.105395879813271864e-01
2.700033642178640281e-01
2.769673345784959828e-01
2.477065074917848830e-01
2.362930866390754447e-01
2.412060993908183848e-01
2.415335637717207218e-01
2.777678498004833574e-01
2.197964315628449516e-01
2.430094945696835151e-01
2.408868066199794378e-01
1.987243369896093681e-01
2.770758747708174097e-01
2.836323561093882506e-01
2.327918459416966623e-01
2.824340395762585110e-01
2.033723815494759557e-01
2.505970688636172117e-01
2.447366934090884627e-01
2.494595234886994584e-01
2.472709790128258256e-01
2.401256072486642190e-01
2.281316086141065846e-01
2.335295274483802086e-01
2.744246372783240573e-01
2.126295730121393890e-01
2.938557494950809756e-01
2.031025569745334713e-01
2.250957505957159044e-01
2.305588314776937653e-01
2.000089511317243163e-01
2.454003956739623238e-01
2.153014352771376594e-01
1.876803052490841339e-01
2.297333802744201958e-01
1.528035108234643835e-01
1.609001884634924939e-01
1.892804107300386784e-01
1.909462766527221245e-01
1.710580629779092365e-01
1.520361099444934860e-01
1.427929774275593089e-01
1.787906004290544248e-01
1.466156924319558519e-01
1.078493224576231729e-01
1.008028889624295876e-01
1.688707085366788763e-01
9.676603164027389181e-02
1.214786403652135388e-01
1.489072971149562330e-01
1.198510615890381603e-01
7.619845330135306682e-02
6.393576127826694488e-02
1.461269488660107418e-01
5.456885810918400692e-02
6.513303637617531838e-02
8.899049849634355080e-02
6.749256258602442937e-02
8.767733020774617914e-02
2.299570952534775448e-02
5.744401575018846795e-02
8.097451199098816554e-02
7.812329435885384532e-02
3.772224602812411509e-02
2.160433266917109046e-02
5.617894051571055425e-02
8.054349906998129957e-03
8.376206167840574701e-02
4.790288526801562280e-02
2.035956434269865431e-02
7.844177487864634896e-03
1.883006021113343281e-02
-1.057133759740833817e-02
4.971204371705212344e-02
9.477468591628991634e-03
4.435416668212403823e-02
4.739331431993965005e-02
5.924642241989679786e-02
3.691303325155799453e-02
6.229225355163793554e-02
6.937774900140084022e-02
3.487690015222866952e-02
3.609438410978812323e-02
9.290139153592984894e-03
-4.075336544954261120e-03
6.361381867721176142e-02
4.297723702256295297e-02
4.511454217214639489e-02
6.540981770908137205e-03
7.277704272406394781e-02
1.703953879987296291e-02
-2.801338524700512644e-04
6.477953500517446769e-03
7.077061527681921538e-02
-9.718367980573426601e-03
1.087262516913753418e-03
1.106122409286559721e-01
5.195102475126539554e-02
1.817129332394449431e-03
-8.520322708730713318e-03
-2.611839741358321781e-02
2.714060005844733461e-02
4.625817574895459139e-02
7.019853592907387974e-02
-3.193992381057732255e-02
-1.460710733521488475e-02
2.187460684555393373e-02
1.094328235682693745e-01
5.275951625442281551e-02
3.778813979312860283e-02
-9.675430402156702525e-03
-3.600769484879499938e-02
2.933403185110919006e-02
2.582746780848875490e-02
2.148452358887655705e-02
1.889357007945141262e-02
8.729449326578819779e-03
2.818522667851618146e-03
7.490402803620213601e-02
7.806743628336412083e-03
2.742459804363102382e-02
3.597591504334199386e-02
5.991893270239360969e-02
1.491122080402406194e-02
7.170729739932152347e-02
2.704779270439270147e-02
4.183620888371167995e-02
9.843298021438884327e-02
2.270951537215129545e-02
7.626600741920044890e-02
8.784135177197480160e-02
7.027965031716440492e-02
6.095411926561790372e-02
1.319662285825018433e-01
7.171042395643847933e-02
8.238986649020532682e-02
7.051744442996832340e-02
8.968549725145814888e-02
1.187977514305831872e-01
8.650196569529515489e-02
3.653928320692013954e-02
1.203620094482490410e-01
7.786582496078914284e-02
1.378072195421028434e-01
1.208906649611745515e-01
1.546155363971633279e-01
1.032420968342728229e-01
1.209484148402863724e-01
1.320219870423261499e-01
1.028399833012408893e-01
1.855653668840502868e-01
1.081649547158043401e-01
1.943047425083614388e-01
1.782911698111249998e-01
1.634483367886540583e-01
1.832715596701097183e-01
1.855724941915728454e-01
1.667422785278373787e-01
1.899838821025668367e-01
2.048108259448094270e-01
1.559096969189563697e-01
1.955430360999171335e-01
1.068067642995048638e-01
1.276883984196195421e-01
2.020503851150309838e-01
1.717054058093521463e-01
1.573934135639765419e-01
1.798527111226681241e-01
1.677834233361811533e-01
1.481003697228204241e-01
1.266996406943167175e-01
1.151300348063615808e-01
1.950529383720036591e-01
1.596102455819244370e-01
2.017779854078031732e-01
1.615196557256243226e-01
1.888135662068699538e-01
1.804453915863923064e-01
1.945392801564551077e-01
2.085728214844707606e-01
2.092103250063386821e-01
2.073588590441429735e-01
2.943646001186179251e-01
3.523027184022712310e-01
3.937504445622108662e-01
3.734059527596333972e-01
4.205404000594775704e-01
4.846007686049502161e-01
5.601466955177992757e-01
6.325315818739262186e-01
6.759900935298626123e-01
7.348250678502443733e-01
8.535282335867993009e-01
8.163146505149430077e-01
9.845484692692956230e-01
1.017483507665385423e+00
1.118310344301123305e+00
1.164396284624082289e+00
1.190672967913611213e+00
1.160199643260308555e+00
1.134589479874590134e+00
1.128308052938483463e+00
1.132135319648335914e+00
1.032669956147921342e+00
1.071727154531162407e+00
9.591136119003162985e-01
9.165169809447342164e-01
7.761536128258916811e-01
7.277327495012715364e-01
6.241933936047336928e-01
6.396786302458900009e-01
5.353540399652052528e-01
4.931400113429671994e-01
4.194093137905163249e-01
3.793357328190426481e-01
3.094899445636023483e-01
2.744085639779881847e-01
2.450201531296070656e-01
2.331644677409724919e-01
2.126372718564586151e-01
2.675651700455973780e-01
2.214731982655874232e-01
1.091086768922626682e-01
1.526865197390779305e-01
1.418399850307403565e-01
1.915129193829592236e-01
1.443733406794214802e-01
1.698089084495365275e-01
8.881331090156295571e-02
1.173390743254100477e-01
2.299281322101279779e-01
1.735217537692221590e-01
1.472431651072759196e-01
1.899031926728651232e-01
1.566127998891758133e-01
1.854030394353526345e-01
1.560933539599830833e-01
1.818096088858319748e-01
1.987815352107439870e-01
2.506672212124723131e-01
2.366922129297883426e-01
2.475786160255778745e-01
2.332078075253270488e-01
2.641101435247186213e-01
2.185281184327151349e-01
2.279073239331836365e-01
2.670976169020055635e-01
2.512846632112822887e-01
2.638224707185072293e-01
2.636644356297538905e-01
3.102975401741828732e-01
3.157048071584694360e-01
2.613207396738576049e-01
2.305860430743713052e-01
2.650092282148218681e-01
2.621007842760548212e-01
3.162900166987872019e-01
3.209433937841628670e-01
2.640418589303181740e-01
2.736324995729324527e-01
2.528335343355391784e-01
3.018103683553309269e-01
2.966433985384514527e-01
3.215125429076610697e-01
3.122379056081731052e-01
3.147547494354073772e-01
2.489569939242716468e-01
2.748449790603578191e-01
3.201757859003250273e-01
2.732906142008109107e-01
2.380347704128026320e-01
3.082012947993202912e-01
2.634419457661049679e-01
3.091492715903168542e-01
2.729545559156797419e-01
2.611693525213699130e-01
3.061190724561383414e-01
2.216566548484950328e-01
2.990692150547002437e-01
2.319796454441975242e-01
2.509792515099499854e-01
2.460595408261987693e-01
2.227560865175495231e-01
2.072580729904348606e-01
2.134845768739175309e-01
1.885249819405668270e-01
2.721466699032176750e-01
1.931414408005544259e-01
2.366105356728582798e-01
2.269204316628320450e-01
2.012691573221250807e-01
1.806156368749948782e-01
1.848479895813005536e-01
1.906061852768658471e-01
1.709331229130895413e-01
1.154784820013414481e-01
1.025889573644610114e-01
1.971713551207900372e-01
6.773940572977335539e-02
1.476548565602036345e-01
1.298704926980511487e-01
1.370181705958193885e-01
9.341397477261290105e-02
1.337015113335719985e-01
1.250831798597402122e-01
1.976108717215604438e-01
1.147162821078088757e-01
1.474602139301693926e-01
5.840941346240908355e-02
1.304901128192489379e-01
1.033523979197772391e-01
1.014915846561634805e-01
9.889801315182480956e-02
1.387264439788570280e-01
9.248561070211440416e-02
5.875243074753576378e-02
6.138523064816656799e-02
1.021040404204530128e-01
8.887590837019794521e-02
2.753063694165960862e-02
8.700247563600910228e-02
3.733214786409976699e-02
8.130512446989215936e-02
4.245636972928948372e-02
5.674962641800818108e-02
4.752122897089680609e-02
1.081994563569348283e-01
7.354418117357537643e-02
9.826391534161413310e-02
1.463088726793485561e-01
5.995404169908362391e-02
1.027777493927932301e-01
3.596883079334650679e-02
9.389528415712028453e-02
3.137797054039888345e-02
5.445899858825352380e-02
7.057619145159638174e-02
7.480188559208991728e-02
1.534687166095236033e-02
2.710155892528067975e-02
7.108201507599862246e-02
4.136823600741048462e-02
1.017310123624319551e-02
4.968862560944570933e-02
4.800192039441959768e-02
5.665892552431821272e-02
6.703520390575067045e-02
6.495918969597913595e-02
2.780078559809594924e-02
3.840189450992745335e-02
7.846578270443899106e-02
3.426710291898329291e-02
3.866652894642930161e-02
5.375370376801739958e-03
4.965654595359421386e-02
6.092029601584008497e-02
-8.622838309586690342e-03
1.865216076234356771e-02
8.267432477533670498e-03
7.477581990245246724e-02
-5.987790410540323738e-03
4.933692709015514294e-02
7.361159419767566991e-02
5.815912304819635670e-02
3.985246452421550845e-02
6.405813378811189840e-02
8.548088405176954008e-02
5.195481278183754908e-02
-1.106005165919215355e-02
9.158828415661070255e-02
7.034596016778250915e-02
5.867122672637266334e-02
1.731934339202198525e-03
5.383763285195297676e-02
3.834044739461346663e-02
3.011768057916364844e-02
6.470594631327851454e-02
5.511362190034449493e-02
5.968931905032016927e-02
9.879245863555261020e-02
8.729763759797835865e-02
6.800913525808160998e-02
6.766439598151559320e-02
7.636607456650831849e-02
8.647441206638904754e-02
1.155076125783737195e-01
7.098993318220864213e-02
1.504797471688970878e-01
1.288927806909950791e-01
3.397910825932938528e-02
1.235671588851429969e-01
1.572161969945165549e-01
1.427129216306810000e-01
1.237793996367386601e-01
1.394226996725134171e-01
1.516845099124254914e-01
1.744396792106164829e-01
1.138167232894296554e-01
1.428988907765804395e-01
2.148105474545177196e-01
1.710309648532369886e-01
2.200168963964432012e-01
2.675964110782448890e-01
1.667931893233463581e-01
1.488058767802052929e-01
1.795434453558646115e-01
2.228531396567643985e-01
2.289911451077984994e-01
2.614740489747942598e-01
1.932385033322779611e-01
2.095438429032412953e-01
1.736411599439055820e-01
1.194187427822797631e-01
1.926337497468689763e-01
1.579974970300128678e-01
2.103343655456307859e-01
1.327145042406762121e-01
1.648819115214283093e-01
1.928908688283572648e-01
1.938649417208359593e-01
1.793197980749252074e-01
2.352530782729065906e-01
2.255248656673266294e-01
1.581738443085616286e-01
2.287022264298169960e-01
2.369200491101469686e-01
1.864164004036949485e-01
2.006042741859835887e-01
2.104849090197299932e-01
2.097242882892255689e-01
2.347145982723896629e-01
3.182103606418903996e-01
3.253352436327561770e-01
3.355679962575360276e-01
3.709535836574689438e-01
4.290060929317871530e-01
5.059486823734445915e-01
6.027685472515675880e-01
6.184238859239569175e-01
7.430809828051129218e-01
7.949843297765134542e-01
8.656772113847809313e-01
9.615954581540125945e-01
1.020420595947288067e+00
1.009933142256145500e+00
1.067077927747359656e+00
1.129022108854345952e+00
1.170252232155134520e+00
1.210575224706506248e+00
1.167625315759125870e+00
1.198916150234283329e+00
1.095506775859494741e+00
1.057428030822324283e+00
1.010785605887918992e+00
9.333278733696436236e-01
9.241534850820959379e-01
7.336838774521715623e-01
7.271765464975789017e-01
7.024150257429772060e-01
5.863254741569567940e-01
5.592213700022011791e-01
5.291624326859563077e-01
4.075977532135738324e-01
3.885287710223360169e-01
3.808821664179400934e-01
2.817731486050014666e-01
2.359872185898034269e-01
2.381310804808159931e-01
2.255980852580810048e-01
1.727174833396216691e-01
1.473562659932128038e-01
2.049533122022015874e-01
1.398669438744825355e-01
1.808189996750586004e-01
1.519164403459199175e-01
1.994617097774800674e-01
1.210633831723804954e-01
1.238667352557492884e-01
1.786441904671886849e-01
1.232834253202331753e-01
1.653038752231769104e-01
2.131842018267129935e-01
1.183421621901941112e-01
1.892667229614840574e-01
2.189768633617083793e-01
1.873326904921838731e-01
1.658105581389997529e-01
1.912564205432712716e-01
1.794618414910021942e-01
2.121224399733400712e-01
2.071019269004441554e-01
2.052645562113659117e-01
2.397894144492818402e-01
2.781844211273616363e-01
2.454953139832736775e-01
2.806450214500065266e-01
2.921801055377541423e-01
2.314842085829501017e-01
2.613673965673017907e-01
2.441646964051579494e-01
2.159768354917908917e-01
2.743651074626631825e-01
2.350859776965928405e-01
2.838322306527646388e-01
2.249619329448452609e-01
2.787749325417888668e-01
2.281923176617382532e-01
2.968536817254199822e-01
2.658074515444663888e-01
2.635287758931496027e-01
3.122704811399080183e-01
2.687180590315844109e-01
2.812172179770934255e-01
2.710974397688230564e-01
2.910825267883149770e-01
3.055987535349745654e-01
2.974797443493091276e-01
2.561687978370050245e-01
3.038650387264593689e-01
2.372045274880762444e-01
2.392100684256713017e-01
2.541405460979175301e-01
2.855828989266349094e-01
2.150076539730799152e-01
2.725346739096766724e-01
2.395868024770082261e-01
2.234345723139908313e-01
2.643942136160491452e-01
2.022076951903941378e-01
2.895188961233215452e-01
2.101620392157123041e-01
2.143401511732373199e-01
2.504056468534521240e-01
2.035789532496447007e-01
2.280774587607340420e-01
1.278732340469352080e-01
1.672110560651969557e-01
1.863939848044910141e-01
2.009366613678077729e-01
1.856026424930397323e-01
1.768416645095972350e-01
1.824876569756831435e-01
1.590621484358190896e-01
7.474537711204046198e-02
1.766224177266357276e-01
1.026393232478481077e-01
1.316989999921975296e-01
1.223589165290135256e-01
1.131132224571213679e-01
7.341046469655157503e-02
4.346945847928528062e-02
6.674339685198345251e-02
1.169370861262592903e-01
4.424092596000613054e-02
5.687822428265408570e-02
9.163464931463691232e-02
4.423793056113776989e-02
5.489801102879982020e-02
6.993407770964242542e-02
7.240903599326807549e-02
2.912217984093623188e-02
6.153329993018084865e-02
6.619100602213968954e-02
1.310097366088118151e-02
5.496173882237663511e-02
2.438243710131642386e-02
4.710076765858861592e-02
6.271455054294458598e-02
3.350413651838690665e-02
6.409013935510417259e-02
5.842895155576757760e-02
6.007231503088153457e-02
4.317448937471385362e-02
6.245371853673375301e-02
3.943367700040090185e-02
-2.359142722004422404e-02
1.300221786919287387e-03
1.744599336751422730e-02
1.996890273924717407e-02
3.219541413495644738e-02
-3.796493860001488169e-03
7.968883226919698526e-02
1.543174434447457458e-02
1.741109680448500729e-02
-3.290094238685831868e-03
-1.402756178013870800e-02
1.157323921677435793e-02
1.552142158260194985e-02
1.146128724913757224e-02
6.313475568364099177e-02
9.138081151861359580e-03
9.830101502187727977e-03
3.637877858649731649e-02
6.329449444792878757e-03
2.721122916657710278e-02
-2.774368144268547776e-02
-2.788393691598381116e-02
1.356052335131313798e-02
2.624081143107029161e-03
-1.499860367643572785e-02
1.265351638633354855e-02
1.502410349444111871e-02
-1.276390199817272267e-02
-7.218281389935009631e-03
1.468976999668207203e-02
-2.255939006511101241e-02
-1.012686706428979691e-02
2.397680943592538083e-02
7.256385780707282421e-03
-6.278642613784966506e-03
-1.892960133814193535e-02
-2.204336259522147665e-02
4.663288205860219304e-03
6.973338179753076072e-02
2.636391052128227858e-02
-3.006735330701918590e-02
3.176946820141993144e-02
-1.146345248729072758e-02
1.203328413510420386e-02
-4.475073595097651263e-03
7.503131232303537901e-02
-1.836016831784266501e-02
2.655244554771939158e-02
-1.758222266112337718e-03
4.280943279507572197e-02
3.148554942555192859e-02
6.255773527802831191e-02
4.891226576081337402e-02
9.223744417303801624e-03
1.203938052655240537e-01
5.266706511145814035e-02
2.279914751324851191e-02
4.901543063353924062e-02
6.551478401375611382e-02
6.831673663290255272e-02
6.954890352279667620e-02
8.797630517857962795e-02
8.950302888289814185e-02
4.264995308802098373e-02
1.360583619579245618e-01
1.367188730498722637e-01
1.065846148665428733e-01
8.865764359487929291e-02
9.411948167784418839e-02
8.764669943928113383e-02
9.637924775314928028e-02
4.135543509066642864e-02
1.574739656730305970e-01
1.513172148095059399e-01
6.990274342810552655e-02
1.508574038481519108e-01
1.275891780412790055e-01
1.251860921674430027e-01
1.489215553368495870e-01
8.444441044269190844e-02
1.385695711891510584e-01
1.430363281946278597e-01
1.443592754925174804e-01
1.017527555507003467e-01
1.565491205226812454e-01
1.748348991534660335e-01
1.547042270835086442e-01
1.346178835436408761e-01
2.207717328784713773e-01
1.106149459987762207e-01
1.595168755175505604e-01
1.413689154422870797e-01
1.921073306891644128e-01
1.410638719784004513e-01
1.454611536644021264e-01
1.410363565868560931e-01
9.331122051303891718e-02
9.929173426191925667e-02
1.188935727452977015e-01
1.596709573195690957e-01
1.442436238456276110e-01
1.404552475340266893e-01
2.009655186874703681e-01
1.178529320754117399e-01
1.609974339262277565e-01
1.531245876811455631e-01
2.985136955905499101e-01
3.000338179271942463e-01
3.791610378228894573e-01
4.005791683938915160e-01
4.942693245049341044e-01
5.247738790269800280e-01
6.100692002585995644e-01
6.776318307950739417e-01
7.528272849582294812e-01
8.652240186196823446e-01
8.347775423206083012e-01
9.448819409090043475e-01
1.008684505537226439e+00
1.050349999038145077e+00
1.071705868637681691e+00
1.089555913747037197e+00
1.159771976799783166e+00
1.105981336485397870e+00
1.161624406329528902e+00
1.071606712446778076e+00
1.002464490388655705e+00
9.729053284133104551e-01
8.965071196747302906e-01
8.643246647382665238e-01
7.160157428259827928e-01
6.223573946868322659e-01
6.129909610329516978e-01
5.552523799981088359e-01
4.705639989371772081e-01
4.189538830062939367e-01
3.571807540886485777e-01
2.460122084347425853e-01
2.544536067654480926e-01
2.476501779190104224e-01
1.817060138428442939e-01
1.115124970061248388e-01
1.203721358849928202e-01
1.313896971252299095e-01
1.569602564892335905e-01
3.630432679969063103e-02
1.006631990978712615e-01
5.910041814685118577e-02
1.014891502807919177e-01
1.046386123345443564e-01
8.197936507897782277e-02
1.108421839883979437e-01
1.297405124188297509e-01
9.480851368648568478e-02
6.424652189911161937e-02
1.520492567867193223e-01
1.392841716638117677e-01
1.366317002018503091e-01
1.043879237327772908e-01
1.601381507478211175e-01
1.973315369208322179e-01
1.378991133432357630e-01
1.498227426266035556e-01
1.204279291627628340e-01
1.361170405647926795e-01
1.306886759552934596e-01
1.719552341325045752e-01
1.627743882687782695e-01
1.889918490317848421e-01
1.556846959791203522e-01
1.818540648572448126e-01
1.625007608265658932e-01
2.007296162147654828e-01
1.498810829775281683e-01
2.068832094960900703e-01
1.971805857169263987e-01
2.138855117746850387e-01
1.614971107643407566e-01
2.329976744459765492e-01
2.063569878860923856e-01
2.234584449853605215e-01
1.621234852643209379e-01
1.818728244281982709e-01
2.080228698109269914e-01
2.612053734871376265e-01
2.356097901174836751e-01
2.231773652078672399e-01
1.906808726218331973e-01
1.839936346703167636e-01
2.238996350561437698e-01
2.346919675963523022e-01
2.176721875511099247e-01
2.600905939782293119e-01
1.854104017494930534e-01
2.080366968672950345e-01
1.483353796544490122e-01
2.016545078378177702e-01
2.353291953193896169e-01
1.556756787065975423e-01
2.076224907691508748e-01
2.208092524769785792e-01
1.519059585547901381e-01
1.814429021776171047e-01
2.094977988859381135e-01
1.635529205336403724e-01
1.746446630586586946e-01
9.212306635947328792e-02
1.574667261780006156e-01
1.492123567783211757e-01
8.800142771530351793e-02
9.291852897276681178e-02
1.340146515643834135e-01
1.008620660994157398e-01
1.373693790359608313e-01
1.074354658056630996e-01
9.395925552467665476e-02
8.136759505903402856e-02
8.955372961175500635e-02
9.924242554669344962e-02
8.565148343445309898e-02
5.153790393707248507e-02
9.612357258049740449e-02
7.351210962340111454e-02
6.031509938072401183e-02
4.662826663324791399e-02
5.414611525348815568e-02
-2.038584371501896142e-02
3.738002600738316722e-02
7.508162240857005343e-02
2.837228533179212558e-02
2.033592088742025572e-02
-3.823196624880578764e-03
2.521943537533073709e-02
1.131298533744315438e-03
4.296852979884815960e-02
-2.535505850300054029e-02
-1.599624447397847080e-02
-2.328176931475304037e-02
4.710242079460119635e-02
-1.616249290784952178e-02
-2.930563366545425874e-02
-7.783858466013166000e-02
-4.458765670234698941e-02
-3.408845255064137103e-03
-5.406139880025487288e-03
-4.241872254329639991e-02
-4.240084496647608669e-02
2.972293153145830202e-02
5.337751327982438038e-02
5.634850040101280211e-03
1.666679024942256671e-02
2.186406560512622888e-02
3.407269154094957897e-02
-4.243147298214363511e-02
-6.065887628382050228e-02
1.982419933217553776e-02
-6.491569266845306774e-02
-6.759193267164126384e-02
-6.759494926185208308e-02
-4.200801337685923509e-02
-9.818942796384133587e-02
-8.219851118306709115e-02
-5.838051849616587852e-02
-7.605405071226717384e-02
-8.733195872882563993e-03
-4.080093991829537858e-02
-2.405212776954663775e-02
-2.766855257497114612e-02
-4.820001620988578067e-02
-1.262705358579903001e-02
-2.895334877884458979e-02
-5.228965583357536584e-02
-9.344799634501604890e-02
-2.747693466640513393e-02
-8.107405597654326890e-02
-3.193594429502775306e-02
-4.105697247709609587e-02
-8.428163074428096646e-02
-3.573084105036538477e-02
-3.771765769449997308e-02
-3.754207621862617333e-02
-3.886854455008991599e-02
-6.268807592222049030e-02
-2.515090265113126278e-02
-6.325049907788948822e-02
-7.451262793096008474e-02
-2.161531080435110871e-02
-1.325850028375758632e-02
-2.257201005601827681e-02
-4.628100785908825093e-02
-9.744777630847836769e-02
6.106471486569585438e-03
-9.594939592693620123e-02
-1.852848061885060266e-02
2.853162979625472467e-02
-2.879766128597886082e-02
-2.288177331481260068e-02
-1.839743678746468686e-02
-2.180233796872283261e-02
4.499721615864022556e-02
-4.838600376513797763e-02
-4.951244953439110780e-02
-2.742008764861093850e-02
3.770394224490528773e-02
-2.853339603153739329e-02
5.194930088079710573e-03
2.814551225241082588e-02
2.332476924630816351e-02
3.464010271503972782e-02
5.097183728861687940e-02
2.219151761658111344e-02
3.906671526271651707e-03
2.684986788872970043e-02
1.719587263333047233e-02
1.080418172764159856e-01
2.150885268219653035e-02
5.711100796319553558e-02
2.721148063695305597e-03
5.682936984786562257e-02
4.926044590680780932e-02
8.306641607977682806e-02
8.862607134261740738e-02
1.146779326790023645e-01
1.166682342210225987e-01
7.866646044336485233e-02
5.614369847238282613e-02
6.315282333487534649e-02
1.001782295052817684e-01
9.857039822439628285e-02
1.039008721600291479e-01
8.200061933104288436e-02
1.426103598000185713e-01
5.628984333260792644e-02
8.326700898176850330e-02
6.871482378748658415e-02
9.435392378754384191e-02
1.371849228539916976e-01
8.992383116690538802e-02
1.000219062687378035e-01
1.150458664800443065e-01
8.300969370802635527e-02
1.024255437266263224e-01
9.642459522067758915e-02
5.320127396196615982e-02
7.192580193223682694e-02
9.602000254847710414e-02
1.245238991808299833e-01
1.267351428176420880e-01
1.554447278608164229e-01
1.140124479390381695e-01
9.709955180057533441e-02
1.214462162437880965e-01
1.382818648434954445e-01
1.528844408272505562e-01
2.057066437176100770e-01
2.423424168853559602e-01
2.359437543372162605e-01
3.520669148608798205e-01
3.189978597396404547e-01
4.280677620072643741e-01
5.350335515708143364e-01
5.886238960648612073e-01
6.321034412376920208e-01
7.750715356013038182e-01
7.747574453955293761e-01
7.964240926765445705e-01
9.329088145812732824e-01
9.209431279450485119e-01
9.944399973186685004e-01
1.071545670983896192e+00
1.059595459641881954e+00
1.097643819270335497e+00
1.038238874047874516e+00
1.077706765701204272e+00
9.672103800368190285e-01
1.011789747790252436e+00
9.022641774780046919e-01
8.987548794119976092e-01
7.580852924171894713e-01
7.679564611126591389e-01
6.070219951831943295e-01
5.081331632657278830e-01
4.919012333160317496e-01
4.602358577087634628e-01
3.846595820903969676e-01
3.394723878576493825e-01
2.789577660511157742e-01
1.866868776817136588e-01
1.974574550177239096e-01
1.466523885055242282e-01
9.777016598495788524e-02
1.048861057829787863e-01
8.290722948119499947e-02
1.161988826504840866e-01
5.082246027398482080e-02
4.483224149877521048e-02
3.848368974882424021e-02
1.160096195629145566e-01
4.099730181063206136e-02
1.015447337034782738e-01
3.498090513746904273e-02
8.511001302458379159e-02
8.230973181161274632e-02
1.163581689522796281e-01
1.172253517405906081e-01
9.245973349814606834e-02
7.946781007506160954e-02
1.500032324495231273e-01
8.787652255928005141e-02
4.470609366426130105e-02
6.272692056845874387e-02
7.574559202958180970e-02
1.477258033901629741e-01
2.018683839930102142e-01
7.971580225426178057e-02
1.227986922485884563e-01
1.541673819207987906e-01
2.029241715534714219e-01
1.378052324074367507e-01
1.838552069667358235e-01
1.631017957495365656e-01
2.530605520336967063e-01
1.831743823297914964e-01
1.932366291959607407e-01
1.885417786525319661e-01
1.767278853828342655e-01
2.205124141153179673e-01
1.597749892136074990e-01
1.366877106260328545e-01
1.941036659187884983e-01
2.245938042049071548e-01
1.838692135049614373e-01
2.076963860536993889e-01
1.659302745114886180e-01
2.345192910634621430e-01
2.219236058468173900e-01
2.023253298506144104e-01
2.058058816336419405e-01
1.575952308775582789e-01
1.572483408035730834e-01
1.920298232456416065e-01
2.087468423982946630e-01
2.075925758568642754e-01
1.767924839806622739e-01
2.067667540795518899e-01
2.234737041925934919e-01
1.743690608075553483e-01
1.822485467622070587e-01
1.624196210898340986e-01
1.603470742037017005e-01
1.645065212390028342e-01
2.056215221430215401e-01
1.769252666990943912e-01
1.690242028667550134e-01
1.253354356912672884e-01
1.065779214106510331e-01
1.397000320410372587e-01
1.597511827256882788e-01
1.685182803983939770e-01
3.758482917955593278e-02
1.788913648790830535e-01
1.123499950740358688e-01
1.214701378010015209e-01
3.640246255805853343e-02
7.594365627106190730e-02
1.022517359848736651e-01
3.691781288452185977e-02
-1.980452178017680365e-02
7.169638695071886558e-02
5.503623468436509569e-02
9.478967327976900448e-02
4.190151158626400502e-02
3.938399497218256218e-02
5.834572969429878408e-02
6.399963374425707285e-02
7.463445660043921404e-03
5.294959337309249753e-02
5.010926282220662387e-03
1.736837115804074072e-02
3.336816956224443464e-02
3.513444561304666924e-02
1.602765184073094012e-02
-2.907904350185231551e-02
-5.575066768257277289e-02
-8.104577565669027206e-03
2.400486581027379968e-02
5.841412234711580720e-03
-2.755946003249139242e-03
-1.245065465893514800e-02
-5.049432202960710270e-03
-4.609203346399138451e-02
5.321074537402971372e-03
5.614796922743539587e-03
-3.200050985453071345e-02
-9.684284033656537227e-03
-7.563193244268251458e-02
-1.996908347290085942e-02
-3.049864932673853821e-02
1.023330324208374803e-02
-3.445124100292745045e-02
-3.294751108219695634e-03
-4.187190643918834582e-02
-9.942584697742481992e-02
-3.824364657258284145e-02
-2.614263305272601645e-02
-2.802533166208642096e-02
-2.801842239663829975e-02
-4.858228315488555965e-02
-4.344109853617175721e-02
-6.781253427409628110e-02
-9.416888347023717742e-02
-3.767150494205037670e-02
-5.700211368403590440e-02
-2.382993565410593262e-03
-1.003355941367039261e-01
-2.621148615567086421e-02
2.866697527363341880e-02
-4.046964509696749507e-02
-3.504540791644061154e-02
-2.212414606439057352e-02
-1.970385180895371444e-02
-4.699292160881982094e-02
-6.485793634202777214e-02
-1.487116408402435960e-02
-9.150964478117201706e-02
-9.085690148150457612e-03
-4.555892921538012147e-02
-3.343003157204128134e-02
-4.897057690516740114e-02
1.008582133205451759e-02
-2.496307035086796355e-02
-4.162795511754203287e-02
-4.195969019300706260e-02
-3.533253591586294623e-02
4.166327684605862502e-02
-6.903942725813397296e-02
3.760833972078055087e-03
-1.079003838967685161e-02
1.935369757901721222e-02
-6.866714870729997977e-03
-2.441681182690431939e-02
7.433225271158007408e-03
-1.478514669648708230e-02
2.609459514788546597e-03
2.460620732840844427e-02
-1.349602407489607775e-02
-2.685483383860372969e-02
-3.110060443954786383e-02
4.264038897456693539e-03
-3.285875287207130901e-02
-1.405882896533488038e-02
-2.942746129042857206e-02
1.823236343268782103e-02
-1.598043707083900838e-02
-2.819720949108539196e-02
-1.888272785743968021e-02
1.553071324808683040e-03
8.722865454254619816e-03
3.531137257255160394e-02
2.773059810722504348e-02
4.865864666416595125e-02
5.617621885734128129e-02
7.009690603856981450e-02
-4.038932738872531153e-03
2.475437733777360524e-02
8.062346684412478870e-02
7.572245572695601723e-02
1.040537595413224964e-01
3.371689774856494876e-02
7.096280294767161323e-02
8.135613367186050882e-02
1.000861524780328193e-01
1.007807492797396232e-01
1.181281615471712343e-01
1.046679571652112811e-01
1.529958594485663903e-01
1.659153128347189421e-01
8.460216669545951584e-02
1.220345705143712767e-01
1.467249627888381203e-01
1.419950962638742986e-01
1.133863700397487045e-01
1.339868492463509031e-01
7.909312757116655768e-02
1.258280324975368236e-01
8.197111671975160219e-02
1.400057049325003911e-01
8.993282670521535183e-02
1.266766534053146986e-01
1.295573132317921206e-01
1.203959146484292059e-01
9.739800732519224291e-02
1.085762853984353210e-01
1.493882359146703753e-01
1.011229838392441183e-01
1.156043930370369566e-01
1.009761107003251807e-01
1.531168587028911565e-01
1.323186074999579687e-01
1.178009115100455556e-01
1.555642695720152457e-01
1.672923467201515024e-01
2.406431063513022606e-01
2.276019509182013456e-01
2.237270204973020038e-01
3.229189931689665505e-01
4.108552767248739856e-01
4.488686444986260682e-01
4.414419556703129133e-01
5.330879167314251932e-01
6.107218319778563442e-01
6.839378222367786808e-01
7.693219254624170667e-01
8.194657119395419853e-01
8.705108033797730460e-01
9.887706760816229457e-01
9.806153041703254969e-01
1.034248100267688208e+00
1.056616830880693358e+00
1.128023550039451095e+00
1.118178069388105822e+00
1.132769090770877396e+00
1.060271392250026645e+00
1.010948011236659339e+00
9.884249591786182787e-01
9.397024388198469413e-01
8.871456816519679434e-01
7.605548556493870738e-01
7.522472237999655587e-01
6.368008516732367452e-01
5.708428382816141955e-01
5.547696439082671072e-01
3.874664511190684668e-01
4.012704220735348049e-01
3.457934420865639846e-01
2.627526228324007507e-01
2.315870720528744875e-01
2.458012044774078586e-01
2.384149294218220749e-01
1.875557892899119283e-01
1.934533025417113916e-01
1.019721124102749982e-01
6.509893176411078730e-02
1.040671805966189162e-01
1.257315017572639415e-01
4.417366173961944503e-02
7.210032082233948370e-02
7.697843694162807837e-02
1.148347683723763141e-01
1.145552587342818507e-01
8.874224844693598402e-02
1.221768193772362066e-01
8.760785868408102472e-02
1.146107758930830917e-01
9.511374411056645883e-02
1.343442764964679625e-01
1.207214102902225694e-01
1.713827175620478427e-01
1.558386605807981218e-01
1.557636177973412972e-01
2.215146547789532960e-01
1.858146834674550829e-01
1.690347159202214844e-01
1.682277874573337439e-01
1.558420537668230299e-01
1.946951271213500367e-01
2.111320677544274993e-01
1.495230102615075218e-01
1.708854975273085830e-01
2.009547310287048971e-01
1.878899418751863171e-01
2.262787346399064980e-01
2.343234981696361852e-01
2.287850261159525000e-01
2.522582927994651558e-01
2.211952511519837405e-01
2.400342046663741513e-01
2.136495631283950869e-01
2.542851381838555636e-01
2.496738065908784276e-01
2.127369177273953915e-01
2.449794464701126329e-01
2.490736963297584816e-01
2.588532751333640358e-01
2.598186326063489093e-01
2.281309813443414269e-01
2.718099960682291427e-01
2.633738694522038681e-01
2.243801356316705853e-01
2.099335120177202307e-01
2.225375470065660832e-01
1.952816384900565583e-01
2.428133578629547151e-01
2.689281283544829870e-01
2.726360304987917038e-01
1.936129345632126297e-01
2.459519941770378915e-01
2.207054768127344191e-01
1.419001252368363997e-01
1.992175722685930461e-01
1.911118203940257165e-01
2.358200854446236561e-01
1.682995089422413271e-01
2.061310767098090968e-01
1.807349385804753183e-01
1.351981132579307410e-01
1.565666573009175111e-01
2.135943925273605382e-01
1.569289042910639864e-01
1.837793778565064984e-01
1.766139581322692387e-01
1.321351776783068754e-01
1.016184359634848267e-01
1.001564959016453260e-01
1.729167376393284938e-01
1.286532196935103733e-01
6.691155426219458358e-02
1.388719019251812292e-01
5.528637919850377946e-02
7.926810857269131483e-02
1.017798520441738908e-01
1.703792514791914736e-01
1.148150880445793914e-01
7.157975855427396727e-02
8.276966948404118618e-02
1.055361834598330523e-01
1.167839662438126674e-01
6.304232823580799283e-02
6.041773971417720851e-02
3.874107615327596066e-02
8.042468616382190960e-02
8.823650197437460374e-02
-3.557457221044346002e-03
4.000074771634461179e-02
1.295673206438740892e-02
5.149265917761786104e-02
7.578960573931542086e-03
3.007626419706834614e-03
7.435031242101791671e-02
3.384364671773892191e-02
3.531016730474404591e-02
4.847804751314610527e-02
6.319145230317393946e-02
2.016263557675906232e-02
1.959351338022257555e-02
1.858730787830071424e-02
6.175958362885475977e-02
2.632881725184758187e-02
1.878696485118070553e-02
3.847737704283078763e-02
8.099735697988566518e-02
2.767143071635400076e-02
1.681211339620294551e-02
8.270306116349468439e-02
6.388548252866660393e-02
5.917122263292433348e-02
8.293779574499386686e-03
5.056697369925191796e-03
-3.219012859771284291e-02
5.160762413439724111e-02
2.483533040679664766e-02
-3.159894595703174880e-02
5.841991012304405262e-02
1.221306354345454148e-02
1.591067833726030056e-02
-2.302774728623163680e-02
3.718290958188008588e-02
3.755201667129431237e-02
2.116685500444619519e-02
1.019212488613385065e-02
1.016912550591180242e-01
-1.302031846994133879e-02
1.647358073813855878e-03
4.477535467204864228e-02
-6.639319913354653491e-03
-8.554980530108974301e-03
5.836783747961942631e-02
4.294588443055857852e-02
3.972257679193397922e-02
3.110615179749024600e-02
5.389236667564085981e-03
1.913099991683374357e-02
2.495705208259620111e-02
5.340143589207042851e-02
4.155101893407889269e-02
1.782854858802602332e-03
5.423815636086058711e-02
-1.876981347566868477e-02
2.311527775788064024e-02
-2.721370921757899908e-04
9.666439557895260132e-03
9.470643754531875291e-02
-5.532685802320802537e-03
1.585002964870044911e-02
5.774585731851972215e-02
3.052093225228764972e-02
5.166324389491535468e-02
9.245501721476978574e-02
7.198312181894066242e-02
4.126930154527007344e-02
5.451792295598734128e-02
7.786449796221109332e-02
8.463079988309105128e-02
7.005522187687963920e-02
8.431560845259414294e-02
8.861657355753407850e-02
7.947234313892445612e-02
6.873873394365712097e-02
1.140026423757390939e-01
1.054623011239450431e-01
3.939707176837018571e-02
8.228049949848771638e-02
9.794950844385211242e-02
1.117060682702354646e-01
1.592538078805942614e-01
2.245924599605823302e-01
6.010187192178893106e-02
1.482624521503696224e-01
1.463638282517317202e-01
1.438514291013028579e-01
1.703496322300305788e-01
1.631178199375614701e-01
1.520741111049569716e-01
1.677819916594580629e-01
1.872502803690831441e-01
1.876759424699379064e-01
1.823713740561764274e-01
1.616674989611525115e-01
2.657618281199528587e-01
1.935327771131617469e-01
2.067151499625435040e-01
1.692324490424629846e-01
1.903153399172009264e-01
1.897881778866886970e-01
1.262679486111616400e-01
1.610251812267509131e-01
1.590343700602571408e-01
1.613760605169217432e-01
1.454291020484272112e-01
1.769328117498726316e-01
2.157489944147392980e-01
1.762738265526268278e-01
1.360219952894814732e-01
1.405094322754298908e-01
1.613433601881977264e-01
1.330778674963432884e-01
1.897395362455570056e-01
2.289835297529222435e-01
1.822299974999800343e-01
2.168795092276454839e-01
2.214346401631210048e-01
2.403640761788150004e-01
2.956854255052103198e-01
3.070784402459432738e-01
3.462094313841705961e-01
3.719195946943723574e-01
4.788036075242410039e-01
5.710404453577460071e-01
6.273372577254006099e-01
7.216693082090540612e-01
7.296167868970532266e-01
8.486250634347416444e-01
8.615025818354926646e-01
9.833588540536298828e-01
1.072678441122138393e+00
1.091187365944478405e+00
1.168631847779741051e+00
1.131386704648583930e+00
1.162717957187607842e+00
1.142791585288090106e+00
1.160785473399707168e+00
1.143671341883585102e+00
1.099488334138261303e+00
1.036293843417210425e+00
9.780726519881526304e-01
9.379463598682669101e-01
8.523414677687358720e-01
7.490707849653724937e-01
6.523506473107906212e-01
6.181724018039189694e-01
