1.188933932467160615e+00
1.173383809697938318e+00
1.160902610056966822e+00
1.140312495337684195e+00
1.093103756421623274e+00
1.032103989184011361e+00
9.417054968897516920e-01
9.239510691597835335e-01
8.650912959792246282e-01
6.911571855617196780e-01
6.257441347942588328e-01
6.288792114327754756e-01
5.764300311671107790e-01
4.012935050691368577e-01
4.315899807624543616e-01
4.048395385540471958e-01
2.852074828697633846e-01
3.205630432156968967e-01
2.363448187977086612e-01
2.255968349183302135e-01
1.744523042989168105e-01
2.107095970670014029e-01
1.945021221969956415e-01
2.135181915865791424e-01
2.002395899728897088e-01
1.544000357663659062e-01
2.475238826473410980e-01
1.959413595208300829e-01
1.739917940094406479e-01
1.311602178639473815e-01
1.191911648402353835e-01
1.263016058853629053e-01
1.466076392483497970e-01
2.211989883547572366e-01
1.999682293248779552e-01
1.725779436105660258e-01
1.926229093366889078e-01
1.947411018731696197e-01
2.322698100530037613e-01
1.876900683056100250e-01
2.302952840367389342e-01
2.344992981939374443e-01
2.056419363113898002e-01
2.842575113019873978e-01
2.331372221489008689e-01
2.174666429873879092e-01
2.779186197279784887e-01
2.588694015498233525e-01
2.741903601561528903e-01
2.308827119963994257e-01
2.950463814831190135e-01
3.398460119855704065e-01
2.405199935240970865e-01
2.924807007878417742e-01
2.614481827317392537e-01
3.685394203264523161e-01
3.275630192550426090e-01
3.010286988776657569e-01
2.575804466833639395e-01
2.663376808997584555e-01
3.194561957386781725e-01
2.569828114334086200e-01
2.583516547169300570e-01
2.986137981811825548e-01
3.020514459460253986e-01
3.087878435529296528e-01
2.831801070397276243e-01
3.225949176694213882e-01
2.674126157863252473e-01
3.100024580108670103e-01
2.952314151293062849e-01
3.041109391280157337e-01
3.185257624720026493e-01
2.660837544744107386e-01
2.563068186344673038e-01
2.216152368599793865e-01
2.075732472186022914e-01
2.585053661739564745e-01
2.559825539469080535e-01
2.218496834817111907e-01
2.233417844326674728e-01
2.900583643389856858e-01
2.653662278111238448e-01
1.958544740556569241e-01
2.149382902553758079e-01
2.348082042714760009e-01
1.981860437520515661e-01
1.870206284767462201e-01
1.954044833241619095e-01
2.325280018626016409e-01
2.295093958449523908e-01
1.662822546914636823e-01
1.964751507668857089e-01
1.768286333028450119e-01
1.411996175478187343e-01
1.570365137658182308e-01
1.226122900520558445e-01
1.901212283139971926e-01
1.966039068463422690e-01
1.326319051045134756e-01
1.205235311357995137e-01
1.668153283617716531e-01
1.669846676993606838e-01
9.253708173279760751e-02
1.171483031498634642e-01
1.155962825440173397e-01
9.017321809491189721e-02
1.209671891826899631e-01
8.464085791165130990e-02
8.584346202836154460e-02
9.558329205541038487e-02
5.068319896268742852e-02
3.055054089822364927e-02
1.168367771348610973e-01
6.427608738904837249e-02
1.478784387038868664e-01
1.404804020994447344e-01
6.376575923645325106e-02
1.469044520153586220e-01
1.027662569919505914e-01
5.331448841270098465e-02
-6.622551292814464474e-03
8.975489283605406210e-02
6.844048101772678971e-02
7.894243816731055796e-02
5.773993870847932142e-02
2.899103230918371327e-02
4.929081045089113433e-02
8.218368594883582179e-02
4.931936818758281965e-02
4.818238418582111021e-02
1.253107529415926902e-02
6.003533690374236731e-02
2.319240912204967309e-02
8.341731947648911571e-02
3.320568181337132940e-02
4.577684461319556780e-02
1.190350832237835749e-01
4.443077560833550571e-02
3.996467234441893057e-02
7.034286005137185827e-02
-1.155906935727119000e-03
8.958674753232399868e-02
8.157149621482999435e-02
6.720573812814630010e-02
-5.009579657981727552e-02
4.320399483314559669e-02
1.259231774980432844e-02
8.431492452178630803e-02
8.200240434046253413e-02
6.191940101356628590e-02
1.405851458900898160e-02
9.487246728851714273e-02
4.208678812521792628e-02
1.040464077955570721e-01
5.779805031307613111e-02
6.501356537437515126e-02
3.599642089013024848e-02
9.203583309629753684e-02
6.812967940157636793e-02
9.324377222852320291e-02
5.539796044394157404e-02
4.881362477252322585e-02
6.827467069802069244e-02
9.394101793927672750e-02
8.146464301519504292e-02
5.546722456816460811e-02
-3.971158370480933064e-03
7.655634457487298095e-02
9.665523623364626060e-03
5.454987732041934739e-02
5.079997913122567127e-02
1.262292076963022341e-02
6.733372023081887758e-02
1.219206191004599538e-01
4.918551907891394875e-02
8.296318420461980259e-02
1.322413795791435309e-01
8.920375724087620251e-02
4.591508700283182531e-02
7.449513236577451347e-02
8.412975759739621529e-02
1.152467952588245026e-01
1.113900842167126759e-01
-5.177415966884958698e-03
5.540029747907279645e-02
8.237030385233777563e-02
5.761281789867855885e-02
-1.911940082561158771e-02
7.413167697503592057e-02
1.000044331964625444e-01
8.875019775068919425e-02
7.916481421264910667e-02
1.150317792602499056e-01
1.289245944420651102e-01
1.095236651916760839e-01
1.697624121586798485e-01
1.354197019865649443e-01
1.126390657228391184e-01
1.101288722295095390e-01
1.425052230376521734e-01
1.872381729514802085e-01
1.339401667525187134e-01
1.811781410103628365e-01
1.705866437408392333e-01
2.317544570463857534e-01
1.875950357436020621e-01
1.585579525159210301e-01
2.048671769149451038e-01
2.087717943836844836e-01
1.762524056408728279e-01
1.553077472361221179e-01
2.079280286066253480e-01
1.949125791822521325e-01
1.482037860468943813e-01
2.015611175191001636e-01
1.745798877252194570e-01
1.475411244544300726e-01
1.813481167471331090e-01
2.289257528429920752e-01
2.248887854737287306e-01
2.150190439128890629e-01
1.925277799841574045e-01
2.001587497066791843e-01
1.832502901931870043e-01
1.455343759124190783e-01
1.505729588231359828e-01
1.595585595228434794e-01
2.212251171882639866e-01
2.147273189901753587e-01
1.556284181404316569e-01
1.981655155530557266e-01
1.965995808011422874e-01
2.203774475089967932e-01
2.302058527178905412e-01
3.152490293823228540e-01
3.053877116380410150e-01
3.518223278590963954e-01
3.981897387355540774e-01
4.134909090675750742e-01
5.068870101381849347e-01
6.006284029955480941e-01
6.829147839506735096e-01
6.777888049901924505e-01
7.419988122799824337e-01
8.646384304881915561e-01
9.689724445800939057e-01
1.014809777991167339e+00
1.085846591695407870e+00
1.076939444226794107e+00
1.141832692683097283e+00
1.121690855125415665e+00
1.198074951355447837e+00
1.137777921827838101e+00
1.228573424851471696e+00
1.207187402896249484e+00
1.123834658862783442e+00
1.021967015557944558e+00
1.016907578310773719e+00
9.924312088445149671e-01
8.769794918730439148e-01
8.216459350630010983e-01
6.944730846778945921e-01
6.073658816791633885e-01
5.591133227437521391e-01
4.358288510781309633e-01
4.996352388764492836e-01
3.803620104497464349e-01
3.533679259521790295e-01
2.715060165268716186e-01
2.036570918238288230e-01
2.635615105459316321e-01
1.636316730732640667e-01
1.895245001157425113e-01
1.785611852495210261e-01
1.575669021459260577e-01
1.251536268680993047e-01
1.402477614487885327e-01
1.144827468675006510e-01
1.672735664293059088e-01
1.615553165583412665e-01
1.462670881409102730e-01
1.331981317652452812e-01
2.174463206826691419e-01
1.196228727465227515e-01
1.171600738797715924e-01
1.661109163131327393e-01
1.660859768035505002e-01
2.121358385941674585e-01
2.040505627323981330e-01
1.910510895910622342e-01
2.106812574429060003e-01
2.156217259192955427e-01
2.697040851724878396e-01
2.195710130479698319e-01
1.968209888972436150e-01
2.283812062272895516e-01
1.489081546605760809e-01
2.313812544815314343e-01
2.698727928285375444e-01
2.596831306756115509e-01
2.549018763542830190e-01
2.695254743839121669e-01
2.870074923026170177e-01
3.002703154637365590e-01
2.742670125922007651e-01
2.544019578008684390e-01
1.972200373735475409e-01
2.983973569939294967e-01
2.866096043583707398e-01
2.774997676416022796e-01
2.537015073266619125e-01
3.043702666912607158e-01
2.684153082292445314e-01
2.754564513238308421e-01
2.748037225709187847e-01
2.896098533265705766e-01
2.409236007258108436e-01
2.911669685768547011e-01
2.512150172579294405e-01
2.504675557904480487e-01
2.954544420290829421e-01
2.365658072787619470e-01
2.901128553844594116e-01
2.635279778630871261e-01
2.076127423850537834e-01
2.942794218292905106e-01
2.586613077313515974e-01
2.569258451742127969e-01
2.708237666615337935e-01
2.808605811328755419e-01
2.369828742318509096e-01
2.443475776043329273e-01
2.316687490577213071e-01
2.047975062574941274e-01
1.619959731498613609e-01
2.102464741355026256e-01
2.393699404862761337e-01
2.096268921336622570e-01
1.541700117940357773e-01
2.131431087495558874e-01
1.649348719114065720e-01
1.054537042751437642e-01
1.927577645841219434e-01
1.278920201204273854e-01
2.037499108869933184e-01
1.788921224366736562e-01
1.318255970897739271e-01
1.467234805277193299e-01
2.000375423953835996e-01
1.518024733901871814e-01
1.235453371468743372e-01
1.977946745865792610e-01
1.094997194882755542e-01
1.184173867031377142e-01
6.801156355681033105e-02
4.114078139244266297e-02
7.818613007935144854e-02
8.356696296083157560e-02
8.804617453667633320e-02
3.148924776834718942e-02
8.997805403817120407e-02
4.148307515312559673e-02
8.105421485787576985e-02
8.739696914421604679e-02
4.419847528766236711e-02
2.401893634697815222e-02
9.626503879156486643e-02
7.331395707273061224e-02
4.900219622046493584e-02
8.595328951545547214e-02
4.199277073860416265e-02
1.860650892290568320e-02
5.025047546035331034e-03
2.981917662284316178e-02
5.429942676197427320e-02
7.104775698492120373e-02
2.837480471275217672e-02
6.247994652931027765e-02
1.817185205056891240e-02
-2.423330447905384238e-04
-1.729120831855160065e-02
5.485546459588406393e-03
-1.853526443914185057e-02
7.873398942591261496e-02
3.061964401503729227e-02
1.362796486314675135e-02
6.727146194161859327e-02
-2.428630128378271580e-02
9.889218988572943958e-03
7.326333329624928892e-02
8.265910384250086188e-03
8.534670165017967103e-02
3.490372991012451881e-02
4.994198413404708076e-02
5.027241026550624547e-02
9.765368268805339064e-03
-5.409095373455637991e-03
5.320329720594800353e-03
-2.125349441740897322e-02
5.969769862125081164e-03
7.432716904224433846e-03
5.787935314773573481e-02
2.465851535737478492e-02
7.741691051986096528e-02
-5.854963127168722609e-02
-3.055585053439990872e-02
-4.965033390281039898e-03
5.023212470768057686e-02
1.955426942622143661e-03
-3.898131982260024525e-02
-2.461974571534650356e-03
-3.116767946695941927e-02
-3.714656230272989079e-02
6.456613260730777182e-02
-5.966484249104456877e-03
9.803059162880486260e-03
1.898070622243364872e-03
-2.722246770196170510e-03
-2.019720415389869572e-02
-4.025100654936239995e-03
1.576135930806567276e-02
4.864105586832172951e-02
3.503892944674057153e-02
-2.931683028485420825e-02
3.766561588803261917e-02
2.315242622775580753e-02
-8.837270378772554488e-03
1.652814754709768658e-02
2.955087782990959908e-02
1.527721246607952922e-02
2.993246263663916149e-02
-8.518333131300364139e-03
7.919428592897045927e-02
-3.622833629594235383e-02
4.143488171091012917e-02
3.776476713534565599e-02
4.892956788853686234e-02
1.148810627925413858e-02
7.113122616539704901e-02
3.634746884379593673e-02
7.742355468014577857e-03
1.442898144127933643e-02
5.515097622595752092e-02
7.829346067334645720e-03
1.142176352400885719e-01
9.629056026864243889e-02
1.243695012114931775e-01
1.260438482776710667e-01
6.874887542787690153e-02
5.816878008720612059e-02
8.863191592836907468e-03
8.192764396979514141e-02
1.519369911213840629e-01
7.888169882303081026e-02
1.020283299279268197e-01
9.611807074751649305e-02
1.282164802879494359e-01
1.595053258675272756e-01
7.841109738994531120e-02
8.749282577382327952e-02
1.755054303566238039e-01
1.554925215375680125e-01
1.279001978348043855e-01
1.886411758294299357e-01
9.777419378449961340e-02
1.674958764904613262e-01
1.378797996471203269e-01
1.580260606062867945e-01
6.766409838313192093e-02
1.304734971603887239e-01
1.590145744657365801e-01
1.332749990359501369e-01
1.708125570939524607e-01
1.675898498236131351e-01
9.988075557198869414e-02
1.511294684765940033e-01
9.466241098536724852e-02
1.245939405482364010e-01
1.419796889917057658e-01
9.770440725748562316e-02
1.484014807065952013e-01
1.137139195054935048e-01
1.181358402478465131e-01
1.666476764310397818e-01
1.341191949767011060e-01
1.508707362235775506e-01
2.321704374626102907e-01
2.334372353137747769e-01
2.220881207382786049e-01
3.335465751245502708e-01
3.446186951892326045e-01
3.703170494906642962e-01
3.989997319777328633e-01
5.685825035750000644e-01
5.872630888547545336e-01
6.501643734367785754e-01
7.821178354387158249e-01
8.615379778927637622e-01
8.849072791876285704e-01
1.001462298119844885e+00
1.093420859210944451e+00
1.119883760211034085e+00
1.151126792526428355e+00
1.147517008212834089e+00
1.133343325175084626e+00
1.139030907642371249e+00
1.133674746468639860e+00
1.048927213788105828e+00
1.017501036979861384e+00
9.411160809272838268e-01
9.258393113270152464e-01
8.498184738501984858e-01
7.523158786213262061e-01
7.193870745717784176e-01
5.867408883758070681e-01
5.230102750396152800e-01
4.966507846383389491e-01
4.357733406791742814e-01
3.247405623973682598e-01
3.028467915102269203e-01
2.265880702071168540e-01
2.048432716650799013e-01
1.823632693404335092e-01
1.681795982214891183e-01
1.397006716070868793e-01
1.220437687546344213e-01
6.940139695121756713e-02
1.049188379878142757e-01
1.043342770687928078e-01
1.054838357516427044e-01
6.225219103188876085e-02
1.119287510110390654e-01
4.682661709271572492e-02
7.627874326341678446e-02
8.454638804711731015e-02
5.911568808372338890e-02
9.286693813424197474e-02
1.131456886197800549e-01
5.686694547210656425e-02
1.050964408571158082e-01
6.988681354753549513e-02
1.890487013048598730e-01
1.396676574277813110e-01
1.425549055456897529e-01
1.511997217144838423e-01
1.677771138476603086e-01
1.843143057327464029e-01
1.132941680621100955e-01
2.046196947936302357e-01
2.076651890417812452e-01
1.731190492248926016e-01
1.761904578786388786e-01
9.111757912971985007e-02
1.511158485018334052e-01
2.080058256111772530e-01
2.322164051751853531e-01
2.215572762326902811e-01
2.006366384295193983e-01
2.636077042736397202e-01
2.386047005182221625e-01
1.989351753679614032e-01
2.781858522389438759e-01
1.814728537450025492e-01
1.714929194546493674e-01
2.039537378570979165e-01
1.944100895626769132e-01
2.064440060711595915e-01
2.411958037687132184e-01
2.157330729110181200e-01
2.156425401011504428e-01
2.164374008577734099e-01
1.437317053389156607e-01
1.657251533136587240e-01
1.973655686015116928e-01
1.810482924373728875e-01
1.964733201713910193e-01
2.423326311666785526e-01
1.944608857616602349e-01
1.532324926009452082e-01
1.650401301978983160e-01
2.358341565115876781e-01
2.259401887148799470e-01
1.930721815894661242e-01
1.233517042355573579e-01
1.742788530712371942e-01
1.712709753557519754e-01
1.550673929449203625e-01
1.316167904902953434e-01
1.321479953139113039e-01
1.180581150954940206e-01
9.705157157123492362e-02
1.664877049795931152e-01
1.460498769123673990e-01
1.050906617620125938e-01
1.182646708519452805e-01
1.134701798850907967e-01
1.661801932390334635e-01
1.162348544161262709e-01
1.093286096123758794e-01
7.972947182950008982e-02
5.995090197709644630e-02
1.089588954406438548e-01
8.165047811214226625e-02
3.192094405954838676e-02
6.527667526734608205e-02
7.177177814300395031e-02
-2.109268724527373767e-02
9.390751054543469700e-03
4.337808975865857508e-02
-2.964952068837287125e-02
-2.915122492281814470e-02
1.162846627238187103e-02
3.056067305621830432e-02
2.818274856448593074e-02
5.591871859003547801e-02
7.473820740337096258e-03
-9.454370793685842878e-03
-4.061822617365309918e-02
-1.590350080759818027e-02
1.404631364725713455e-02
1.273605563632683457e-02
-4.428092133067357272e-03
1.666556526971965657e-03
2.130077043487762362e-02
-1.684470234613211909e-02
1.993146960031894066e-02
-4.475083321625746013e-02
-2.689666346478111064e-02
-4.075774407504290098e-02
-4.079886978351938975e-03
-5.972251143560249054e-02
-4.027165548370865988e-02
-8.764854971849785070e-02
-1.518037941928272738e-02
3.319906561776352072e-03
-7.758203218792794620e-03
-1.162438287146173171e-02
-1.167757470308388584e-02
-1.666206393004058747e-02
-1.995535452049703937e-02
-1.869916667686366898e-02
-5.936514263770345523e-02
-4.628091125079322049e-02
-3.870391601149098665e-02
-5.137729782863059702e-02
-8.875212111934270565e-02
-7.923426657202534140e-02
-3.567285253862363670e-02
-1.575624472171085338e-02
-4.297794115560821249e-02
3.938468193670202622e-02
-7.142928851695570791e-02
-3.074057720170915095e-02
-5.582232646839574430e-03
-1.255530061882033366e-02
-2.505925354323386423e-02
-1.276783856521025717e-02
-4.335627707342368242e-02
4.747677567076259708e-03
-6.741900214791367307e-03
-7.087747047851269966e-02
-3.571208425615054333e-02
-9.179902878173429315e-02
2.824371813429857325e-04
-3.860257666940335175e-02
-4.788397741818481435e-03
-4.841420997212454724e-02
-1.006587648960202697e-01
3.436273088615177107e-02
-4.055785906993410184e-02
-7.416743181894948356e-02
-9.390578668416964259e-03
1.778578845765595162e-02
-4.880578752182465618e-02
-4.506033508661060755e-02
-3.419078121088849759e-02
-7.379960821759733169e-02
-6.020820446568740658e-02
1.508266514921550311e-02
-4.108715654863429739e-02
-6.084207327837258539e-02
-4.770927573875594074e-02
-2.241642568466678531e-04
-8.976520133953738712e-02
-2.073775185648476030e-02
4.779904269214613199e-02
3.737995951497072311e-02
-3.628429923255467593e-03
2.161242778172607626e-02
2.448659611871352448e-02
-1.511129924703234068e-02
2.000896855245632572e-02
4.973826757831938117e-02
-3.780798794659299966e-02
2.162804527986923048e-02
1.958419963835084099e-02
1.641940193576807427e-02
1.850349905951829965e-02
2.988957276688490594e-02
3.739309842284362084e-02
6.655608797653349284e-02
5.242112403558017719e-02
3.794250231115260663e-02
2.322588801072707904e-02
3.935133172522126133e-02
6.638028392251874021e-02
4.226572736575179290e-02
9.657022287325511822e-02
8.564670444309496755e-02
1.113690865111732764e-01
6.194693225976064671e-02
5.992222491206349033e-02
1.223397565958242728e-01
9.519064958314826796e-02
8.785307675748346701e-02
1.171036702320464862e-01
1.177618170451701918e-01
6.156468075690837288e-02
1.416322939423199923e-01
8.817016120333570628e-02
1.514121662763264764e-01
5.988914429222169655e-02
1.084821205795163945e-01
9.207577842883327146e-02
3.674674601762040194e-02
1.138599312885413828e-01
3.435607178031172687e-02
8.126542726582519638e-02
1.212323225014004802e-01
7.064897373428061234e-02
5.850196398400871189e-02
1.096245743666380557e-01
7.944537826324227225e-02
7.786123011390856663e-02
1.336247066549098583e-01
6.857517346574863726e-02
1.015087182892325801e-01
1.571395146158456324e-01
1.148497593450246435e-01
2.311815427077638097e-01
2.035448120214909951e-01
2.748737510292154629e-01
3.201225034711713269e-01
3.414494074369707755e-01
3.902239021865530066e-01
4.678155797904040569e-01
5.600048385098160830e-01
5.822784251663180033e-01
6.511233967737011241e-01
8.072774192682052874e-01
8.142627517902372158e-01
9.162235648264211996e-01
9.622452111289742094e-01
1.017481907631731408e+00
1.108233564465758159e+00
1.093411164546004954e+00
1.102233106122447515e+00
1.107452983237492861e+00
1.088554916941616435e+00
1.057623786073572436e+00
1.023754857649862737e+00
1.038061593483953216e+00
9.492126079001462768e-01
8.496268948067945415e-01
8.162482481630447539e-01
6.630151080529254060e-01
6.749755068980393125e-01
5.969099956501324744e-01
5.525351784851098014e-01
4.476610383776691848e-01
3.678689603726056356e-01
3.372264696361655933e-01
2.301611808485529709e-01
1.943199267516256268e-01
1.681548819517962867e-01
1.813521317738463479e-01
9.062377093839354969e-02
6.867956425057566983e-02
9.047641035342134097e-02
9.470666664170185323e-02
4.523784882912475908e-02
8.237344177434616221e-02
1.015148747578263899e-01
9.650511760512936466e-02
7.256584998547660481e-02
6.185663583209734945e-02
1.201244951231834335e-01
7.266557024279386712e-02
1.050640014229485830e-01
1.406252675044684652e-01
1.122316358122088659e-01
6.275293763166367444e-02
6.112133599089716873e-02
9.507531291253573658e-02
1.310479122744934999e-01
1.288790687275679914e-01
1.875060787492430492e-01
1.400638217912056338e-01
1.228446683875209222e-01
1.042388780139510140e-01
1.791180691362921906e-01
1.488632206967645255e-01
1.090554939475485707e-01
1.599373009422324354e-01
1.342433856211739385e-01
1.559902676611742145e-01
1.733689582135090890e-01
1.502143736203607471e-01
1.666737251644103968e-01
1.626421584344275861e-01
1.668262377279069730e-01
1.611856408040230892e-01
1.797142992702386310e-01
1.698055699432442778e-01
2.163616048465439867e-01
2.065652412201763322e-01
2.378122099091335706e-01
2.596479569878077376e-01
2.240850490620005242e-01
2.176109966653776984e-01
2.263301073581975853e-01
2.177532225290511325e-01
2.045380965691809827e-01
2.010734728573680408e-01
1.698739684804803363e-01
2.239187773975414852e-01
1.957038354539424319e-01
2.376935576168430209e-01
2.189119720468524211e-01
1.696258770905677560e-01
2.224615024578575906e-01
1.046189346084067523e-01
2.354677016484058583e-01
1.332827283116117534e-01
1.839369011624417682e-01
1.773432835410000685e-01
1.934774400754971646e-01
1.449765198972788327e-01
8.538850171330376881e-02
1.347161708555658644e-01
1.326238682125222001e-01
7.228910517410921943e-02
1.296132227563065176e-01
9.040345527855173091e-02
1.365364878313968522e-01
1.040423431203298804e-01
1.646115811223072267e-01
9.245730343774653803e-02
1.074443136846316565e-01
8.257164109863183998e-02
3.475276545640886006e-02
7.186592901352763241e-02
9.524849441145455398e-02
8.543868064727155875e-02
5.341888585899881581e-02
1.346715153686178085e-02
7.158047142429449505e-02
6.004015260652090236e-02
6.810571465283776771e-02
3.007292099348284758e-02
-1.659186584402860820e-02
4.574967886649353166e-02
2.541781126860371415e-02
6.355801777410102771e-02
1.894673962385165500e-02
1.316068476840819013e-02
2.364509647003404380e-02
-1.001543104277849427e-02
-1.453546600094768673e-02
-1.032876206997664081e-03
-2.846589646013137492e-02
-1.033015383194301959e-02
5.227680460766912646e-02
2.306340442484457187e-02
-1.136869265743689628e-03
3.414878287019477293e-02
-3.903761939356516220e-02
5.866283363739893675e-02
-3.150040019600702790e-02
4.091352116877516876e-02
3.938062031269005947e-02
-7.448982821284291789e-02
2.093254230989194387e-02
-3.268577110058788759e-02
-4.220193075614962763e-02
-1.032926847200964920e-02
-5.712752009443784057e-02
-1.257275609796152521e-02
-5.652478928550228043e-02
-2.358711293239868639e-02
1.062818481977981927e-02
-1.830926485255541386e-02
-4.111363457150053052e-02
-1.443948776822830821e-02
-7.318869391427404447e-02
-5.642658749109528277e-02
-4.439262917799486480e-02
-8.063133429547116732e-03
-1.964199130224677375e-02
-1.587410440538111062e-02
-3.283195878353556418e-02
-5.570527863694911541e-02
1.255703836943237311e-02
-5.301854066451103242e-02
-1.948739137102447130e-02
-3.537229352012838390e-02
-1.504767698137862361e-02
-5.000880180376293671e-02
-1.493899452933364347e-04
9.754241396397696218e-03
-1.697439174017448260e-03
-2.652947671791602846e-02
-4.411023123611206020e-02
5.383283138000653084e-02
-6.032738683197821916e-02
-3.861806695757759311e-03
-2.000447717427808816e-02
-3.151965183915766272e-02
-2.370669332177534339e-02
-4.414447960275143940e-02
-1.555645982314277434e-02
-1.834186964301701833e-02
5.306202327095041471e-02
5.500107620339596270e-03
-1.043401038816478901e-02
-7.850961218531876673e-03
3.094807237580545281e-02
-5.237553939404636372e-02
-2.766455192442562189e-02
-7.820207062808089138e-02
-2.905562885443673665e-03
7.230243575859395672e-03
-4.648412986658336660e-02
2.819049554740648764e-02
-3.450849495424596070e-02
-2.112085189130791241e-02
-4.979673928960273721e-03
4.173296743590526603e-02
-2.916376346865538413e-02
8.202717151382328542e-03
2.580692559521487184e-02
2.292948227465126457e-02
2.757001480279915387e-02
3.600451345089453192e-02
4.859156434559308568e-04
7.194086322946396939e-02
2.235724757289878420e-02
2.295478638450681313e-02
7.545873971064362418e-02
2.103801758026335733e-02
5.463483819429219845e-02
2.853752420858647609e-02
1.310956333519413819e-01
1.301467099469665878e-01
6.299092734255540282e-02
8.731525958472609317e-02
7.727295341866949330e-02
7.199646636211985695e-02
9.128373360556128746e-02
9.158185251101427782e-02
5.211129961943884725e-02
1.103414462979495497e-01
1.056517181394075050e-01
1.204701403112555802e-01
1.126413619916086378e-01
1.076662196927568871e-01
1.478504055084736424e-01
1.403149394185355114e-01
1.684891618613058584e-01
1.432880862791703069e-01
1.238959844644174219e-01
1.492388195768162840e-01
7.176370545707778936e-02
1.942830582896097058e-01
1.389581922513434820e-01
1.954093779189536029e-01
1.025847477986182588e-01
9.362909684122067144e-02
1.364161393885328366e-01
1.345014305238927399e-01
1.320035263915523560e-01
1.258926509231501900e-01
1.003977220535376691e-01
7.435003288362296292e-02
1.281652966706366970e-01
8.345323574517471421e-02
8.485797389016223879e-02
1.215056263018009508e-01
1.557206088977827196e-01
2.160746327609343043e-01
2.038927935634342048e-01
2.406762892735519188e-01
2.461584979759056102e-01
2.726463255008550468e-01
3.785028678264656388e-01
3.121006314848824292e-01
3.945330114829939672e-01
4.583204795729281522e-01
5.622089986678500129e-01
5.775673891885695355e-01
7.044315229960825819e-01
7.748266772037900596e-01
8.570251365463587012e-01
9.287228510233334067e-01
1.017993863410219468e+00
1.029790768416109836e+00
1.096898044533632932e+00
1.097060500971753783e+00
1.115336344880923258e+00
1.208310431643878191e+00
1.127596168488853801e+00
1.153421836972208459e+00
1.118650153325217778e+00
1.094024554964381224e+00
9.542561160092388750e-01
9.671296222112095720e-01
8.684253250291283921e-01
7.776388191625278612e-01
7.115687658900853307e-01
6.737954814668022374e-01
5.902968493689458862e-01
4.938872442107522520e-01
3.979060940384290257e-01
3.403022146115177726e-01
3.417413265751870211e-01
2.343891538100338068e-01
2.295135386249171072e-01
2.803501343199672480e-01
1.866702689801985615e-01
1.736840723088528826e-01
1.030776194651615574e-01
8.590426138369751385e-02
1.381060709847759527e-01
1.003668452314260967e-01
1.412057432393295786e-01
1.095220411724384668e-01
2.128045795056577594e-01
9.413314874358454099e-02
1.231789522868376729e-01
9.166079362724802171e-02
1.540177593757799113e-01
1.412828919240068648e-01
1.045702728215229249e-01
1.294621621700602354e-01
1.858766435522682947e-01
1.881247517048639240e-01
1.140603433211911238e-01
1.484625195874162418e-01
2.230329561695784946e-01
1.692984307829339397e-01
1.856882154820131137e-01
2.167918416685802874e-01
1.517225785705841601e-01
1.690846468598175001e-01
1.930172850598377843e-01
2.441645949112839220e-01
2.437422448479793502e-01
2.396727223614507907e-01
2.186242207544455141e-01
2.611766248570826510e-01
2.269549845657774234e-01
2.528563386362423504e-01
2.665843082335797587e-01
2.935421834317259449e-01
2.440576828437223122e-01
2.376623109563975600e-01
2.898586456853244897e-01
2.942908367473239806e-01
2.386179363102429729e-01
2.232004874531842709e-01
2.939981549960040685e-01
2.088906252199523861e-01
2.077114030636248165e-01
2.504368106191388610e-01
2.581874144352916400e-01
2.225852490586015531e-01
2.599546086674885403e-01
2.598586793170853948e-01
2.356771094958853563e-01
3.089837763287796579e-01
2.584407540972794570e-01
2.766589378208991201e-01
1.960750409028080010e-01
1.924878132147547771e-01
2.466357454207321331e-01
2.846251796469024820e-01
1.945881847066745218e-01
2.248727541664435892e-01
1.789999148294175724e-01
1.897898735218237487e-01
2.122706659789645178e-01
1.866796709607792815e-01
1.571438998316690983e-01
1.512136764605147843e-01
1.291215069061340259e-01
1.945775445983037033e-01
1.927319773989124851e-01
1.870700149706379933e-01
1.364889915256568831e-01
1.884127272206993498e-01
1.739229871688515172e-01
1.474551553225311173e-01
1.370943897358052888e-01
1.169491054124516954e-01
1.368844203367082513e-01
1.744200601026414665e-01
1.549189031756920687e-01
1.080854875477756105e-01
1.270365865049764287e-01
7.306728552177227387e-02
1.233781296597806221e-01
7.205662495335632411e-02
1.133421907932681688e-01
1.775095641928200463e-01
6.729441303175760780e-02
1.681937326634452556e-01
9.150311063607710627e-02
5.073055741840064303e-02
4.595233136525135598e-02
1.375226097173195272e-01
7.828191871205004981e-02
4.358491649588120548e-02
5.169981994904769562e-02
6.811538392299953948e-02
5.247027284443525619e-02
6.079651429907705074e-02
1.014595617391198107e-01
1.238372005650466637e-02
6.366885282492606990e-02
4.038097441072334426e-02
2.596053179375012315e-02
7.158216678167900193e-02
-5.824792196622068097e-03
-3.426314511028888399e-02
4.228339372223412218e-02
3.032005155669762267e-02
-7.106588451122684835e-03
-1.873410900556421801e-02
8.969034092557158500e-02
4.493098132451602000e-02
3.097463154834799448e-02
9.565820015490779371e-02
5.994468209593666053e-02
8.190508216478271930e-02
-6.970019355399491995e-03
-8.437498118471400965e-03
4.630228466587597846e-02
3.997722217517733073e-02
6.482740104280046434e-02
-2.175094132597130830e-02
4.815274944461342410e-02
5.662914758676893673e-02
5.497413426522806956e-02
1.465533312106997305e-02
4.240903590361123909e-02
3.600657478989410798e-03
1.812554040038949488e-02
-4.308213654122546032e-03
4.307154373769005867e-03
1.994596494935720749e-02
1.257434268158228244e-02
4.685951369144417122e-03
-1.137127978524982846e-02
8.663650761827390578e-02
1.299453983911626025e-02
3.814007992479674647e-02
-2.427497736446199844e-02
6.950202170433773807e-02
3.409339119587512235e-02
1.609884891057863573e-02
1.673118621107167608e-02
5.627571973198397526e-02
-5.794936212006929210e-02
6.414812266726230283e-03
2.811778860961373222e-02
2.838037772126718664e-02
1.081319200169043315e-01
2.359137062906986604e-02
6.425325274237018991e-02
8.981252079495476159e-02
5.659563174883271847e-02
1.738457571407541966e-02
3.035130892821424897e-04
6.256715684774509512e-02
9.105932714875560052e-02
5.973946755014200583e-02
8.217431330038928172e-02
1.249079548879721557e-01
7.442752856302825570e-02
1.863127417291092838e-02
5.572158586987275425e-02
9.803860555443942582e-02
5.242014699757831936e-02
1.082197734213784096e-01
6.442222680189788053e-02
8.006023049701824212e-02
6.332375463816293515e-02
8.266158693466464646e-02
8.848587890683048962e-02
3.829204873778738888e-02
7.792389033096386308e-02
5.897210813567086568e-02
8.870783488896274993e-02
8.215485419717377669e-02
1.415659532864339265e-01
1.472018785937949104e-01
1.386557564687474209e-01
8.919202080810742506e-02
1.296463707279237043e-01
9.750287222596538961e-02
1.387508296617927239e-01
1.677283700405968470e-01
1.830517874210470519e-01
1.722652864343994783e-01
2.003956338840870710e-01
1.747287633018436703e-01
1.639211048015866701e-01
2.007930307768146516e-01
2.050650161697833984e-01
1.650371834030949780e-01
1.946030456016973886e-01
1.764349113514135647e-01
1.265814798451964651e-01
2.011522564365163801e-01
1.497548350477607426e-01
1.986149263869989023e-01
1.424364628614680495e-01
1.662070042456391672e-01
1.737014068221071350e-01
2.213373335890345128e-01
1.675925347632209461e-01
1.494936612638578799e-01
1.907758733454694156e-01
1.715579899921151064e-01
2.003280227018126025e-01
1.453740894591635247e-01
1.820601189334314363e-01
2.510821797652758036e-01
1.727724624224341587e-01
1.907087833470560989e-01
1.432006387622091759e-01
1.787581330354512665e-01
2.335032100005081379e-01
2.298953603960273984e-01
2.836671947921781678e-01
3.093640342412966038e-01
2.948595509294900108e-01
4.093408789099942102e-01
3.928485671048207450e-01
4.649885855435469395e-01
5.586621349297906658e-01
6.677901731511076688e-01
6.635936261305339645e-01
7.734220486556963037e-01
8.494208801969448386e-01
9.385512817097654281e-01
1.024504972189292262e+00
1.040757251595790800e+00
1.138629474713318102e+00
1.193039197497954396e+00
1.239252530990734513e+00
1.219862756576063800e+00
1.214296643135703624e+00
1.185592695170280875e+00
1.132170921174233236e+00
1.130481829616420519e+00
1.093248079371045733e+00
1.027639833477266063e+00
9.819966495467230549e-01
8.479490962750961813e-01
8.103121492016792660e-01
7.987442208860234816e-01
6.928981441054452572e-01
6.084502612010685985e-01
5.329128850099813519e-01
4.468900202651781006e-01
3.481085423816990265e-01
3.639850172088451297e-01
2.331623792289036767e-01
2.598778970340502870e-01
2.389250523868712284e-01
2.008947252978359188e-01
2.600387947805683497e-01
2.349002847724936671e-01
2.004758681772406681e-01
1.344846293659822112e-01
2.154959535069519982e-01
1.743691898158891418e-01
1.273705370066214315e-01
1.579361864873135013e-01
1.882071874292438052e-01
1.448835586992606173e-01
1.711565817946750223e-01
1.810464237313983427e-01
1.435255774036069132e-01
1.737311482896408132e-01
1.565556294608377308e-01
2.190047913012678205e-01
1.714180070342942175e-01
2.131779859291409451e-01
1.684991455575333141e-01
1.819676157944646877e-01
1.862426029602889110e-01
2.186781382015413888e-01
2.383592816843683737e-01
2.493680174462385435e-01
1.906105702092684984e-01
2.439256012055024403e-01
2.315102575984354927e-01
2.749119132963462331e-01
2.555146009569796428e-01
2.655559281002386474e-01
2.498322639154429980e-01
3.278661416094930670e-01
2.412956344157644595e-01
2.712027826603590208e-01
2.895161928838429488e-01
2.815298034944887506e-01
2.686123501061524199e-01
2.393069463645149386e-01
2.746975493005754942e-01
2.680975305376273599e-01
3.483369855657498793e-01
3.666227473941148229e-01
2.975172727636308800e-01
2.568936617381099019e-01
3.208094238198123671e-01
2.685057584827306720e-01
2.803744484211670995e-01
2.765420965820282184e-01
2.786032985363814940e-01
2.808484887675332109e-01
2.496266706493745213e-01
2.651935531358299292e-01
3.137669810051505470e-01
2.787821247091406551e-01
2.798880340985428483e-01
2.052356739167905397e-01
2.964618319440766037e-01
2.430554060729039900e-01
2.927176545258564633e-01
2.588073437750085248e-01
2.323193358592431645e-01
1.936891807563651535e-01
3.039692289896850363e-01
2.574003563461331745e-01
2.536714007852603481e-01
2.767362836000704096e-01
2.232210792609080063e-01
2.513505697714105702e-01
1.906724192689356334e-01
2.213965666677910338e-01
1.746110915802995822e-01
1.726644173804003923e-01
1.849932193347607612e-01
1.384157238503041232e-01
1.807401704319169800e-01
1.559966259986992343e-01
1.003166530545878121e-01
1.409029384221067160e-01
1.390817905003892130e-01
1.699395940196766486e-01
1.479600818219884983e-01
1.780137033387071688e-01
1.455201652853284622e-01
1.087726120943512953e-01
1.192667955954774262e-01
1.063572823892729169e-01
1.273766587249418047e-01
1.106302517327868440e-01
8.623725439658611047e-02
1.017710906801884141e-01
1.119276456486115734e-01
6.463773509970913156e-02
1.012360970885422817e-01
4.141583333927739696e-02
1.191462401103855206e-01
9.914637344698976062e-02
1.297067608366583302e-01
4.496921489075180606e-02
1.102467610189848263e-01
1.022254652697306837e-01
6.672198977690158017e-02
5.904968545400750973e-02
3.607277317295119745e-02
2.664406551658035638e-02
4.298040767095157727e-02
2.644595545931845149e-02
1.106902325122567088e-01
1.654875829467589154e-02
6.495630726830790846e-02
7.252212512804098732e-02
6.921501946333373512e-02
7.096058305722402482e-02
8.517403867895820269e-02
4.264825860975968164e-02
5.795586332861235590e-02
4.588135999073872373e-02
9.317437737086833871e-02
1.165528305525043162e-01
1.724141861394147546e-02
-8.329978158720746650e-03
6.925855862579030631e-02
8.391243672313936086e-02
1.101596256452806455e-01
7.326605515373124655e-02
9.270958498798057001e-02
1.003705849247060466e-01
9.426875647141555459e-02
7.653945483612946410e-02
1.143887859209256896e-02
4.947516087985977945e-02
5.856763958405644677e-02
4.643184422947650020e-02
4.816167013300506200e-02
9.621966400569112454e-02
2.641563418515878101e-02
7.303059804399719690e-02
5.851267020845650479e-02
2.327747368502336781e-02
1.671516284686401510e-02
-1.988177257637419038e-03
6.368800730160145696e-02
4.732768625057036382e-02
2.459504622239883434e-02
-6.727795971451663859e-03
6.277254214994232306e-02
4.486992669703501052e-02
2.902254230386312750e-02
2.193181050487913453e-02
4.419104985805551167e-02
6.602726844180600851e-02
4.269939626721325904e-02
1.771620835149217282e-02
5.251254763001896031e-02
8.662814149359768234e-02
5.760648632997947272e-02
5.972957204800823094e-02
4.933723758882031796e-02
3.401010795888031318e-02
3.477804447881703565e-02
1.455600228213611846e-02
1.019855883229052462e-01
8.275810451743366436e-02
7.390008016192219087e-02
8.304481700129406896e-02
8.732992261490676866e-02
5.829141276772158153e-02
7.397095103888454148e-02
7.311882910251840673e-02
1.665149071284307558e-01
1.258091681110483639e-01
1.044645808387529434e-01
1.448141472763975757e-01
1.455977691521961048e-01
7.171143281950445592e-02
1.112877447593812741e-01
1.224316654551950434e-01
1.462901438101709972e-01
1.262926893194011024e-01
1.351380215856966827e-01
1.293142881073792994e-01
1.796271933697095868e-01
1.097698326229809423e-01
1.450288564090287946e-01
1.071488014818494650e-01
1.359712459221579794e-01
1.805310845340655224e-01
1.849730409147740118e-01
1.690476414569300756e-01
2.153674916803764994e-01
2.250933616492724054e-01
1.848123725737816914e-01
1.963896066890219172e-01
1.768399176522761351e-01
2.103018409448238479e-01
1.562848224122471985e-01
2.461256688735611320e-01
2.261349435644284811e-01
1.552109649235803857e-01
1.663395786351216377e-01
2.011104469223895796e-01
1.764805019373066886e-01
2.008952499399573322e-01
1.715868711018509740e-01
2.259468307636178230e-01
1.784859505426834581e-01
2.493119704321885011e-01
1.939348407472978597e-01
1.355680295303236249e-01
2.402770381817716516e-01
2.141781487644186244e-01
1.985948030240735074e-01
2.155919217098592466e-01
1.731937722136189794e-01
1.717417152638016364e-01
2.466266637774701120e-01
3.168686621216276755e-01
3.211588870100114401e-01
4.008977833226316512e-01
4.363514665930195435e-01
4.511395684448735732e-01
5.462160347445987885e-01
6.222665185429095969e-01
6.447444532384946081e-01
7.145906371212167318e-01
8.006489701314858376e-01
7.990902228334059165e-01
9.522495946251406940e-01
1.032905140807508726e+00
1.075845733472632570e+00
1.132661734247314644e+00
1.160508587325590701e+00
1.128534618333610240e+00
1.251026233112475294e+00
1.188354043246372171e+00
1.164671653592642242e+00
1.193942016983539967e+00
1.139879358855204305e+00
1.064937559325104255e+00
1.016917121496107690e+00
8.893331697660469271e-01
8.470682015294521694e-01
8.115173314273739225e-01
6.753848340348751478e-01
5.905844188421972563e-01
5.512131026633704245e-01
4.850632788489607772e-01
4.403877264436195094e-01
3.250234287593942728e-01
2.420525251028967650e-01
3.051184802718743261e-01
2.105082536891246803e-01
1.963868062106556844e-01
1.265268621875369481e-01
2.050958351006532121e-01
1.717154803648400230e-01
1.610884871961894282e-01
1.546424602168568752e-01
8.011665587501834440e-02
1.108842116187260252e-01
1.271140482367763558e-01
1.197788589473126886e-01
1.367211718937577092e-01
1.556853066091219429e-01
1.825385598738317183e-01
1.124454271530701960e-01
1.614328222283359371e-01
1.881374706979982159e-01
1.443362493780921685e-01
1.716586327398594847e-01
1.968968574267447869e-01
1.887278935780317135e-01
2.141122737170004231e-01
2.021981495456488254e-01
1.954238473625184713e-01
1.749499184802083829e-01
2.228052349570060486e-01
2.235351223360219353e-01
1.957634212002448693e-01
2.478695316714703278e-01
2.731328455253982934e-01
2.197886640012517989e-01
2.220495660892942980e-01
2.250142135111535824e-01
2.013950069354055739e-01
3.154452779321341160e-01
2.451246463193529346e-01
2.358279534733071781e-01
2.304653369585273059e-01
2.550010148123589282e-01
2.478286901832121858e-01
3.135359375500370582e-01
2.342959565160758761e-01
2.266151735320564575e-01
2.899812660060238634e-01
2.705077278224583548e-01
2.669691521598457906e-01
2.900168867349475765e-01
2.765370881027430783e-01
2.698792697307004218e-01
2.276066257704289775e-01
2.178750775207103085e-01
2.447037581165679432e-01
2.306495695305135207e-01
2.683956800236710905e-01
2.031832799246618970e-01
2.402537560435492325e-01
2.447122709600551005e-01
2.446775032248793558e-01
2.535409273295895494e-01
2.272391706501554198e-01
2.122496099803673764e-01
2.646410813175191779e-01
2.125495168372305010e-01
2.593983330262004117e-01
2.015934958619675088e-01
2.052501030070505716e-01
1.958537069774517470e-01
2.011366769259954335e-01
1.757135511719047083e-01
1.852453682982929672e-01
2.222996915917363758e-01
2.018341298809931128e-01
1.960305629903380253e-01
1.181034160481462952e-01
1.169895974439982972e-01
1.530016279356669617e-01
1.637254719203344311e-01
1.192352583670606148e-01
1.081720556484542378e-01
1.653010537267857183e-01
1.385547587221925558e-01
1.443269676490741005e-01
9.407769337605750848e-02
8.658705611908329436e-02
1.256602845934481905e-01
8.446290615608011143e-02
6.932018259791780657e-02
5.570527040137118052e-02
6.337471936112859527e-02
1.007378650477283172e-01
2.512799898492616008e-02
8.538356550675556267e-02
4.152087278995313102e-02
5.287452587212010391e-02
5.137156361864124443e-02
4.586932436318942596e-02
4.076545441278911497e-02
3.308814126964718105e-02
2.646414607199833180e-02
8.053298130271299704e-02
3.916483659877515594e-02
3.224483507154019685e-02
1.442537410789477940e-02
1.939526753852049284e-02
1.038908671976653333e-02
5.069215349211489419e-02
3.343303326043439369e-03
-4.310997051773614308e-02
2.445429293762078557e-02
1.284734801554064318e-02
2.270731616370197728e-03
4.589263609645268666e-02
-6.467670990645721374e-02
6.347567618302625558e-02
4.676004651645626620e-02
-4.723159265024564138e-03
-3.433551771801863703e-04
2.743234221725702332e-02
2.741259974398798857e-02
-8.313934027143308689e-03
-3.852697746299021259e-02
7.270490109786897914e-02
3.733642250729719142e-02
1.275466859606878313e-02
1.275373060737463801e-02
2.558384084933383595e-02
2.867021322354630294e-02
-5.663067893922812263e-02
-5.017681578150268509e-03
-8.563747731341879443e-03
-1.660849656834623850e-04
2.741857724958949444e-02
-4.976870670819889819e-02
-3.688108194297086417e-02
-1.717941450353063434e-02
7.603308722205539757e-03
2.765735426520917958e-02
5.137521963909857242e-02
-6.390821612689646068e-03
2.690232275660665862e-02
2.310652878869911414e-02
1.789346225507449165e-02
7.874420046701560401e-04
-1.056358696568495716e-02
-3.059530049876976049e-02
-3.259465982860363514e-02
1.179906009584114936e-02
-1.600852871669255703e-04
-1.084807864244813000e-02
2.177117877986813402e-02
-3.905506487479275257e-03
-2.492366318875885445e-02
-5.072018324910752135e-03
2.809059072655549147e-02
-2.657801799946904464e-02
1.117803170787684541e-02
4.136030931835261472e-03
-1.598940943129507214e-02
-7.822102855448635587e-04
-3.779094639521791976e-02
1.415780203022068764e-02
-2.838669825611681713e-02
4.660197291851885665e-02
1.373859341961936736e-02
1.615118605299205312e-03
5.606724154053056852e-02
-7.009997925240318839e-03
4.427311607177113889e-03
-2.488856566315609392e-02
7.262304662027674329e-02
9.308782248706549967e-02
-9.532508569649360969e-03
2.017690407177134479e-02
5.090961537694861649e-02
3.768605202276394811e-02
5.671886444391824322e-02
5.877186507775811197e-02
7.928526214193676314e-02
4.308059635137199972e-02
8.260401181295271011e-02
4.828823731427819843e-02
7.436447668938837852e-02
3.953136196276058056e-02
8.434032929288652614e-02
8.402919863386300314e-02
1.341067142613898699e-01
1.084245415938802914e-01
1.180572780612262201e-01
1.176279182171589277e-01
5.805096113848186995e-02
6.530793380816622695e-02
1.185858031030291998e-01
1.390418588018562662e-01
1.257621556715489974e-01
1.085727310994324957e-01
1.285188840894943840e-01
1.266864834671841411e-01
1.601729113665733006e-01
1.583335875117954095e-01
1.194292722955397623e-01
1.334937765812455324e-01
1.418434459069763676e-01
1.445193658947696858e-01
1.793064521576824555e-01
1.266509978397905578e-01
1.602641362939060399e-01
8.820068827262383948e-02
1.019663137949504139e-01
5.565257332957617570e-02
1.237357462618071113e-01
1.392927362784766865e-01
4.550591737154460747e-02
1.322424933235590294e-01
1.518326581243013285e-01
1.605370043168137251e-01
1.226126280813866765e-01
2.006743149165512163e-01
2.020261287714009146e-01
2.496092369691479407e-01
2.645810927460083839e-01
3.229355376580750336e-01
3.947025970106199377e-01
4.118351425520090370e-01
4.891404418543406352e-01
5.860800180785726843e-01
6.166866021680632581e-01
6.616150492116196213e-01
7.911047620902194044e-01
8.879732025366432469e-01
9.540879733737474000e-01
1.001443355299261428e+00
9.660481916694958482e-01
1.063412388616601589e+00
1.099033504646402148e+00
1.138623024524982874e+00
1.194405229032133198e+00
1.103305823667212415e+00
1.180721734228524999e+00
1.066328796023296110e+00
1.007086745208880529e+00
9.974577579900316682e-01
9.336216140195334745e-01
8.532231604480412512e-01
7.348351744255865459e-01
6.957977082198774088e-01
5.732696204194281941e-01
5.064671256640270736e-01
4.577510588644024270e-01
3.715051881348492291e-01
3.693220880623295788e-01
2.686509519805457824e-01
2.344409375017131314e-01
1.764250535601000758e-01
2.021549969342021080e-01
1.252005616303341062e-01
1.590012238501817832e-01
1.411318409878083435e-01
8.417260451998977155e-02
9.043505703234212822e-02
7.026452950462604152e-02
9.818757923673832044e-02
7.526752046406033625e-02
6.941101702586650879e-02
8.536939234305578050e-02
3.950719935341052980e-02
8.840803660156529298e-02
1.144261572544139627e-01
1.037402053071596608e-01
1.331078562791323805e-01
9.841387591822006731e-02
1.012784517903178166e-01
8.696002840444970461e-02
1.137861859648888613e-01
1.904363854452122695e-01
1.452197713566034110e-01
1.248481165991549291e-01
1.176339195246979691e-01
1.051873606833144265e-01
1.334566024319288058e-01
1.862489446756739886e-01
1.556266135680036133e-01
1.444970719860582120e-01
1.524225620223841615e-01
2.017809746492972567e-01
1.840717218358135232e-01
1.716737159522574996e-01
1.849688975464397200e-01
2.638623155449308366e-01
2.374593786503963744e-01
2.478199306501789323e-01
1.537812879732380622e-01
2.040756478389871564e-01
1.912000228346357189e-01
2.284554923030615581e-01
2.451850453785388018e-01
2.240819553650792439e-01
1.886564991242954958e-01
1.951815996946993925e-01
2.334489248201414291e-01
2.358922005513351960e-01
2.176167748268278690e-01
2.160232704201244802e-01
2.120223901650097054e-01
2.166348135712775069e-01
2.277456434396269158e-01
2.225474492913491198e-01
2.014068877390332024e-01
1.959775584333601772e-01
1.912855529087513218e-01
1.666697635117492804e-01
1.621987156375677142e-01
1.979687002070593671e-01
1.556916436766084266e-01
1.967080263373334748e-01
1.657645560246062966e-01
1.867284294511289966e-01
1.759246968905532615e-01
1.766377615466414308e-01
1.314704448178270757e-01
1.523366278200708746e-01
1.564301231094823164e-01
8.191185716237237013e-02
1.736133791637097246e-01
1.846228242559772581e-01
1.391327759694894195e-01
1.289655980374079525e-01
1.165483958868457903e-01
8.331605328654925757e-02
8.389907115468381305e-02
1.103870783169674241e-01
4.658784377784004616e-02
3.838308600953466154e-02
5.280694843730247834e-02
7.904887875887858795e-02
2.813914749205420618e-02
4.224047341661033711e-02
4.082549746579250405e-02
8.835935040661338502e-03
-3.868593997854752331e-02
-8.198778979632975750e-04
3.342738815220024085e-02
3.596999596570070457e-02
3.216296619808617363e-02
3.172820820042114576e-02
-9.078934949657092857e-03
-1.907093170596348836e-02
1.399504918246894519e-02
-6.853312859579088756e-03
2.362516092469016393e-02
4.922668342431268940e-03
2.921664127696594476e-02
-2.589514590567951191e-02
1.761034117226240037e-02
4.427820034384689907e-02
-1.736042421905948860e-02
-6.073049298446354938e-03
-5.092143373632955494e-02
1.983993266803908695e-03
7.318054625175582362e-03
-4.299229032379802556e-02
-1.207309793605524512e-02
-2.264224121226193764e-02
-2.063587724563195613e-02
-9.211395019491017133e-03
-1.913207130240764109e-02
-3.991515208420005206e-02
-1.171722766736429944e-02
-4.259785233658774928e-03
-5.507385260438171781e-02
-3.927203380202463900e-02
-9.299048278903014608e-02
-2.307891767310123188e-02
-4.499744451729431605e-03
-4.947132431880629094e-02
-3.826468792871682428e-02
-4.934817642963251760e-02
-5.469585324933997489e-02
-3.661530727459125917e-02
-6.747648429280578286e-02
-5.134580174111302853e-02
-7.173384055905179801e-02
-2.720814224011116819e-02
-3.796126336126085660e-02
-5.830963326933165380e-02
-4.447136542428199030e-02
-5.239461133909070756e-02
-1.162348475452789492e-02
-5.931672341565470685e-02
-2.715939864442224946e-02
-6.746925634336978228e-02
-2.196523389951440114e-02
-1.532840731907815501e-02
-1.394179837991706833e-02
-2.348068384782311946e-03
-3.767648942781965521e-02
-9.249399629735519102e-03
2.436424400789116707e-03
-7.981091653070784830e-02
-6.406149340112587964e-02
-9.059986998417469961e-02
-1.360280020061163664e-02
-9.033883016118450515e-02
-9.805442745692824480e-02
-7.708029816664073441e-02
-9.572224504825628533e-02
-3.472892084548146602e-02
-7.464803705208333806e-02
-9.192613181681422163e-02
-4.145762976787083914e-02
-3.853958843501733428e-02
-9.385536321829771045e-02
-5.772885647350937954e-02
-3.694969616182358640e-02
-4.363470152288086157e-02
-4.085116602864739821e-02
6.567002959886145130e-03
3.793961052109952325e-02
-3.329398383113944121e-02
-6.077720661264111174e-02
-2.516720297224592229e-02
-9.090612769292322204e-03
-1.308770348326828564e-02
1.047951580295686247e-02
6.237819181957383885e-02
-5.130320675479820014e-02
-1.085443718205545555e-02
5.504563576722126816e-02
-2.225873718693968661e-03
4.189717549566194382e-02
4.204800946239588971e-02
6.524387570543688231e-02
9.063539752436225450e-02
4.837710126882879824e-02
-8.819895112202269516e-03
2.769949403470951810e-02
1.194011322556662869e-01
1.641567193544320874e-02
7.864420991685988627e-02
-6.958898039989024065e-03
3.247548439512275981e-02
1.039179945045883013e-01
8.241107658841276273e-02
7.375089763940961829e-02
6.398178854617983524e-02
3.151051693102160933e-02
1.148021720869264739e-01
8.767438602455415730e-02
5.223847277995830041e-02
1.000688672970052595e-01
1.174047727499155369e-01
9.428566961122339385e-02
1.036655900927804658e-01
1.007672819105003559e-01
7.744265280347860381e-02
9.892394233277090887e-02
1.176870011090161705e-01
1.247675017686886711e-01
1.154151750178045582e-01
6.940789689234633242e-02
1.068896431504264555e-01
1.003014364682257298e-01
6.424057307207164946e-02
7.178389800289465550e-02
1.076632517542115419e-01
1.319742846997268848e-01
4.207102119502857673e-02
1.543218350261263139e-01
1.523224708305386532e-01
1.398914980855360535e-01
1.481245954105528673e-01
1.940254627817931954e-01
1.961508362643442360e-01
2.496014779183454435e-01
2.569902912270577433e-01
3.020437765557256737e-01
4.837525784750622559e-01
4.809920149175526682e-01
5.553729444891144507e-01
6.220154762714217300e-01
6.736216757140751632e-01
7.646416424904960429e-01
8.496894561590411232e-01
9.095542083269791966e-01
9.544743426709736411e-01
1.043902710091243913e+00
1.076580701561474562e+00
1.111464096154482828e+00
1.135768851207860752e+00
1.110023391384212799e+00
1.096131029089004949e+00
1.117794066487540761e+00
1.004251635773284690e+00
9.242773936523429601e-01
9.356370530113412576e-01
8.313116058421727850e-01
7.441297511619838767e-01
7.266120508119575661e-01
6.188664070792952998e-01
5.100062739117359190e-01
5.339341040782903391e-01
3.601965734447654666e-01
3.442442129487581770e-01
2.348744048163923792e-01
2.511155191027584777e-01
1.820018437182864268e-01
1.906659872124598920e-01
1.366587921521620341e-01
1.545222522371422214e-01
8.307388489680805899e-02
3.429545969965168417e-02
7.989476235510239999e-02
5.879378584927397178e-02
8.097522523956915408e-03
2.952162994290329079e-02
3.934430071282644936e-02
1.097929661375366961e-01
8.711899180041565716e-02
5.906848464540620514e-02
8.787175603529134849e-02
1.728858847930613007e-02
6.660935107058847671e-02
1.009313146605733957e-01
9.939318639570737801e-02
8.390820424644461484e-02
1.046762696996264286e-01
1.217468511593045033e-01
1.171104415171048546e-01
1.489905480880465427e-01
1.384476950330304490e-01
1.498840561162403939e-01
1.915260651420244431e-01
1.704087696046542866e-01
2.031478783028082546e-01
1.359489064053633067e-01
1.133535089049106659e-01
1.617506140246397772e-01
1.638194272983754529e-01
2.187754019503547753e-01
1.452575513316018418e-01
1.807022938498076825e-01
1.988621718475192535e-01
1.930617765214759085e-01
1.879649877399888480e-01
2.066079965317158262e-01
2.306406796143969928e-01
2.464238214217500944e-01
2.030778101118351775e-01
1.790117534747051875e-01
2.505625269607108518e-01
1.728786994304474800e-01
2.592456157169071296e-01
2.458113074029619483e-01
2.497673319617688958e-01
2.248865914666547117e-01
1.398348444760084131e-01
1.705711183805758979e-01
2.091439311358845310e-01
1.775260265426978068e-01
1.858704524233415201e-01
2.109327300137469885e-01
1.843673150502823654e-01
1.495257583785206679e-01
2.090221538958731140e-01
1.939970436795269426e-01
1.669354262981624371e-01
1.913733817448074470e-01
1.683092534852362876e-01
2.006316035630517636e-01
1.602889438064818151e-01
1.903803119329511573e-01
8.922950498034826206e-02
1.538781551656054070e-01
1.227331244878575034e-01
1.033885921948329567e-01
1.583486243859536791e-01
1.446602916940752659e-01
5.216579191454975145e-02
1.281929981160778442e-01
1.189328561544416851e-01
7.382475565878833523e-02
6.490967066615160874e-02
3.676121887868387395e-02
6.893354616727864759e-02
6.839989434348463238e-02
9.239515478314422325e-02
7.143388080616734637e-02
2.653874122713299755e-02
6.061086034422095287e-02
4.106490470810610083e-02
1.602299873731252017e-02
-8.090099766855089747e-03
5.401735932127575690e-02
4.449820499616864711e-02
4.380047681336747545e-02
1.401615470250541784e-03
2.469484255180421500e-02
-2.522226825788357468e-02
-1.691988104441722457e-02
1.049059781606496988e-02
1.431104162312420158e-02
-4.530335310246012825e-02
-3.088792165392902078e-02
-1.269252213169423660e-02
2.460594537239135793e-02
-3.081501575971049706e-02
-4.334477927355147309e-03
-3.181584588782378209e-03
-1.989214933339681149e-02
-6.090004190692804853e-03
-5.608343218632538818e-02
-3.689602586195832312e-02
2.443561993877028243e-02
2.528355392153436992e-02
4.267382938229084821e-03
1.092889356818424473e-02
-7.782972713322078295e-02
-5.239474202286249077e-02
-3.406525496874695386e-02
4.701699957500492938e-02
-3.549123356319233008e-02
-4.328998115640837752e-03
-1.583772642310605355e-02
-1.695751023558493553e-02
-2.874306429162115650e-02
-6.438151566708338880e-02
-1.097099398676914667e-01
9.531202647244885195e-03
-4.762585685891111698e-02
-8.531200617642208106e-02
-1.629112091595037379e-02
-1.696386441912330414e-02
-6.557003342649310451e-03
3.840691898678638694e-03
-5.721007435216151488e-02
-5.587401491269926301e-02
-3.914555146261977647e-02
-4.872125452834476234e-03
-9.251528031735101187e-02
-2.548323958679565154e-02
-1.237981195120384237e-03
-2.327077355668626807e-03
-7.625704395758884507e-03
3.199661829867816304e-03
-1.108906667802902896e-01
2.016839228339048148e-02
-1.805786175513789116e-02
1.236355712583483979e-02
-6.258991954114620504e-02
-7.960634240983906207e-02
2.699709586676022482e-02
-5.395039187480995396e-02
-3.499370937425189815e-02
-9.305733494998965488e-03
-1.345561710937713540e-03
8.482440702946944522e-03
-1.643429591946089091e-02
-5.395120590321581672e-02
-2.209271362064377242e-04
1.255677746937550188e-03
-7.376698996853811585e-02
2.446550837621199945e-02
-9.136053891603748700e-02
1.576706887356057324e-02
-3.265936661081035586e-02
9.315351189808661336e-03
5.408997860713370825e-03
-8.880599260397581407e-03
8.081688389251287519e-03
-5.533669566237579135e-03
2.119135153028200644e-02
6.825284171867919414e-02
-3.440668847744254855e-02
-8.646069625580518614e-02
2.857444899230336677e-04
2.026123620670922110e-03
9.226742721160002825e-03
-3.021687303820363296e-03
5.536522188574499737e-02
-7.634501530661447211e-03
5.212086635360431430e-02
6.270649910016401485e-02
5.814479812991674851e-02
6.848454494104461165e-02
8.766374535040330485e-02
6.617643547608852150e-02
5.959629342851273381e-02
9.000941275872843816e-02
9.882724502194681349e-02
1.128393362930144861e-01
4.000707883165974255e-02
9.096201948188882558e-02
6.941670427442536706e-02
1.228989105713210322e-01
1.323083523155631491e-01
1.064204569586009869e-01
9.659478770285390148e-02
1.398439227061369083e-01
1.210130595199600811e-01
1.704672122317613392e-01
1.830908224521581862e-01
1.617020261106605350e-01
1.399770827512925031e-01
1.886144949910810165e-01
1.414542452437469455e-01
1.197885004815457677e-01
1.134029982219877941e-01
1.116574110806535652e-01
1.313190109977232511e-01
1.438651170724747075e-01
8.578389695153232353e-02
1.129571963132132845e-01
1.310673977168207160e-01
1.425086836549521729e-01
1.214394952351610102e-01
1.293616783701091733e-01
8.582564625384545010e-02
9.814743427876644610e-02
1.282462328131301066e-01
1.525623241261480634e-01
1.545692822366879771e-01
1.364102475478392584e-01
1.735516410918844232e-01
2.499611685055059818e-01
2.506773524059275338e-01
2.655045653826412777e-01
2.822713425681823152e-01
3.410848830001559917e-01
4.187738259915682049e-01
4.891640479895666971e-01
5.656087599531109955e-01
6.323539735498791003e-01
6.845142243156480122e-01
7.562271290722117900e-01
9.078758959687183161e-01
9.014000409027920213e-01
9.453715119147840795e-01
9.931123484777552024e-01
1.079843204868852657e+00
1.155000597145978247e+00
1.132668563435789810e+00
1.203280145799776157e+00
1.153234341746561142e+00
1.166930855196507411e+00
1.077561021595304647e+00
1.032407833837641009e+00
1.001227757176249122e+00
9.482689485405283447e-01
8.574326987101204001e-01
7.966168252342779033e-01
7.288485120270163931e-01
5.923661326053849541e-01
5.508639441759050071e-01
4.755485860404491394e-01
4.121687056552970074e-01
3.796728581322032503e-01
3.000871092466532719e-01
2.096360372830519125e-01
2.239938645217083302e-01
1.669304267941029429e-01
1.875597834675384878e-01
1.761308085869708051e-01
7.087273770855449795e-02
1.012786976535046402e-01
1.270995999877120031e-01
6.924054055474375413e-02
1.324748924784174553e-01
1.399696733466551102e-01
1.047246830007746432e-01
8.872048741221927326e-02
4.594937543370315042e-02
1.437636298199777840e-01
1.840617150486854314e-01
1.829211991350586652e-01
1.285802687726218252e-01
1.072519781908936598e-01
1.709210282094019151e-01
1.478502111000003227e-01
1.719253125938114968e-01
1.726148553798085850e-01
1.722692434962319885e-01
2.062509396416848939e-01
2.132275944106246934e-01
1.713622875013270375e-01
1.650370096727858393e-01
1.233259592728183501e-01
1.933452459535458245e-01
1.762030470584629305e-01
2.266743765244366715e-01
2.089224295197932013e-01
2.168617205921721247e-01
2.524983573038461215e-01
2.442636376674862941e-01
2.327877211055307538e-01
2.905442934974313829e-01
2.654656334770894022e-01
2.339084837407552353e-01
2.379914928347187375e-01
2.751963001811107978e-01
2.597078707888617610e-01
2.217192069696882761e-01
2.835743832400612341e-01
2.954715615920453509e-01
2.938570917038753061e-01
3.049961556223421688e-01
3.207250919984319104e-01
3.101219341636801130e-01
2.676585010381614116e-01
2.500472283518498928e-01
1.999253400683155268e-01
2.533121095339761486e-01
2.664010607103013961e-01
2.496529112613398993e-01
1.889089801198701457e-01
2.338688976290523858e-01
2.584558830132030471e-01
2.046781396635832528e-01
2.365330288055584873e-01
2.403813890638003825e-01
2.566227373084103980e-01
2.699116812575785285e-01
2.024655436737754222e-01
2.144155157823593727e-01
2.103119091205354618e-01
2.181717240341255193e-01
2.095358670907303544e-01
2.307988409500568161e-01
1.126750252942662761e-01
1.896686140654531005e-01
1.862312185094952277e-01
1.590173334639373437e-01
9.262065003916050698e-02
1.531955490659855368e-01
1.282264925025760616e-01
1.944481138868208447e-01
1.499966152949196441e-01
1.095771998748447523e-01
6.665396620879242284e-02
1.408424362203513636e-01
1.390083481243765962e-01
1.067692999403670323e-01
1.265987838955337785e-01
9.342093911133322881e-02
1.314071463478608537e-01
1.248394901129117468e-01
4.171066196793994652e-02
4.499706161830593215e-02
1.439234012853423117e-01
1.072426985309652692e-01
3.785815211131880742e-02
2.523230662926845627e-02
7.535207258238942052e-02
3.178479272481581075e-02
5.364696790504532020e-02
5.898022651033705405e-02
5.508971379297503829e-02
8.915403788491978176e-02
1.081028586550935450e-01
3.653831009149127729e-02
1.497095623667833025e-02
5.867576371180541206e-02
9.420452129172149358e-02
3.153864190968816428e-02
6.764109289261054092e-02
1.562665015601004057e-02
4.009926153418434669e-02
3.428084667484902065e-03
3.753619903194190671e-02
3.273697526338334440e-02
5.358311060498469058e-02
8.787447032861470109e-02
2.213844527344516894e-02
-2.683918718846197912e-02
2.650698317449570740e-02
4.103256110716835270e-02
3.765413196268971308e-02
2.647551726661647245e-02
7.548368174326176849e-02
3.464182395362719324e-02
2.716012042830424217e-02
6.763438798451086587e-03
-2.247737965611135147e-02
3.966581435820740881e-02
3.704897837350600021e-02
-2.165970047377237251e-03
2.823762183707964959e-02
2.523302869033721557e-02
1.081602046581885829e-02
5.774774307552077435e-03
4.176826016689083598e-02
2.290003158296033750e-02
1.201834593586533634e-02
3.985432361429112891e-03
2.603574168449028850e-02
5.778047064367342056e-02
3.636562212584646542e-02
2.318192077142723975e-02
3.968717479628679906e-02
7.150771466030697576e-02
4.543829363704770391e-02
3.868687741910401684e-02
5.019630669725008709e-02
2.646357727034177876e-02
3.689304153743073328e-02
1.687232164871696818e-02
-1.480311784508780981e-02
4.217318039676371672e-02
4.246490305918913105e-02
2.361096485531759270e-02
6.349601491415579613e-02
1.095323827321037849e-02
-2.035953621726828422e-02
1.204968461473531274e-02
-1.308352475026137995e-02
4.346741480489706849e-02
1.094569632621680833e-02
6.323033397163271840e-02
6.278505888861976580e-02
6.303025501753396070e-03
9.989830061967422403e-03
5.044657464707547057e-02
6.398842514344758869e-02
-2.560609864321364976e-02
4.340132586239289769e-02
-3.079848923738555400e-02
1.885108470856831572e-02
6.829288891562737551e-02
1.259521531354518276e-01
2.866942041462387097e-02
-1.405055631147261730e-03
2.077711951684182295e-02
3.833660024198402155e-02
1.641904215361256539e-02
8.952469474483432804e-03
2.406169792337087970e-02
4.890364097391174808e-02
3.212227585111356032e-02
1.092376783085998934e-02
1.743636285346702314e-02
2.528793768768511363e-02
7.885421630910847968e-03
1.681743933163701299e-02
5.750349486772975138e-02
3.144645565478507848e-02
-1.408781624676770650e-02
6.942499457724822520e-02
5.133689721379516846e-02
-2.500894248314573798e-03
2.818853482197612725e-02
1.554276419178991092e-02
5.976773366077978156e-02
2.846483386174175276e-02
3.758403957324316785e-02
3.424324248162318590e-02
-4.334132862468413616e-03
8.238160447846698542e-02
6.023842207715464359e-02
1.809479387156789909e-02
4.641891785168165280e-02
7.003232896680125497e-02
4.262572243015763651e-02
8.779978368513266518e-02
1.287753112141297729e-01
3.759771994206542040e-02
2.404602037343553031e-02
1.197912675529312285e-02
-2.460739526473825628e-02
7.938157803029623205e-02
