1.162132456476427489e+00
1.199009575849691700e+00
1.142829651294647197e+00
1.129824761121732024e+00
1.090184577794336640e+00
1.003584420833529833e+00
9.595500252068225322e-01
9.316683332311658239e-01
7.910139844553782940e-01
7.741103201047948579e-01
6.423870595933707239e-01
6.421768608698195102e-01
4.944821909923249326e-01
4.455480651251856328e-01
4.458311668336976119e-01
3.968556926487124548e-01
3.312105317423139628e-01
2.371527204435844860e-01
2.413205195512926338e-01
2.139676265228559471e-01
1.686282131379918670e-01
2.002627681617130395e-01
1.451701235927970179e-01
1.223156189901180579e-01
1.078482715935646236e-01
2.056461406574136563e-01
1.386733028819762126e-01
1.405310029419158391e-01
1.267155789321690595e-01
2.020156639131295839e-01
1.236187052896537686e-01
1.334841587205607694e-01
1.649334234069722016e-01
1.792137145023863787e-01
2.051022302615537751e-01
1.707033881507322715e-01
2.430240283585221317e-01
1.824067792145002143e-01
1.780089726642369863e-01
1.809396008887570462e-01
1.965872730549632630e-01
1.904400496036338097e-01
2.536348860127694560e-01
2.065919442125655758e-01
2.380194156513430470e-01
2.163626239563331555e-01
2.170983646039842119e-01
2.904306168383493092e-01
3.100207712788212167e-01
3.044931386130100837e-01
2.265338167032147909e-01
2.346955417462986138e-01
3.377563771910196411e-01
2.742244547529313348e-01
2.437636151457944211e-01
3.203183486369112765e-01
2.923955961461884856e-01
3.096503902423903831e-01
2.272797608304436834e-01
2.861311170337832999e-01
3.255320629866518267e-01
2.786467144184541778e-01
3.353350810708950469e-01
2.588462079161496510e-01
2.946715378642372762e-01
3.467345458268568659e-01
2.618400956049156125e-01
3.031348363388017275e-01
3.108200501112955982e-01
2.939452427756644171e-01
2.813063543231723584e-01
2.598019151436540275e-01
2.889622085440264887e-01
2.766640200493188373e-01
2.330502976726447906e-01
3.052624731441966888e-01
2.408417905846260976e-01
2.214751233610907921e-01
2.413377847075240668e-01
2.276505921504994034e-01
2.417275475326537693e-01
2.070812146372121854e-01
2.525301765995086600e-01
2.751342036327954488e-01
2.313846796842783105e-01
1.792995563341527598e-01
1.895829845223468424e-01
2.179198912374296082e-01
1.465432471477716991e-01
1.628247123336309665e-01
1.446422431470009429e-01
1.918085387844096212e-01
2.475239987714127343e-01
1.391913540499922219e-01
1.959365784707924052e-01
1.490324649856905326e-01
1.209341401460507226e-01
2.021534494882955280e-01
2.148250943995925200e-01
1.573049984479967522e-01
1.508712643183787450e-01
1.370456605282511786e-01
1.260528713123955369e-01
1.361718736523691298e-01
1.418733151191934883e-01
1.672648144986321750e-01
9.761472480958721665e-02
1.132096265563065224e-01
1.029860435517000461e-01
1.327736650277689945e-01
1.706266886065273825e-01
1.271129176994585941e-01
1.161926670300403308e-01
1.165264320316434787e-01
1.245105518550695956e-01
1.562686689468186230e-01
3.076727095047648852e-02
9.695259637528623464e-02
-6.974314199592809849e-04
1.031873646971262631e-01
8.921499612706505766e-02
5.444059611261530679e-02
-1.097436822332527318e-02
6.709054082216395209e-02
7.271323971084377169e-02
6.274517299519771774e-02
4.470600789155057542e-02
3.525088888099905948e-02
5.949733051387008642e-02
3.597716371568702998e-02
8.337703331734729051e-02
5.587952089164176933e-02
5.717517180830335166e-03
6.204629256815967497e-02
6.852673992957333815e-02
1.040615233280596102e-01
8.284989360388225754e-02
2.758995601199965009e-02
9.693022267807754888e-02
1.223816174658169664e-02
5.438649227088259569e-02
7.594482059155613363e-02
9.692474935895797894e-02
1.097333438140887241e-01
9.127393247461032533e-02
4.896599370396503142e-02
7.055663042415259711e-02
6.007468391204593555e-02
3.231457874991230245e-02
5.046852345125188433e-02
1.083024490819198549e-01
7.428110134061335912e-02
1.173111482977690773e-01
2.380263179300119714e-02
4.570058649393651806e-02
7.060611889229401195e-02
8.156086710197543721e-02
5.707868045459511819e-02
8.604925578381170115e-02
8.744451457774432557e-02
2.381844044366590585e-02
9.004738935571202085e-02
1.018259418749851153e-01
8.089971182333799415e-02
1.941268621664579350e-02
6.911723055219212708e-02
9.358900455794605389e-02
5.772738942134916784e-02
1.147143026750606920e-01
1.127354510714847213e-01
9.877606848019630792e-02
9.936175993669590922e-02
1.089151783743108337e-01
1.074765115698152890e-01
7.366687999562473999e-02
1.041058832194132200e-01
1.240832860325008641e-01
1.694644965587992491e-01
1.527349967433284106e-01
1.812502395568429403e-01
1.000464180756186622e-01
1.365970700617571976e-01
2.145223439796764275e-01
1.349413545285035043e-01
1.391278298053372497e-01
1.584712670938567269e-01
2.315601728156640171e-01
1.550110393037577583e-01
1.957318628026894214e-01
1.942948973636960952e-01
1.278494409382372465e-01
1.880182922729668749e-01
1.742736937715754775e-01
2.131398861286857294e-01
2.464613196680550400e-01
1.849785838668738247e-01
1.855347358536700297e-01
2.714976932525173803e-01
1.742496258857021973e-01
1.545009944412664427e-01
2.349068710737965138e-01
1.904886286005207374e-01
1.986378097853105373e-01
2.550018167682535086e-01
1.437852739158355653e-01
1.778725900802046733e-01
1.447371399698184069e-01
1.904253645702665421e-01
1.630621573791660173e-01
1.448252789412881603e-01
2.038264582143400339e-01
1.859670833704505921e-01
1.543963759787578272e-01
1.656029097897770974e-01
2.206307570117594929e-01
1.817249497637387357e-01
2.611386233737202911e-01
3.225784545424529304e-01
3.365965362742389666e-01
3.385515843038558459e-01
4.127808703548398461e-01
4.208428978181071312e-01
5.224682828992632810e-01
5.739917760643743483e-01
6.223903241607099401e-01
7.449942615257443279e-01
7.408729638559784503e-01
8.377399003744835371e-01
9.114813724958994445e-01
9.931858939079908355e-01
1.104697879580255560e+00
1.136152336223121839e+00
1.153097410058833594e+00
1.175275513680310135e+00
1.182995780192304558e+00
1.220127602278570089e+00
1.106075860714771153e+00
1.151911399907187272e+00
1.069584224865105515e+00
1.045466566578418188e+00
9.826030636684411901e-01
9.199845303564909704e-01
8.720072051862537421e-01
7.080096270076157161e-01
7.041806556167425901e-01
5.990864275362844937e-01
5.178508972139801436e-01
5.283022333501311563e-01
4.297983329872447911e-01
3.440758392721955938e-01
3.398091580005410117e-01
2.708281531555952748e-01
2.267190948224949987e-01
1.949790600358355663e-01
2.011837898791618284e-01
1.573468158952601725e-01
1.683491259970560927e-01
1.818120473566990358e-01
1.530428490345408787e-01
2.060286367902369742e-01
1.461463030260679030e-01
1.868430678942765155e-01
1.775464596503873171e-01
1.968844301847309242e-01
2.139100294054415985e-01
1.060997643634361415e-01
1.715155618469000609e-01
1.651408527383587399e-01
1.770042905368362507e-01
1.670635677281165077e-01
1.681122495866666788e-01
1.569216750222616197e-01
1.983516587351252802e-01
2.289688343786304980e-01
1.916266285290202653e-01
2.020183115558804587e-01
1.962919829353774182e-01
1.926675891684364594e-01
2.205605164962134157e-01
2.429508236947209576e-01
2.752274334034016667e-01
2.064207589341890692e-01
2.457545195798247761e-01
2.862795935657542201e-01
2.196094492921414343e-01
2.967769467050684895e-01
2.491263780529908711e-01
2.868851517461316059e-01
2.619602463618186383e-01
2.849160422546492821e-01
3.217582585789903193e-01
2.718495077269331706e-01
3.070538270958195759e-01
2.867188573202748003e-01
2.558675511297811012e-01
2.756913647613101204e-01
2.740656176867807270e-01
2.378412323989302912e-01
2.934900163783355498e-01
2.986191883251528845e-01
3.020535464101888889e-01
3.190222018460767139e-01
3.028437064465510642e-01
2.538906531635612973e-01
2.576977386853220309e-01
2.916657174757846249e-01
2.749817274794709721e-01
2.592441135242486983e-01
2.297402808064387958e-01
2.359927448560403818e-01
2.650759438528239031e-01
1.845051528582092315e-01
1.680491192275699874e-01
2.540636738817773077e-01
2.120868923654471994e-01
2.368098221662717495e-01
2.645686241180681408e-01
1.812626244216740401e-01
1.558433969464038393e-01
1.918252860920300618e-01
1.736874508542900486e-01
1.875316315669293965e-01
1.984591415963156968e-01
1.861271971320905549e-01
1.717216364182474753e-01
1.961024895387323275e-01
1.785340190856969933e-01
1.470729570075858250e-01
1.657350414905778835e-01
9.454579260265510987e-02
1.671496729900342759e-01
1.303236848098913159e-01
8.816660994107562710e-02
1.063345940017941527e-01
1.447329720940092324e-01
8.548380888293974356e-02
1.158787506687443264e-01
1.251173737341457759e-01
9.483119034733035468e-02
6.365876667677436429e-02
8.333542948442639042e-02
3.878624622284077006e-02
6.238467008066636565e-02
3.996512141036794724e-02
6.807353927238868341e-02
2.786057480580854048e-02
6.506051054712569393e-02
9.331883843656339772e-02
9.213175345119718751e-02
1.597886212089712557e-02
3.058742812113850532e-02
7.352558978988887883e-02
6.657622651902347921e-02
2.464683176095176440e-02
2.628785441893048691e-02
4.125536564496347369e-02
-1.818428703287150450e-02
5.071816243731312734e-02
6.570590879027748965e-02
1.990279005115316857e-02
-1.253605792395481866e-02
7.098052164470691761e-02
3.383918224367800376e-02
4.726740776399787625e-02
-1.480919635971034154e-02
-1.579368523406497749e-02
3.513641901629054043e-02
5.259433819940773774e-02
-1.298569154092594352e-02
1.702815294202492113e-02
-2.827935907581965308e-02
-2.391968698078228428e-03
1.032263766135819646e-02
3.213603048120748651e-02
-4.620328037763929419e-02
5.613980345075861994e-02
1.102971329030831039e-02
5.465798367659457924e-02
3.653130072038224263e-02
4.094992443973483748e-02
7.587021405468880042e-02
-8.232768103158583789e-03
1.931200979066419535e-02
-1.435534492962733250e-02
1.250711929075686707e-02
3.748085361452133113e-02
5.010728483776193815e-02
5.341182332955876286e-03
-1.869170566598383348e-02
2.042410447148677172e-02
-6.427623299998415363e-03
2.862505089898706098e-03
4.157106458081997330e-02
3.737640516143627550e-02
4.939966449378093566e-02
1.600973825254847771e-02
5.834321261944956649e-02
3.065472231365590217e-02
2.405893594489351764e-02
2.193193592723926763e-03
-2.474902780338163188e-02
-5.956934009370980221e-03
5.065680033746043642e-02
2.041742441212155909e-02
1.948769644727042089e-03
4.259557915917444593e-02
6.763717357584207723e-02
7.594698104706493202e-02
6.704863576904526723e-02
7.065905122120019755e-02
6.103171299038704506e-02
1.010050425097411275e-01
8.156510961668218818e-02
8.950953219292399898e-02
1.278812100985253497e-01
1.254316518220902621e-01
1.010042467895058693e-01
1.015237799188687395e-01
1.059473546035290537e-01
5.984484011746371568e-02
1.576749793512222941e-01
1.082661964495514190e-01
1.582115935087404501e-01
1.372685822473544148e-01
1.808711236666836475e-01
1.577280056353312643e-01
1.715248417238077749e-01
1.282889411537306845e-01
1.089331596863127583e-01
1.529061996778071364e-01
9.148339547217666790e-02
1.350120001054423979e-01
1.129599282947992417e-01
1.226031450785735472e-01
1.643997134799841386e-01
1.607919763864171236e-01
1.380851484000518714e-01
1.503616319810917035e-01
1.222295153588827399e-01
2.089461340393226063e-01
1.430480153092565931e-01
1.145877061573047917e-01
1.574993353167206955e-01
1.683777266496877811e-01
1.092615182467750329e-01
9.308438053826448288e-02
1.045377025267666404e-01
1.294985868852856215e-01
1.599763729254695122e-01
1.289510653292458564e-01
1.863622377324593571e-01
2.192331536884387644e-01
2.677861956663092347e-01
3.153683641138421700e-01
3.546526464226764097e-01
4.485520290245627040e-01
4.860646770583454956e-01
5.239871165163788591e-01
5.569462992780502830e-01
6.378373136843252800e-01
6.889284799682170446e-01
8.097768806943247411e-01
8.860580373211730532e-01
9.691374632260967292e-01
1.009636080276874459e+00
1.083401139412382141e+00
1.123191238226501021e+00
1.086769397928972092e+00
1.115133996437997377e+00
1.129265549082748121e+00
1.093200585402871461e+00
1.078300591168440903e+00
1.053374211687413631e+00
9.884385199423812995e-01
9.308885647757734194e-01
8.344411609058814960e-01
8.051055244005037581e-01
7.277095320422084512e-01
6.163867928379512806e-01
5.267013688550661321e-01
5.319843751554528266e-01
4.817739863447649817e-01
3.762783090128661301e-01
3.045913042558427986e-01
2.996505307800649831e-01
2.418447015707456960e-01
1.873382415687402103e-01
1.947002633985300823e-01
1.189328509767202113e-01
1.050403988149554158e-01
1.235740983063265130e-01
1.067310563829868275e-01
1.162076111436615017e-01
1.292775556577853424e-01
4.541071497553909875e-02
9.335683338955698407e-02
1.507659731860065688e-01
7.842790478975775192e-02
7.827820397462741109e-02
3.649970742348744579e-02
1.112508319959532033e-01
1.304269060193916918e-01
1.354239676864174569e-01
9.219056834281171009e-02
1.283946966742121332e-01
1.407303581632654566e-01
1.411118542015213084e-01
1.121746852606040068e-01
1.527865861283572713e-01
1.314328203942225215e-01
1.050461269913645079e-01
1.868858361003257473e-01
1.757800241985685574e-01
1.943370122205958228e-01
1.653969626612072086e-01
2.049073114846263477e-01
2.212665562645646233e-01
2.475069480920729093e-01
2.233626931506414448e-01
2.143086138249181427e-01
1.649281334008540767e-01
2.064150177048991175e-01
1.699289969892686658e-01
1.907391588054116183e-01
2.763400498213379186e-01
1.890554061171247913e-01
1.511922783403683024e-01
2.472458884977799531e-01
2.036900449525077261e-01
2.475983400468768914e-01
1.897712997828741033e-01
2.120535801893987105e-01
2.603011854252194612e-01
1.839966694066350050e-01
2.174530196199205845e-01
2.297889956778010612e-01
1.976422999728530139e-01
2.243055389372262398e-01
2.150089383326782844e-01
2.277446418456398058e-01
2.638299278674753889e-01
2.853752919164483370e-01
2.152863674052639398e-01
1.940693466510000909e-01
2.063460231739778494e-01
1.816473895629739099e-01
1.362653367943390259e-01
1.775548705620693113e-01
2.062936701299314946e-01
1.245956890632961694e-01
1.335575732264766002e-01
1.400621186557458320e-01
1.630036978481205767e-01
2.173623792593461779e-01
1.159170873562940657e-01
1.370209220842727726e-01
1.285076525619591181e-01
1.133264204867201752e-01
1.149591069275856386e-01
9.648793363533793299e-02
1.867886061804701625e-01
1.211032698119049594e-01
7.910125832516023969e-02
1.225379153738762883e-01
8.906097571561338855e-02
7.752492143839467831e-02
6.485954206877111994e-02
5.746946013743933074e-02
2.314752143987386379e-02
4.446444896432144578e-03
6.082846106532122793e-02
3.913992201087874295e-02
6.657254592724322351e-02
9.054820430245663632e-03
-1.525908772951882486e-03
5.051877648450485425e-02
1.435622800188687126e-02
4.503404147916523909e-02
1.667416476935399544e-02
6.846625973154416012e-02
3.144368972248965527e-02
1.785349449623840901e-02
2.650476512311149974e-02
-8.580647388370901685e-03
-5.243174250295904587e-02
5.079316583109699801e-03
5.003731234907139724e-02
-7.924737926022723533e-02
1.350085430483025095e-03
-6.084119022149553357e-02
-1.742176740846671998e-02
-1.615674893911862517e-02
2.161484175300175392e-03
-1.553344972588371897e-02
1.787751913052450237e-02
1.027398324511370753e-02
-3.191319624374643754e-02
5.614394139284231700e-03
-3.771903377454554479e-02
-4.391745043243350938e-02
-6.646106791600731034e-02
8.146234380969771816e-03
-4.102504030023645942e-02
-1.054123468045356782e-01
-1.718196737194609830e-02
-4.707700321405670213e-02
-4.356485778535238579e-02
-4.211534547534144524e-02
-4.561885395867635445e-02
4.594431091072564977e-02
1.368757480225109291e-02
-1.546052501633776374e-02
-2.937340638552905780e-02
-2.860644220715163888e-03
-2.945368191538520058e-02
-1.225327647816205900e-02
-1.986959159744178943e-02
-3.256878331249325048e-02
-7.922561290939426903e-03
-4.835323389227917656e-02
-3.350643016970118737e-02
-6.404325496186845379e-02
-5.985905549086401739e-02
-1.089649261681326919e-01
-1.840539907086188171e-02
-9.020856990631091754e-03
2.889753075170184426e-03
-6.128474420650065896e-02
-1.337707559765618712e-02
-2.477226109530120818e-02
-6.057396279813900830e-04
-4.005594429812722734e-02
-2.817342367409791243e-02
-6.204635123766049504e-02
-3.408713429205111056e-02
-9.403703532926133146e-03
-9.683974536690911905e-04
-5.324415574573290039e-02
-1.427058404599301777e-02
9.832704384439852618e-03
5.141542829255418140e-02
-1.183666654204429403e-02
3.272913647676584104e-02
5.849969957352242622e-03
1.412889299001125060e-02
6.092333988513567999e-03
6.092268878726402048e-03
2.823844831373288622e-02
7.900776865620007250e-02
2.999547563670866557e-02
3.035622346096363000e-02
6.890581459592134972e-02
6.762410273924787663e-02
7.009980891942291237e-02
8.425145053216033519e-02
5.059640145476116541e-02
5.789873737608391968e-02
1.181300004297625300e-01
8.750236887145021458e-02
1.127415852671163621e-01
1.341402491880558101e-01
1.249406369015390872e-01
6.018320415151368064e-02
9.903499778251173558e-02
1.345438800638387444e-01
1.193239690870585012e-01
1.090217311262112604e-01
5.373269683571618716e-02
8.341856569520680886e-02
1.026066260287860910e-01
5.603477313510871194e-02
1.206522157716066607e-01
9.119123047018842798e-02
3.317891782544936385e-02
7.355566545836375592e-02
8.029242420357934895e-02
8.391260827695509739e-02
1.302344958636391103e-01
1.061210287951591252e-01
5.064844216724819631e-02
5.200005123474538138e-02
9.654779991096978931e-02
1.196151864385633923e-01
1.609345831594809761e-01
2.031057166286537874e-01
2.301187930359086531e-01
1.945967226963510044e-01
2.735051561428490374e-01
3.024261518483085664e-01
3.077435897468999149e-01
3.410186379469836160e-01
4.649852442595002744e-01
4.837278576938894847e-01
5.746200308289642900e-01
6.532706821441145451e-01
7.542190011919116532e-01
8.579968808520177515e-01
8.877198490335080905e-01
9.324979067973290237e-01
9.393288525622948137e-01
1.057285842269917397e+00
1.074352436984710168e+00
1.073585484626655706e+00
1.127578965827622293e+00
1.045205217119972829e+00
1.034963778635479281e+00
1.009955986167035080e+00
9.508929536766870250e-01
9.252083600813525432e-01
8.560975396632030110e-01
8.020116854620642499e-01
7.109303793174471808e-01
6.170330871742777390e-01
5.361812245066123195e-01
4.888916053352120317e-01
4.027687109201354421e-01
3.485935708366791896e-01
3.073410143552098295e-01
2.476485119485670738e-01
2.108581938954167401e-01
1.425012544797959746e-01
1.775272179140303108e-01
8.033940283075063915e-02
1.083435562848934774e-01
6.672863965176546730e-02
1.037957681833530654e-01
9.114426921549184657e-02
6.060587323804617760e-02
1.055733958529206928e-01
5.336716896192972293e-02
8.691870225831564711e-02
4.127166785523311843e-02
7.865726184214488770e-02
4.263913196296737623e-02
7.579623344647042071e-02
7.863673556564756972e-02
1.117721891199266876e-01
7.072182245059199790e-02
1.886061492365788961e-01
6.058898145769442412e-02
1.147318100265215385e-01
1.220821598808134456e-01
1.352816764994784204e-01
1.093277789329956950e-01
1.376305992360591923e-01
1.189474605753995662e-01
1.974731783098664095e-01
1.274982028011941992e-01
1.472378906797838227e-01
1.367408738396271584e-01
1.374116806024451576e-01
1.239637125225763470e-01
1.905150636735767899e-01
1.542881073327073971e-01
1.544240854451943701e-01
1.530401483707846955e-01
1.943793429764528735e-01
1.889129819576241265e-01
1.917551680659275171e-01
1.705097034737820816e-01
2.084589853676108717e-01
1.772427359168126659e-01
2.005822939342803424e-01
1.952952129255414448e-01
1.494854637514371476e-01
2.612960660209869834e-01
2.176073246776355496e-01
2.053400816078116420e-01
2.092862572647533614e-01
2.595710227433967732e-01
2.306128183535631204e-01
2.051318326198246222e-01
1.712461829227825139e-01
1.734796163838595862e-01
1.330832459645840404e-01
1.730142373922838872e-01
2.005095107085992923e-01
1.959790152030868871e-01
1.915096906605006088e-01
1.533750312256798032e-01
1.809502541183348745e-01
1.845173323253362363e-01
8.816399425240883936e-02
1.591124882366069526e-01
2.072637460030696266e-01
1.308048770165816943e-01
5.849405192897647737e-02
1.042709670252617016e-01
6.863779179533693875e-02
9.840619778296358366e-02
7.503611871040619108e-02
1.339808064756063954e-01
1.237009094949504118e-01
1.049354241873811655e-01
1.257591448804723511e-01
6.637860604472009540e-02
7.997021448349175832e-02
1.380893379677828881e-01
8.439107400495288180e-02
7.898640562264014342e-02
3.325125948745202842e-02
3.867047690467266541e-02
1.609323545851286397e-02
9.175563508164177873e-02
-1.013261007697343480e-02
5.946853773311863711e-02
4.505900517194932203e-02
-2.473997283816705556e-02
5.352660148181501848e-02
7.547224649385599060e-03
-2.810260631999544900e-02
1.883720271821529707e-02
-2.023003186019967786e-02
-4.999362807787566254e-03
-1.715826762665392108e-02
-3.133434008890270683e-02
-4.343053982377180489e-02
1.346327216020978129e-02
-3.207619190903190920e-03
-7.498613062265950535e-03
-2.846624506792771667e-02
-1.808209873473232837e-02
-4.364924518233555956e-02
-4.598304880650748439e-02
2.623232589217026900e-02
-1.088167130511991099e-04
-4.494319968685152322e-02
-7.432830589536476573e-02
-8.171389428531672383e-02
-5.084343925771513811e-02
-2.962756658134590299e-02
-3.025641064596341911e-02
-3.021923832649317521e-02
-2.542030634644814116e-02
-6.729664046844407999e-02
8.463629437048758586e-03
-4.324123525099306947e-02
-2.895564052137079153e-02
-5.790142847936498305e-02
-2.922027727441425804e-02
2.345763767556689749e-02
-6.875632902756731446e-02
-7.270766966569647272e-02
-6.527844216261495525e-02
-4.937808918487198578e-02
-5.500403984112942068e-02
-7.049618493516013329e-02
-4.061404263701434703e-02
7.931805527281933499e-03
-4.310195440707709214e-02
-4.112783958233043324e-02
-2.749085172044709452e-02
-1.780503950846570177e-02
4.601124581634460919e-03
-2.865295102565721536e-02
-3.508236242481030387e-02
-6.377882575692908618e-02
-1.073711313786140237e-02
-5.703830437514557927e-02
-5.658895009484137678e-02
-2.299580121699961593e-02
1.915502119123891483e-02
-3.423476011311696321e-03
-2.428599778471445675e-02
-5.035821564051966293e-02
2.720263507366360578e-02
-1.750108588590839134e-02
-2.163961635486142884e-02
6.809518275953212185e-03
-1.997852551175212377e-02
-2.559707092521269073e-02
-1.896922519044852429e-02
-1.508157879237453577e-02
-2.493066183087870591e-02
-2.389538372344614248e-02
4.700680042438281497e-02
4.266233031271370740e-02
2.824910239270082835e-03
5.921326898508361136e-02
4.701067874400678692e-02
3.327966075853251715e-02
1.154446783060332493e-02
6.392166153034328779e-02
1.149984585770814777e-01
6.479800184377820793e-02
9.957282289193084002e-02
6.840504798904731287e-02
1.074076724546689787e-01
8.005651889760403983e-02
1.698928828299493127e-02
7.182198937153286278e-02
1.014694825019918784e-01
1.336766608531469447e-01
9.992631754922659537e-02
1.083677666810282103e-01
9.238100267162006884e-02
1.589157244207896613e-01
1.587448036238738869e-01
9.461006977193126000e-02
7.011161857717984613e-02
6.163136888896015436e-02
1.337420505694902340e-01
1.190606506070390758e-01
9.052129475073072973e-02
1.207587586517897826e-01
7.404852534007247411e-02
1.329792697649324618e-01
9.577446178084460249e-02
7.300558856280545128e-02
9.293333021132046956e-02
9.092599377778222414e-02
1.137785607757819534e-01
1.388520512343971447e-01
1.399536798865610721e-01
1.160776441343374377e-01
1.130852565865471671e-01
1.123122947311978592e-01
9.090232869513610592e-02
1.624940101649937629e-01
1.618597565995829601e-01
2.540279262461411225e-01
2.477796070877000822e-01
3.190804176998088271e-01
3.316951158981469860e-01
3.818721602775362323e-01
4.822285734923793532e-01
5.395239209060236352e-01
6.119617188743957659e-01
6.730613999600664199e-01
7.737972477033464580e-01
8.422995938531853133e-01
8.268723436965964568e-01
9.477792489456766667e-01
1.041166686070653435e+00
1.025234395097699869e+00
1.038305073738438056e+00
1.105029181600536203e+00
1.130982658445302658e+00
1.093505443122307463e+00
1.124160794877283598e+00
1.105671829868913880e+00
9.458737928592568789e-01
9.353803610101539823e-01
8.137677022902808366e-01
8.316411541208972302e-01
7.175404714957502872e-01
6.485349192229918902e-01
6.229176430332318271e-01
4.768786846684667236e-01
4.016795055142864390e-01
3.183083260153437566e-01
3.683475927987487353e-01
3.114788011774400345e-01
2.282830939232733114e-01
1.621841140366957479e-01
1.950804129433205136e-01
2.281346790000658986e-01
1.191267562841384492e-01
7.546986244544386102e-02
1.381996498148170271e-01
5.979058630981676226e-02
7.843746344362718947e-02
8.290972513042869224e-03
7.825914521557855719e-02
5.041748647181232279e-02
1.291195476937387343e-01
6.557244269661106906e-02
1.224523923816212556e-01
1.006398763419441567e-01
1.126734242430553617e-01
1.299934801032385234e-01
1.183460596136273330e-01
1.062830943313704257e-01
1.072183448063629974e-01
1.527640697711206141e-01
8.637791273124983960e-02
1.997012998277934714e-01
1.592025675481112401e-01
1.509594062627461764e-01
1.748169215693253786e-01
1.546573111118196286e-01
1.726750316435539390e-01
1.494535043639707850e-01
1.998855182626345650e-01
1.913270247054521533e-01
2.041539826768507537e-01
2.476567574471555122e-01
1.834349940384507605e-01
2.078427690916984094e-01
1.660483357972978580e-01
2.356918234517650368e-01
2.219709685653056819e-01
2.260123148952369321e-01
2.234476333396884506e-01
2.131690860333683712e-01
3.074026910571086013e-01
2.353285802015347705e-01
2.443848431534128007e-01
2.022563747074269946e-01
2.635811850166824843e-01
2.335508132095405753e-01
2.504938516052139241e-01
2.636936524614760802e-01
2.326533045870849969e-01
2.142550867771831624e-01
1.631808912536955314e-01
2.195070998421919661e-01
2.084303601478622592e-01
1.920720381476132277e-01
2.671100193697359959e-01
2.498598893986121450e-01
1.620608285260270731e-01
2.178810951696787679e-01
1.848168101173208178e-01
2.161695424127353105e-01
1.767925476081915193e-01
1.800308469642192821e-01
2.203316873789250840e-01
2.111001596096115929e-01
2.267423766741053226e-01
1.697622284284744376e-01
1.273162051439810094e-01
1.932528848735239335e-01
1.879890239535153829e-01
1.735395494614001555e-01
1.268646088397452909e-01
1.115269013546805188e-01
1.542087439905602264e-01
1.060453074528758255e-01
1.179275110409662708e-01
2.089502657009491560e-01
1.802769953666740477e-01
1.349211272559706076e-01
8.609469856959761636e-02
7.921678761389217005e-02
1.173957895606815433e-01
1.359882591190499646e-01
7.101512279256953775e-02
6.808222227168501950e-02
7.998238414836343624e-02
3.139493046056395648e-02
2.817759424521579237e-02
2.967054155610141311e-02
7.751263096177943290e-02
6.563143489995625079e-02
8.808241365419078317e-02
-1.477722983943090523e-03
1.956528092466642763e-03
5.812180871363128998e-02
1.543436461415330710e-02
1.491407500206389652e-02
6.673526341843702414e-02
1.737083046498497443e-02
1.863565809774958906e-02
2.210760340536019330e-02
2.196418913755451841e-02
4.636618859962217398e-02
-1.218048400328242131e-02
1.690316109820934332e-02
5.596539164185375392e-02
8.374005438785538102e-02
-2.216764375354364144e-02
2.734154632904657600e-02
1.068883333872635427e-02
1.250541549843085798e-02
-9.049525905195077852e-03
3.656794489336853693e-02
3.436749721373866945e-02
8.833680684110707670e-02
-2.748866798941154016e-02
-4.072848907153502063e-02
7.298472408911957365e-02
9.486226496092566712e-03
-2.896772355599289313e-03
1.628075716293882202e-02
-3.132486002813476833e-02
2.174374636403840488e-02
8.067061378068372118e-03
4.275531488098953392e-02
3.638032278455897300e-02
3.907037392800108422e-02
1.684057483592690113e-02
5.956850469520695579e-02
2.911937926379740832e-02
-3.692864750786657366e-03
-1.142676414202627340e-02
-7.410871272451541661e-03
3.187729430149387200e-02
-2.490967386971609104e-02
2.062542632318942887e-02
-7.965659763938693488e-03
-1.940112019209244698e-02
-1.325275345068433266e-02
2.023022829422595203e-02
4.545571707622476920e-02
4.024221637437559035e-03
-3.604626572529111284e-02
1.229739644038412294e-01
6.417772571204366505e-02
6.110920968030135458e-02
8.467860835590609869e-02
4.152534376232998314e-02
3.783163413703573286e-02
8.590152532177484923e-02
8.926534812920146333e-02
7.103558111561891764e-02
8.305766534053968253e-02
2.363394598230872737e-02
5.749122930352197625e-02
1.209412345792327814e-01
9.874845937689104292e-02
3.571239576597740051e-02
6.873911892133774404e-02
1.361222003128987335e-01
1.088684183094041774e-01
1.060563816465915077e-01
1.123854894289244982e-01
1.089534236261817113e-01
1.011387418131595300e-01
9.720016270085543586e-02
1.577580323673884455e-01
1.396756367561952927e-01
1.586838716491175416e-01
1.585796679537198883e-01
1.888933271882133891e-01
1.644337051807029104e-01
1.793405248061700208e-01
1.631315521532371582e-01
1.327843139470160361e-01
1.571216492870195769e-01
1.838365187345871177e-01
1.882671413561247953e-01
2.128034277556055121e-01
1.563427685534298228e-01
1.773219799718325773e-01
1.666129614481248744e-01
2.187264688003468516e-01
1.803958638488429855e-01
1.797178325727550319e-01
1.652343859812543114e-01
1.577990691078785257e-01
1.192438687849478041e-01
1.230723844646046811e-01
1.647149237759721885e-01
1.598830503582089058e-01
1.634524403360576028e-01
1.869184833984489091e-01
1.637257133170357259e-01
1.547262689265133939e-01
1.656291401378187644e-01
1.891067326514207225e-01
1.839941901586864825e-01
2.453293766843304136e-01
2.361053451942806414e-01
2.726763892298563752e-01
2.754476844516782208e-01
3.731949476148807565e-01
4.323563869344376198e-01
4.027616678920220017e-01
5.162770507305110002e-01
5.669954931065284143e-01
6.490370481708552797e-01
7.272298741213434337e-01
7.208885727685958589e-01
8.841011743195906769e-01
9.649856386314942247e-01
1.033300960087728315e+00
1.025570925606603234e+00
1.100665366160406000e+00
1.121646676330799952e+00
1.103702699287251843e+00
1.152085236502316201e+00
1.133520533572049738e+00
1.157390993279590274e+00
1.066411149093944521e+00
1.041879247537528475e+00
1.001155785687964928e+00
9.768581800118283365e-01
9.678249311721942583e-01
8.203172331321560984e-01
7.052237605391441511e-01
6.410993735254305603e-01
6.086847262829644389e-01
4.797862477664888714e-01
4.892773374593835101e-01
4.066584839444143396e-01
3.432014367376982067e-01
2.515557501071218893e-01
2.914785474153782641e-01
2.091432926742062270e-01
2.106668073671471575e-01
1.808090645513278361e-01
1.222812246975455847e-01
1.513255865044363380e-01
1.139539827737948152e-01
1.257042447044064426e-01
1.557085511787950072e-01
1.632504288721078056e-01
1.426695395124956411e-01
1.189891834154693379e-01
1.293466008494671415e-01
1.328319805972771883e-01
9.323379695680114598e-02
1.645363315633189272e-01
1.176602522822160768e-01
1.754570924142447308e-01
1.350741078434921361e-01
1.484594809102308954e-01
2.105567898557352546e-01
1.971126509487578227e-01
1.457036445064393004e-01
1.913281001744520093e-01
2.217394708732427777e-01
2.010148505812462683e-01
2.149139050181406718e-01
2.380273365297004562e-01
2.374047932138171890e-01
2.114968199564156159e-01
2.469575433284789956e-01
2.424965883783706810e-01
3.074552508208580059e-01
2.570227668506264718e-01
2.682998950045318853e-01
2.759156106617733917e-01
2.620448576214695069e-01
2.534147675894006246e-01
2.917973172040919660e-01
2.947159434030309777e-01
3.454989333135705110e-01
3.072996104602594425e-01
3.094645425525653915e-01
3.095242598366186870e-01
2.682305944167009959e-01
2.517877081666178851e-01
2.596425012040723956e-01
3.102491915158312463e-01
3.317562274189490568e-01
3.102654076133767314e-01
2.820200386389741798e-01
3.357618616579596260e-01
2.702436691174437966e-01
2.468673118835744695e-01
2.863373571879579416e-01
3.146276201652642435e-01
2.473831629897380036e-01
2.180936291403281213e-01
2.666385462796581063e-01
2.846658849147846726e-01
1.683630631699768454e-01
2.821775137207767625e-01
2.072059095801936091e-01
2.651233152441816454e-01
1.784798853958586284e-01
1.889906486520362416e-01
2.465248741579500746e-01
2.590544044258210055e-01
2.168349195308302280e-01
2.834259399023214554e-01
1.752912572141263892e-01
1.692767891551245074e-01
1.856227619228014714e-01
1.785462407186297062e-01
1.919123236768445762e-01
1.555214373355550683e-01
1.892784034877345034e-01
1.830681882039889297e-01
2.097422330005368485e-01
1.412947308163123583e-01
1.608821396624852684e-01
1.638213912061466104e-01
1.404199544829866364e-01
1.294036175822418366e-01
6.909112998249491988e-02
1.288961717705880416e-01
1.397954258261721039e-01
1.158824200362645468e-01
8.998915290825709734e-02
5.907841210557443490e-02
1.192030544844705914e-01
1.029219098435321944e-01
1.401039423861679123e-01
5.156139408416218067e-02
7.773155574399304157e-02
4.915722538109190687e-02
1.166676692039779473e-01
1.203443367960321947e-01
1.382663308500147459e-01
9.379415104649169166e-02
9.953528650072607231e-02
8.678462787997159866e-02
8.887494480001187358e-02
7.126391255416154868e-02
8.659176306661685307e-02
1.305826528813178178e-01
7.141490124142302331e-02
6.415716951420494252e-02
6.806752481191971627e-02
5.644185329795402273e-02
6.719283858559671474e-02
5.328740039531842942e-02
9.216111298438926791e-02
8.831058052853806017e-02
1.211928070282950187e-01
5.480960139989833613e-02
6.354756602984484859e-02
6.173878174410091235e-02
5.982425554566846160e-02
8.730654498175519085e-02
4.288967441239147083e-03
6.655156365118988782e-02
1.123542969835169825e-01
9.317922388691694813e-02
8.961633856687312161e-02
7.734928348820552246e-02
3.420313438441362208e-02
2.963344791621452812e-02
2.998572282251836529e-02
1.827996120096444035e-02
8.109204441458449375e-02
9.708284174315950921e-02
6.648636090907138196e-02
7.810836794044899445e-02
6.337659018615147966e-02
7.234695658313601563e-02
-7.403693341106874770e-03
6.649227226869230956e-02
4.535946846153073031e-02
5.813342448224868148e-02
6.747215927060554175e-02
4.075025374672253120e-02
3.163670261891382562e-02
4.339022890324709808e-02
2.436841153545880184e-02
3.540625063898310276e-02
4.197153974792066505e-02
3.210987400152827409e-02
9.389320084492144836e-02
5.409973352988080297e-02
2.852314823718115483e-02
7.590358983867391551e-02
5.828409575274635934e-02
1.394050409097710996e-01
1.037768062308490336e-01
6.002693639833862199e-02
1.257366312480254766e-01
1.159262168805927085e-01
1.110681637070390637e-01
1.704413043652144577e-01
9.901584976504171354e-02
1.644899929358354385e-01
1.263498224197677211e-01
1.432984008071201409e-01
1.265476346958898102e-01
1.335974520810883914e-01
1.461426257201103029e-01
1.071138322929174602e-01
1.792795970593598354e-01
1.768622899285370587e-01
1.327738060121988473e-01
2.015106318262450125e-01
2.291134416963234166e-01
1.688051277547451823e-01
1.681563987523718717e-01
2.276536714645132908e-01
2.084708764361964395e-01
1.939697266168540213e-01
2.236974964406612809e-01
2.082292248966993164e-01
2.431381988182586829e-01
1.995977511778799507e-01
2.122691359600911432e-01
2.313776482545252811e-01
1.235907414896597889e-01
2.293315177559061835e-01
1.781985898871155938e-01
2.062732793952734012e-01
2.391345655033962903e-01
1.781575166381506869e-01
1.722000107303815752e-01
1.834327177139095932e-01
1.417231733568515284e-01
2.528820757505266248e-01
1.891068993956738220e-01
2.456043569015610717e-01
1.950560435847985552e-01
2.184765036288358331e-01
2.624295205552834576e-01
2.225715254802970167e-01
2.795990737760796208e-01
3.429442521835118773e-01
3.488314955019635732e-01
3.868323786020387289e-01
4.874635484936095664e-01
5.549731448856158877e-01
6.242718828335891423e-01
6.263381851784243226e-01
7.015683547136644105e-01
7.787228477600145471e-01
8.879568491969419552e-01
9.014804001888143681e-01
9.693467649235125716e-01
1.041232783581747423e+00
1.084429201476119209e+00
1.177951570703270834e+00
1.202196496844586626e+00
1.175873598429866940e+00
1.182988784442102315e+00
1.096970816267308191e+00
1.130265526797872289e+00
1.139709184444061885e+00
1.034572422167899353e+00
9.557316042325608718e-01
9.615634184356941505e-01
8.140626572935574234e-01
8.188037241118344411e-01
7.838244325927118394e-01
6.204356392841686718e-01
5.909674523276507996e-01
4.382457184766952452e-01
3.772758264330262623e-01
3.514283270684688265e-01
3.532900569737472685e-01
2.886029654230055641e-01
2.493299976010373287e-01
1.886198594587647215e-01
2.014862065593103768e-01
1.689102365309053111e-01
1.477840731903546923e-01
1.361878483175557042e-01
1.662364708882707043e-01
1.355165523955799145e-01
1.556753919658327989e-01
1.032237610398118177e-01
1.731367608091090027e-01
1.680446682331026564e-01
1.574568641010568315e-01
1.734214910728972825e-01
2.012318500977493818e-01
1.347082607370319041e-01
1.853823603061622027e-01
1.496078317993393136e-01
1.968861496153125057e-01
1.920585726920445158e-01
2.046767676298171246e-01
2.364790339487823356e-01
2.411600081091800907e-01
2.547352114885286234e-01
2.157003722432567216e-01
2.540516897874517399e-01
2.534070145623568138e-01
2.321892258551538357e-01
2.518059174439398751e-01
2.491160518390295731e-01
2.995287298032301426e-01
2.863795542360144664e-01
2.561607417959382293e-01
2.579927563589846651e-01
3.025432641253474331e-01
3.173966917097720275e-01
2.897560839392466780e-01
3.028358715048973249e-01
3.246453633397544669e-01
2.824536358607305231e-01
2.920105342099188483e-01
3.055726184480256347e-01
2.792134886564922591e-01
3.438104347436225505e-01
2.800938181817990147e-01
2.951042114322948717e-01
3.504248610410800602e-01
2.363853919480937427e-01
2.976620975788996648e-01
2.699546611536725593e-01
2.880141848574564456e-01
2.497263632986326254e-01
2.723347236199366028e-01
2.814372076673089529e-01
2.847619463179012489e-01
3.010981411648621098e-01
2.008415871489687698e-01
2.628347251131422091e-01
2.571656447966522707e-01
2.560315493864427916e-01
2.542566331896349285e-01
2.235059517854137423e-01
1.969315783809374165e-01
2.446160886972782444e-01
2.028850844116930063e-01
2.392719228512016905e-01
1.934370704445794731e-01
2.366035955327721318e-01
2.083812977288428958e-01
2.045995147157322891e-01
1.908571946387028762e-01
1.801223219896855299e-01
1.794047990253438973e-01
2.159275385089344246e-01
1.285588547978333551e-01
1.493013395618593142e-01
1.946583111636540075e-01
1.818358660431848017e-01
1.919163879930220473e-01
1.442962605467503212e-01
1.010937448337258238e-01
1.020917551133055934e-01
1.211744965661080142e-01
1.478975825309488956e-01
1.125159753027059895e-01
1.054301468867649416e-01
1.226623965683180939e-01
1.071132048545549720e-01
8.874768180417835772e-02
6.776249297611547373e-02
1.222192579102282933e-01
1.214087416239119643e-01
5.456826342343478603e-02
7.070522282804739267e-02
9.943610959085717738e-02
4.209731794526576365e-02
8.413715632044579951e-02
6.049319937436104661e-02
3.103950314234799751e-02
1.182611777025411315e-01
5.223697183253489529e-02
7.588442245194765290e-02
2.432685202303464314e-02
1.024659032709767659e-01
1.123731217073938859e-01
7.059200421834860295e-03
4.547309926455152945e-02
8.863930200490952038e-02
3.324488965699232135e-02
5.816976692995447229e-02
-5.833571633593485906e-03
1.970226291331660801e-02
5.136141806178769198e-02
2.346516482621437485e-02
2.934819935400451163e-02
-6.214934956167782187e-03
5.803191353503868444e-02
-2.553026235583899517e-03
8.314384934831661744e-02
1.579334314558255084e-02
5.970700713657901143e-02
5.622358394414959937e-02
5.135834076824812716e-03
1.700542167871812310e-02
2.020477906225588705e-02
2.194921104316451682e-02
-5.517417942722969287e-03
4.926802684776540597e-02
1.249755373809979114e-02
2.971543927600006629e-02
6.338920055926004771e-02
5.049302849737398458e-02
1.492906091860948109e-02
6.512061260584622868e-02
5.428586163521305352e-02
1.368188041846515879e-02
2.009232490441944727e-02
6.631330755445671854e-02
6.058005002366910474e-02
-6.788932061793599010e-03
9.344831032780810676e-03
6.176451672599775344e-02
7.237822146856216082e-03
6.836756533636345612e-02
1.042363750615957901e-01
5.950547971399519631e-02
2.296860517961046844e-02
5.851784503099592694e-02
8.704249753372873821e-02
6.197224445391118913e-02
7.674070056829994380e-02
4.168206264868038607e-02
4.760735257685051042e-02
1.003597898650314402e-01
5.587524295349720338e-02
3.896432991959526693e-03
7.670944494183994100e-02
9.989583662450658708e-02
1.269286690968811915e-01
1.493592216585569454e-01
1.074223299574312285e-01
1.295889554406569610e-01
1.184206251242403418e-01
1.303840455116973829e-01
1.190695960273276677e-01
1.410985885568147302e-01
1.123163207971573513e-01
1.981655495140278167e-01
7.137700866910305642e-02
1.643551612689895247e-01
1.606566116067419114e-01
1.657416147390303740e-01
1.223096631726646455e-01
1.102681379901561537e-01
1.812038661624074121e-01
2.052548181795083582e-01
1.731825798815353201e-01
1.918271751870369024e-01
1.545520852010825452e-01
1.784031004989584113e-01
2.049231845304134436e-01
1.579975293971340455e-01
2.018050753313825330e-01
1.156441151262011247e-01
1.444124348294133497e-01
1.770499247899032513e-01
2.154749383563565046e-01
1.565146759331628445e-01
1.229078587423919761e-01
2.085180133919295187e-01
1.471311083469671877e-01
1.705825463245269069e-01
1.416311164570890069e-01
1.586998589232405388e-01
1.425863823230112126e-01
2.350161917077014107e-01
2.142971421608479143e-01
2.469623886968023985e-01
1.903622119143732749e-01
1.847250217838061759e-01
2.620593586903564587e-01
3.840548419847029105e-01
3.432096412078619596e-01
4.353397275308049097e-01
4.303199579194164626e-01
4.992581801542373965e-01
5.896622340548591801e-01
7.268690855339801082e-01
7.700990653611455850e-01
7.491081547054811995e-01
9.022992061142881548e-01
9.151634892009310462e-01
9.899732746435091491e-01
1.077823930021830190e+00
1.145909032828432927e+00
1.173622560161685868e+00
1.158856764554026864e+00
1.160964024973449638e+00
1.178486617206159881e+00
1.064617046512032594e+00
1.127755977280866961e+00
1.000635039025588036e+00
9.708743968355610932e-01
8.811729962996129872e-01
7.892927212753839683e-01
7.629070384292799822e-01
6.805888985253085721e-01
5.960940238460628038e-01
5.234832609065719344e-01
5.070896224640147887e-01
4.658354727094197179e-01
3.825763569218867954e-01
3.048259482935506970e-01
2.055642181772103505e-01
2.381826446358496496e-01
2.103537855808080281e-01
1.898672953092398197e-01
1.141094610402989679e-01
1.599314145490073058e-01
1.712242592629730498e-01
8.810315830421436289e-02
1.340305221783202327e-01
8.725346076065408629e-02
1.083683492198025400e-01
8.433044107392440036e-02
1.046626630261526525e-01
1.081355742390139318e-01
1.346790060761868246e-01
1.533945815950701896e-01
1.679038628712465619e-01
1.168584525488321618e-01
1.524006827445638645e-01
1.139756752257907180e-01
1.489974070133107120e-01
1.590406942891753606e-01
1.355335509871644917e-01
1.854169149316199083e-01
1.693631599935995213e-01
1.839939310537624939e-01
2.213384885080731390e-01
1.769058122909744901e-01
2.202472304458376884e-01
2.428853435139497474e-01
2.457380455258523499e-01
2.031511709427314127e-01
1.839165917480402590e-01
1.958778404064432654e-01
1.734155561893223063e-01
2.451812950722680740e-01
2.503568616723297335e-01
2.344639962474241446e-01
1.923862790927818034e-01
2.251282276522434678e-01
2.795877462825115956e-01
2.582299462242192423e-01
2.648497631868280133e-01
3.416694468762042081e-01
2.529846199054528455e-01
1.787386577161718948e-01
2.104597452842240646e-01
2.522913859575240392e-01
2.429568935488082004e-01
2.361452233566894432e-01
2.352258217209984015e-01
2.145286034643552053e-01
2.471346439724865507e-01
2.752733688032940051e-01
2.826083440433410088e-01
2.786374726956819536e-01
1.954149809948733107e-01
2.197742100073387383e-01
2.069735438554049789e-01
2.298962892364861954e-01
2.051597754151030517e-01
1.961475451962167438e-01
2.416191377744298374e-01
1.958062756377922098e-01
1.912798754501607301e-01
1.944960427950168935e-01
1.967933215065067187e-01
1.912579421290609427e-01
2.115573184898699999e-01
1.205397068161317975e-01
1.628967379230550905e-01
1.441041393684998340e-01
1.321376392187308957e-01
1.578790402531833892e-01
1.680333844038665592e-01
1.054016805089524333e-01
1.678211331068861778e-01
6.837779898834667192e-02
1.232186087667341695e-01
7.305579830806847863e-02
7.488272100943477172e-02
9.040255568886171322e-02
7.121447713206839614e-02
-8.016491071711978958e-03
9.106015925526904364e-02
9.108177559221486419e-02
5.797460578213205207e-02
5.088466864429014302e-02
4.230839217106038136e-02
-2.270342959271445110e-03
-9.706819008768709928e-03
6.482031298222472315e-02
6.871408484064334132e-02
5.090193840773545031e-02
4.076037223793282233e-02
4.941057306043546149e-02
4.411724187436062705e-02
-4.059361300712813203e-03
2.318403803975973426e-02
4.793313496899917481e-03
2.501611442084258896e-03
4.264840207033508690e-02
5.327540833001324916e-02
-6.662732724368523873e-02
-6.032477857465537441e-03
-9.621896618768683435e-03
3.254658608890320659e-02
-4.759273365680309620e-02
-9.544277612115772969e-02
1.730370243397874597e-02
2.009499426819585932e-02
-6.368628821891260394e-02
-1.518033901384003605e-02
3.326165326312953419e-02
-4.609811604898463727e-02
-1.175965926960240507e-02
-5.117427997315265875e-04
-5.946723588483739109e-02
-3.437241780249040979e-02
-6.893485757946182790e-02
-2.383416726449615747e-02
-4.325396831640370560e-02
-1.385822568000175462e-02
-1.548002311202296283e-03
2.062270660417726831e-02
4.854990587776877864e-02
-1.550775663367800344e-02
-3.149224615613972766e-02
-3.342525882864499920e-02
-5.125217078324904169e-02
-8.909378059725091975e-03
-3.717058950170069875e-02
-6.670485742042916999e-03
-5.000203546823002443e-02
-3.569769434954658816e-02
-8.346731914593556734e-03
-2.455644226029844376e-02
-7.779255525102105051e-02
-1.988519786204430428e-02
-4.259280798273445273e-02
1.793889732888891836e-02
1.282037306349148240e-02
-8.344478377810174430e-02
1.061874333511517166e-02
-3.285341886837683800e-05
-5.432634874872540459e-02
1.865174692234239373e-02
-4.378005698204805174e-02
3.150542197797728816e-02
-1.949638327632212051e-02
-4.268657214812927175e-02
6.966418923595296686e-02
-3.694101961090522079e-02
-1.110806671008791879e-02
-1.390315429587587331e-03
7.274140755708397021e-03
4.613544313645432521e-02
3.131387350863353014e-02
6.426967839073827182e-02
5.000166906551434948e-02
-6.525773791347118380e-03
6.507074040460186781e-02
6.056230745176717500e-02
3.981373335393843110e-02
1.257671356417872921e-01
8.677192139810949167e-02
1.016661967656230930e-01
1.074936902850560927e-01
7.022790089692795834e-02
1.062764857630367488e-01
1.009754327793646322e-01
7.874053360436149285e-02
6.246156771211681946e-02
1.031609197399469685e-01
1.230025156654590834e-01
1.084500008491429690e-01
1.046441848691655879e-01
1.126473789452653307e-01
1.044771269310491024e-01
1.603627450719522229e-01
1.223203308171632447e-01
9.948638572875839747e-02
5.925656870745334148e-02
1.065712607955292129e-01
9.378180222739099237e-02
9.092668074267280798e-02
1.356128803886834100e-01
1.075389830411528358e-01
5.243100951174896329e-02
1.193280720433996522e-01
5.145944256962838720e-02
1.184218046879936259e-01
8.291645258815918962e-02
1.005287674269913223e-01
9.955994133964959913e-02
1.003738433024922438e-01
1.182931597120174816e-01
1.249402173707307995e-01
1.929817941523716829e-01
1.625999328753471862e-01
1.875082558788290221e-01
1.888098902064856421e-01
2.577787392272332667e-01
2.584529812363786649e-01
3.731079911528362714e-01
3.499662966984767309e-01
4.310328175639072668e-01
4.744318654235081811e-01
6.067890949611813856e-01
6.547817732171795635e-01
7.619487284246440062e-01
7.844804160559516459e-01
8.983487676893560092e-01
9.624610764710223032e-01
1.005882604460018426e+00
1.044708666467012881e+00
1.080245744994249080e+00
1.067968944416676447e+00
1.068220743637352976e+00
1.107777329137842992e+00
1.057502673293691853e+00
1.046255512917011243e+00
1.031615809289653019e+00
9.139004985631031808e-01
8.442863871888939276e-01
7.816008719332452337e-01
7.181769922496147318e-01
6.599538096238644069e-01
5.660788734162551794e-01
5.573512236359372540e-01
4.398237198337659470e-01
3.881003938044546575e-01
3.071084536649347774e-01
2.886231113714702312e-01
2.088324430347266725e-01
1.589517934753002515e-01
1.749842158046095719e-01
1.214491221147720734e-01
1.111099519475252234e-01
1.184221773734625838e-01
8.235414858639361624e-02
6.632491596039667703e-02
5.019079315168981092e-02
9.587464832943926041e-02
5.341649172045831451e-02
6.326788941342312289e-02
7.570804345451352668e-02
7.878804307922424033e-02
1.046104681042478723e-01
7.652243310264150722e-02
1.247159977822384636e-01
8.105569487857242073e-02
1.049411228332550877e-01
9.374785416432339369e-02
1.675911000217349955e-01
9.986630819378011781e-02
1.081871312249051975e-01
1.250333993644653918e-01
1.191509200765316079e-01
1.420932223507695991e-01
1.749552376465198511e-01
1.478242916374560845e-01
1.541340342772875849e-01
1.467905834660616082e-01
1.434109457626230044e-01
1.661770635667468299e-01
1.680285779519637424e-01
2.073013104501631731e-01
1.474000470539013341e-01
2.236267775726668572e-01
1.791382412797591361e-01
1.912693979802726207e-01
1.578437478055056964e-01
2.093144852611462658e-01
1.659901042330368393e-01
2.080243050515044878e-01
2.067730217583917396e-01
1.900665653934715260e-01
1.388577862095652649e-01
2.662586830164921925e-01
1.700782371258953429e-01
2.097890948433938085e-01
1.792540344409815634e-01
2.317703771421200654e-01
1.877715588475382114e-01
1.750714132673017731e-01
2.136148249273558675e-01
1.553936206278277998e-01
1.786181177363332928e-01
2.088704308727019621e-01
2.302092030589147353e-01
1.526796457930100215e-01
1.594745757249859675e-01
1.843911587118799988e-01
1.096623080331633471e-01
2.058407161365712612e-01
1.304404938470588859e-01
1.424209146516891289e-01
1.583091513350164958e-01
1.468030686001579044e-01
1.110001343357849141e-01
1.860745772829903166e-01
5.159762343684861502e-02
8.952967090760413638e-02
9.836116641597528187e-02
8.320236892029886366e-02
1.424817442931781974e-01
5.033644198654407126e-02
1.410091028034855254e-01
8.016270138520888155e-02
4.193844425383150276e-02
1.405281509967509779e-02
6.500625486552399912e-02
4.486131359935147805e-02
6.756755519509813346e-02
4.161099123405665595e-02
7.857098955979083255e-02
4.051339782411338825e-02
2.709277735206923332e-02
6.416745536179058185e-02
3.711887190841305778e-02
4.896618001406816134e-02
5.579437501313636721e-02
8.285245936493601526e-03
1.417141983310271636e-02
3.442465825918833433e-02
-6.815972641268847054e-02
-1.280513168133171065e-03
-8.398233034957673648e-03
6.306303673166882562e-03
-3.205161722626516385e-02
2.189983964672374134e-02
-3.588664325508543473e-02
-3.016250461012250084e-02
-3.881412330657083021e-02
1.566930298914383929e-02
-8.599944891410049586e-02
2.810517607317535721e-02
1.676212090943447058e-02
-4.619618017403413074e-02
-1.320431327147403300e-04
-2.860982532939436787e-02
1.561389753056799390e-02
-6.807816758827300863e-03
2.921502281798394468e-02
-8.459823784437871252e-02
-3.305522705096955449e-02
-9.149208892474589017e-02
-5.621964094659151479e-02
2.602230106543147042e-02
-2.815380663160955976e-02
-1.332297013048219098e-02
-2.803029575985502980e-02
-3.045635229028093027e-02
-6.009711638602184547e-02
-6.607892614321919655e-02
-6.162515996567868859e-02
-1.273316154628350849e-01
-4.808914831236657528e-02
-3.857919271893577029e-02
-6.443557059313410884e-02
-4.979971265855783619e-02
-3.008188778423724966e-02
-1.917427374047247016e-02
-8.146496150865192853e-02
-6.910931682142740229e-02
-2.233069995038657746e-02
-2.681508803757759463e-02
-3.625183071399612489e-03
-4.240228190182326884e-03
2.985600101597746248e-02
-5.051854401210486428e-02
6.601503187514470850e-03
-6.724108003913409348e-02
3.343976071699101410e-02
-2.332847040991851278e-02
-1.913305133405135416e-02
-3.947333653617844662e-03
-7.237537024911221140e-02
-6.183561654300732957e-02
-2.380224569641620908e-02
-1.437412130645441405e-02
4.047001540976100792e-02
-4.752635220060617144e-02
3.033202486975222767e-02
-2.044311306486094881e-02
-1.724172541037487238e-02
-9.933639868131491357e-03
-1.012611602479868839e-02
1.788387691357776199e-02
-4.110732620566742712e-03
-2.994554570283970707e-02
9.128830927775846704e-03
3.580217463689865792e-02
-1.490429257794383122e-02
4.978051256593547108e-02
7.297096197967596620e-02
8.722241572458365455e-02
5.823028638225642706e-02
-7.910876991999021834e-04
7.796110267132209948e-02
9.263031632830079354e-02
4.766224589827368352e-02
7.114281190430295221e-02
9.237996414017837776e-02
1.357845714843368690e-01
7.849586088208926338e-02
1.165889832315020469e-01
1.026634800346745702e-01
1.020947857431224459e-01
1.385520045265373479e-01
7.578825351002077548e-02
1.092863726404215141e-01
1.043718856148336954e-01
5.906461440593446799e-02
1.415013850454352740e-01
1.291923286052559239e-01
1.047028519370404170e-01
9.480899702849454602e-02
1.012673387926966151e-01
1.208037311544864212e-01
9.929022528110786894e-02
7.571245482964547580e-02
7.831986408090066409e-02
9.181090413319706323e-02
6.302023182775556842e-02
1.005889897220808848e-01
6.750439964239415835e-02
6.489539297481132507e-02
1.935517728313496666e-01
1.627273722017493762e-01
1.187617040614400432e-01
1.536596096300075487e-01
1.768727866345037314e-01
1.671684581962655236e-01
2.067651265559634355e-01
2.254240921815424958e-01
3.124649096674590454e-01
3.610209801666445784e-01
4.244590773293360209e-01
4.463468248527205362e-01
5.695153755960457032e-01
5.725509754440365473e-01
7.094080029678371258e-01
7.082961508837081199e-01
7.564835786387149597e-01
9.262720761752651910e-01
9.498267882955305774e-01
1.002481510036603574e+00
1.023232819646134439e+00
1.044297148807864728e+00
1.069824302020169648e+00
1.105336361578014515e+00
1.091320387133950076e+00
1.018246719944729151e+00
1.094648502476575525e+00
9.865945248833101200e-01
9.813347868402848562e-01
8.596447867352575711e-01
8.159177189362964988e-01
7.669973192832509890e-01
6.877422139290934044e-01
5.799696930905962056e-01
5.308474897043053975e-01
4.672239364843686626e-01
3.789190460146436568e-01
2.922609613565814168e-01
2.556865897188195791e-01
2.184547719215021444e-01
1.926319913894249392e-01
2.079868868503637336e-01
1.617241257055387071e-01
8.968186915156994843e-02
1.537013544095388873e-01
8.483631776845759753e-02
9.950584034742618322e-02
4.626681321728511043e-02
5.840616056329809430e-02
1.026218874068665077e-01
4.620228253075109315e-02
7.654667051282763868e-02
9.230352061408018949e-02
5.151035652490263544e-02
3.345383727483697278e-02
1.190011051236702921e-01
1.829894890727670198e-01
1.163855886937965045e-01
1.278299874400257163e-01
8.757707589539279192e-02
1.640424907035490931e-01
1.145286735084244112e-01
1.666192319410095823e-01
1.557731495011444312e-01
1.622982707351296183e-01
1.668640867855100685e-01
1.715286901036199019e-01
1.686907834033170017e-01
1.946331460509512223e-01
1.489831756102202864e-01
1.686335115558023345e-01
2.246797085041040698e-01
1.904505015083221842e-01
1.798811650534049567e-01
2.248544557890078122e-01
2.228172612623544602e-01
1.623074872915138966e-01
2.265154163705513923e-01
2.117476073179734852e-01
2.316772605619397130e-01
2.130062143345423653e-01
2.286417922688290805e-01
1.614654486778692721e-01
1.908785716159258627e-01
2.409044885121916502e-01
2.979596165246386485e-01
2.305882856293253458e-01
1.986775722346235118e-01
2.230552274301335902e-01
1.913638230013069153e-01
2.544817563942069483e-01
2.169027862308564869e-01
2.451902393508308409e-01
2.067930757269035857e-01
2.431375945529740124e-01
1.573437851763210826e-01
2.036623612808306505e-01
2.157093656082660349e-01
1.877969960970542196e-01
2.027065082636260729e-01
1.980356296028803753e-01
2.148440781074671679e-01
1.974441400713326522e-01
1.858232750004905898e-01
1.954929011313591980e-01
1.234463832856748100e-01
1.362690023172082321e-01
1.119803581063573972e-01
1.646054370829214686e-01
1.551022224502823232e-01
1.787367073756837565e-01
1.421855668460721422e-01
1.071275269686702419e-01
1.245438304563434295e-01
5.872500775968463732e-02
9.723895605889233684e-02
3.361987599829630025e-02
1.084989551659094054e-01
8.495109328365897661e-02
8.413708377373461944e-02
5.503305912517015425e-02
5.790041345390387062e-02
9.384981974928924275e-02
2.522256750323316477e-02
7.884420358829430375e-02
3.484787744863713371e-02
4.413021385880240566e-03
8.744417962996876847e-02
8.649596038374644802e-02
2.656192066321273054e-02
2.255387596038810685e-02
2.795399764880200991e-02
7.788790217350152062e-03
9.847982504241438451e-03
3.929910888453008733e-02
8.510766560003588110e-02
9.500735664385900198e-03
4.824134130341895671e-02
2.569311231453107539e-02
-3.735406805597053098e-02
9.931221217190627087e-03
4.154618061734657863e-03
5.072039303836857471e-02
5.019854472296983450e-02
1.473450926932873620e-02
3.836691022214699931e-02
-3.825922531067444191e-03
3.288349766726464396e-02
1.158149394790298353e-03
3.002588186437336187e-02
3.212321167717588355e-02
1.677268677411860795e-02
-2.774167336797310132e-02
-1.879928241673284317e-02
1.577601553207698057e-02
1.947998457991463248e-02
-3.031258584869876704e-03
-1.754089138054289870e-02
-2.752483920505107914e-03
-1.710553280234524895e-02
-1.713274033467882332e-02
4.972303522760848637e-02
-2.341450953547162886e-02
6.072083986744292866e-03
-4.525070673190450393e-03
-4.579922030273196609e-02
-4.666073547299598445e-02
-1.102641756163359570e-02
-6.686904741169652500e-02
4.699946561680328622e-02
-1.831073888371696767e-02
-2.022791027847115758e-02
3.037511786507476538e-02
-9.831575249735302266e-03
1.472639759353833525e-02
-2.107156149195158271e-02
-1.506301218408367601e-03
2.733217969286166893e-02
-2.629799564598991890e-02
1.680779226072252192e-02
-6.994994186724476370e-02
4.224018413440713826e-02
-1.051826634869002311e-02
5.682574460917978396e-03
7.579571774482691746e-03
-1.626553708639234125e-02
-1.590318696663138576e-02
3.416158940749302458e-02
3.866194184482272395e-02
-1.637014869646176256e-03
4.468294481807646296e-02
4.893809636668147722e-02
2.482299971112131992e-02
1.546350076659010024e-03
4.361260013483174436e-02
6.027507838369063065e-02
5.232358710523661582e-02
4.124907895650638257e-02
7.811610377251988757e-02
1.072770254111663213e-01
5.152133361461350147e-02
7.107844115647510286e-02
1.677470889757551320e-01
9.962661153885296605e-02
5.832363962679352337e-02
8.737129373975235924e-02
8.426857530765589910e-02
1.235338852137095461e-01
1.263297926441031283e-01
1.027708662551811009e-01
1.820761502281654787e-01
1.331793543487589659e-01
1.208742371914754421e-01
1.014828224967733866e-01
1.144635195022142560e-01
1.067089346522134274e-01
1.407263867191305418e-01
1.218009318148059045e-01
1.733156761309597171e-01
1.332426870748545378e-01
1.764945801053224017e-01
1.660871993802592317e-01
1.703226780058838541e-01
1.770632557648477989e-01
2.087962766378668733e-01
1.220554214389649034e-01
1.712086581953834730e-01
1.559575913602476716e-01
1.741187174403549531e-01
1.439482876374728881e-01
1.747281905094132393e-01
1.002161559276406738e-01
1.093760548439746266e-01
1.243897916335900272e-01
1.430650008695933950e-01
1.529455943655767258e-01
1.385910748612294296e-01
1.439209371564812989e-01
1.711151540219103262e-01
1.615419161256966829e-01
2.317522225564387084e-01
2.722679586448730760e-01
3.273073475187888715e-01
3.657631011270394139e-01
4.678125188343286722e-01
4.978653389258481110e-01
5.606562459504653706e-01
6.190606889792484857e-01
6.969471402801795668e-01
7.484909970241513388e-01
8.318569921226717234e-01
9.576241880334324108e-01
9.640740370858587038e-01
9.852542273836265574e-01
1.095867175512546865e+00
1.139829183246237720e+00
1.144184173057705367e+00
1.095509816540463310e+00
1.188604588768073622e+00
1.140942633347484358e+00
1.095283915489869475e+00
1.098417696510769925e+00
9.494344353205140807e-01
9.520628106810886671e-01
8.643063969667587054e-01
8.526706468054564558e-01
7.403724584064370617e-01
6.322579400691683560e-01
6.193013743334687682e-01
4.418139560680125477e-01
4.660264155525208341e-01
3.538216362708975216e-01
3.251150280701796680e-01
2.856644329821569350e-01
2.807267652700954352e-01
2.864896473555637590e-01
1.399964326407178716e-01
1.852826685548001340e-01
2.214014371637214873e-01
1.258755352750776657e-01
1.154323121078864173e-01
1.360749595657821387e-01
1.509324209575251818e-01
1.449434003935304582e-01
1.152648992810415135e-01
1.040720107693338253e-01
1.707754577796575801e-01
1.119832007946615360e-01
8.226015052163154762e-02
1.011168421303451637e-01
1.327385945851520255e-01
2.003423453739693605e-01
1.256302289155660223e-01
2.127663861929064426e-01
2.122104716691534387e-01
1.856927291113975309e-01
1.083948597258297952e-01
1.552528774542195622e-01
1.776263154587533477e-01
2.543394178173759013e-01
1.910360962556554854e-01
1.905020971160892307e-01
2.247841323163545235e-01
1.821407637539435020e-01
2.288065859915584255e-01
2.105156803092979867e-01
3.198222743644987265e-01
2.161509759514618767e-01
3.058231709421550537e-01
2.177048526896459835e-01
2.635017913484001273e-01
2.740461599073875099e-01
2.664041123535050293e-01
2.673616943163212856e-01
2.932650011867581341e-01
2.820775133134703072e-01
2.661598907743866760e-01
2.525529954566996249e-01
2.688960057370903822e-01
2.692474525762532656e-01
2.690162714013498158e-01
2.772310302409266569e-01
2.322988661688749901e-01
2.430248408929689963e-01
2.977233571275837432e-01
2.038254226666122160e-01
3.054736949036253590e-01
2.506853669391465589e-01
3.151027618175232248e-01
2.990572506927671181e-01
2.493999298675151910e-01
2.491740928743146344e-01
3.000741672011325023e-01
2.866067554540697726e-01
2.734843128421704517e-01
2.742963091742258719e-01
2.028071710846413578e-01
2.368660021774104951e-01
2.027006266349301866e-01
1.873693358313895108e-01
2.205056121575688366e-01
1.978839789739704758e-01
1.999285494677522645e-01
1.844570841994708776e-01
1.563097705189114839e-01
2.392958326329147067e-01
1.874944939914348352e-01
1.339783959078042486e-01
1.771411992792946699e-01
2.117908176420092714e-01
1.894222426010387095e-01
1.396685271229651526e-01
1.350306275874588180e-01
1.158855920084925772e-01
1.171521576922946728e-01
1.145216111039354390e-01
8.534460412525315953e-02
1.112427144379501825e-01
1.301833187238078393e-01
1.028850945057222244e-01
1.174116095120841946e-01
1.552847967680549002e-01
1.575862582972726300e-01
9.652472824373137250e-02
1.211731877785167943e-01
8.613383487737753808e-02
7.302345597331427740e-02
5.084220338015327245e-02
8.379269622800686323e-02
1.107318213893909442e-01
3.713047508366013050e-02
6.406717152777365032e-02
6.008785251112874065e-02
7.517039318655624469e-02
7.340695328370845651e-02
7.954092873791596130e-02
1.183687455102672009e-01
3.351074050644216318e-02
3.015448714494913668e-02
6.375262725390754004e-02
9.844305386397635138e-02
9.630644671071275642e-03
6.218956535026635979e-02
4.505524121885837174e-02
7.566648514069562736e-02
6.791631476519482957e-02
4.964418469775812304e-02
6.201278873356921850e-02
2.691273361873911668e-02
7.001261309400141908e-02
8.701269289563823284e-02
4.789480418409416268e-02
3.218207900422383194e-02
3.965038113215201693e-02
6.733015628041759404e-02
4.206302313161731227e-02
7.052256182155616782e-03
7.136644341599307495e-02
1.311600071593160485e-02
5.516671729412510328e-02
-1.369786596326587336e-02
4.542625665022299170e-02
4.004679253134674904e-02
-1.697949626345367918e-02
5.197460381369767984e-02
8.925808526651063390e-03
4.450260798726386746e-02
2.961674058548836169e-02
-2.425475306725204117e-03
1.065417686413079254e-02
1.310086431651684424e-02
7.159953998983031864e-02
6.726576583439182466e-02
1.080981412616114357e-01
2.698534455802576587e-02
