1.186687649749176954e+00
1.156933572402678134e+00
1.148957538987961380e+00
1.108180250783017406e+00
1.070307297907270971e+00
9.863837160901308687e-01
9.489355193331633354e-01
8.591590837244059697e-01
7.832009342080832326e-01
6.751264720402178066e-01
6.517703982102431848e-01
6.095315038929869367e-01
5.080794502056548145e-01
4.448058939367286468e-01
4.366174895548392554e-01
3.796831427764606470e-01
3.575885146743443821e-01
3.364286190191785875e-01
2.399230067015645507e-01
1.786576621826539424e-01
1.782363196593617638e-01
1.962170934295013325e-01
2.114243995658598441e-01
1.293813204385776405e-01
1.639957327246663321e-01
1.303920101380487973e-01
1.495169167799001442e-01
1.503173491364038217e-01
1.690360598181613050e-01
2.219234320240816571e-01
1.792623596081016346e-01
1.567020911391653060e-01
1.567347962196918854e-01
1.741306448286268072e-01
1.591893862278745964e-01
1.951587337763848462e-01
1.243557099203803085e-01
1.961338261344940104e-01
2.043056687644800307e-01
1.792330473670704083e-01
2.083395561042287181e-01
2.590936880180180202e-01
2.668691650833173723e-01
2.206230111775242531e-01
2.577088233825265418e-01
2.022940308981811541e-01
2.434474314281254992e-01
2.641586880120718739e-01
3.077453335711668458e-01
3.022071938361631793e-01
2.769417779375081268e-01
2.473275076192480160e-01
3.191604760288364040e-01
2.716457899831551392e-01
2.984621491567634455e-01
2.841754135416725280e-01
3.501413089092145769e-01
2.742641654270023821e-01
3.219040918066388701e-01
2.933272206773934188e-01
3.141410974634231690e-01
3.464579439034098929e-01
2.381478869544789156e-01
2.963871755466762625e-01
2.712269990565329136e-01
3.107588578679602587e-01
3.171057861039804360e-01
2.808762087484680259e-01
2.776055043352565477e-01
2.973173375899649806e-01
2.506116589888268131e-01
2.960879990038804421e-01
2.585345215879163994e-01
3.017531717343416853e-01
2.366027188967025907e-01
2.552490000489326394e-01
2.456091923984879410e-01
2.548398489367503794e-01
3.004984422433581992e-01
2.798112024077374360e-01
2.350842471303432046e-01
2.299381502310955672e-01
2.656504378960022894e-01
1.987839717550048957e-01
2.288801886918321038e-01
2.044552219030759954e-01
2.118289102479439800e-01
2.355547255757155511e-01
1.854743131209361517e-01
2.290326165747467446e-01
2.600549643151378043e-01
2.064659342338800441e-01
1.801360361153284961e-01
2.117350404280745613e-01
1.381813204381387716e-01
2.115809394330068205e-01
1.379473140305171319e-01
2.202723922980841520e-01
1.285161257890869990e-01
1.648001528997779241e-01
9.320867449147224315e-02
1.287799498186383285e-01
9.810939632727452842e-02
8.272389666166413136e-02
1.577552192047679547e-01
8.053780249799349922e-02
9.124432857763610516e-02
8.383947718301099084e-02
1.398291096318595161e-01
1.325762536803029856e-01
1.367324243454363097e-01
7.176116848660868408e-02
1.327321563045145980e-01
6.543906184881717603e-02
6.384513445095398032e-02
6.287068103781696948e-02
6.145592193286182614e-02
7.623648826113339771e-02
5.157202225955771768e-02
8.158132223516438575e-02
-5.608107311847049248e-03
7.767693908610134867e-02
3.641974015724153135e-02
4.741928290624167208e-02
4.664356859366802777e-02
9.289992873292453324e-02
7.844442046592400852e-02
5.713487969322382509e-02
3.952691066901893591e-02
8.343613507314409650e-02
1.128351253309204660e-01
5.727140638926443011e-02
9.347867330207586256e-03
3.546100810827386429e-02
7.263478737014743281e-02
4.194311774845195517e-02
2.888168756590375058e-02
2.704305566656685020e-02
5.636931137758238036e-02
7.155472037835147736e-03
5.171965863301652283e-02
5.503701920628026323e-02
3.855279799342466868e-02
2.043705122591521831e-02
8.198592266256130023e-02
1.118546575587282821e-02
5.610779181758107637e-02
7.253533235802522849e-02
5.528150048261303712e-02
8.724425349729816870e-02
1.607280526175083185e-02
2.624640778032394373e-02
3.598789157083105705e-02
1.484076868023920248e-01
6.479251657738654968e-02
7.028935981920372833e-02
6.892786817541754485e-02
5.158790097443288758e-02
8.060922019489513701e-02
-7.073753239755467548e-03
5.726012616661974031e-02
6.171904330476783718e-02
7.935977641016020434e-02
1.406403065580299344e-02
1.621275219530519257e-02
1.805726117837634301e-02
6.424953948390298153e-02
6.464285761017708742e-02
2.002690988867967398e-02
1.059368585625602016e-01
5.710089683902355717e-02
5.225288458679056003e-02
4.233310589515407174e-02
7.653303923404990161e-02
6.038374790809744597e-02
1.055032470717544857e-01
1.253175352513067470e-02
2.759802835820612810e-03
2.714506990413863632e-02
6.621530136814307577e-02
3.709417391525396401e-02
8.845083587862220820e-02
3.896477367915000822e-02
8.375664427820789237e-02
2.698929263597463907e-02
8.811032316946743048e-02
9.450322981640943421e-02
3.740809649789997304e-02
7.008484821509611273e-02
6.460941235239725522e-02
7.340324888592442143e-02
9.791375425073192695e-02
9.022038702166965130e-02
7.826549710023522621e-02
8.473580200075095381e-02
2.896097575569054824e-02
6.820659533639700234e-02
3.899112469365757783e-02
7.430553694937029607e-02
1.113841955554343011e-01
8.091511602208362186e-02
9.422621084291149529e-03
5.686402740613872436e-02
1.095873185942145556e-01
8.006908144725022325e-02
1.240362365272561634e-01
6.876024515465023468e-02
1.210445170060053532e-01
1.273091730172543345e-01
1.429250590731963311e-01
1.045430449622144625e-01
1.526308009125593446e-01
1.795074866403230940e-01
7.120706449241465119e-02
1.459850765681046103e-01
9.522234771223174465e-02
1.284812032730400788e-01
1.356613072812417331e-01
1.615752327187735538e-01
1.792257524360376941e-01
1.991227889114921823e-01
1.836744817889508774e-01
1.994156112747865195e-01
1.499451473791862388e-01
2.167045438533291846e-01
8.842056377257588584e-02
2.349508584092802055e-01
2.309686433615843748e-01
2.139932461091548221e-01
2.588309732911625582e-01
1.378513742858512581e-01
2.148968287038683644e-01
1.946800307283186038e-01
1.966596456798711812e-01
1.527849214788317700e-01
1.976011952053931819e-01
1.940540516556064354e-01
1.607058235242615762e-01
1.771665952061922122e-01
1.378722914578012770e-01
1.640050399460593056e-01
2.040173139279778669e-01
2.050549841470845347e-01
2.006519834227246668e-01
2.103603734992406660e-01
2.172467857191232865e-01
1.783605181825134722e-01
2.212415734594820327e-01
2.614629941290080861e-01
2.103323071586929993e-01
2.386610442616476091e-01
2.716325452990048794e-01
3.023849669864184797e-01
3.721277656614236373e-01
4.420685695270590854e-01
5.634402440091752506e-01
5.704878979107620429e-01
6.078609788981735873e-01
7.308305290238888974e-01
7.936637548425957700e-01
8.483382515710105043e-01
9.234086941088680556e-01
1.036874383870383554e+00
1.018675930691236076e+00
1.057372381947294437e+00
1.156219168502723882e+00
1.145786049245232752e+00
1.218991203817344049e+00
1.161887109434740717e+00
1.143670094834301487e+00
1.137265254835756689e+00
1.018560386417701746e+00
1.023644397559110741e+00
9.390579598958133101e-01
9.112408377581500130e-01
7.876030119562320575e-01
7.372576092998938124e-01
6.465773959351260869e-01
5.974092668408892415e-01
5.089854535810589553e-01
4.609132424330235622e-01
4.480503069881739964e-01
3.356903168679163385e-01
3.117915899188323237e-01
3.303140565051679856e-01
2.417322428997737971e-01
1.312055289497749133e-01
1.637771430995088318e-01
1.319268856755548280e-01
1.840917895303403329e-01
1.455216700317713552e-01
1.750813798668753585e-01
1.587768033525465416e-01
1.578557914293115538e-01
1.037059516011471227e-01
1.575437054968346351e-01
1.863370657048281642e-01
1.055978310549412769e-01
1.437197719185762390e-01
1.685027026533564287e-01
1.657506066661760258e-01
2.110669447751088168e-01
1.951367817547344785e-01
1.908773100179948223e-01
2.086943158292726141e-01
2.125906722868567966e-01
1.963841785824411712e-01
1.899659298829209919e-01
2.357228251117247098e-01
1.890465488656827009e-01
2.143971562070560166e-01
1.869708609159145274e-01
2.485913046499663714e-01
2.684261884037875134e-01
2.080157366133699171e-01
2.358995655350302756e-01
2.303362138223113975e-01
2.809866883470330534e-01
2.949759240946820960e-01
2.415690169391839226e-01
1.664016654538846562e-01
2.966219894159252135e-01
2.659847642624134090e-01
2.683755637626858426e-01
2.977639193868830692e-01
2.595387806291469812e-01
2.528112724720728566e-01
2.619555622076365498e-01
2.878488383566068509e-01
2.997335165536813562e-01
3.221844066275765806e-01
2.847537063913496147e-01
2.674135154248026836e-01
2.970795282064800369e-01
2.397432181895693404e-01
3.095014194622146553e-01
2.709590107157832661e-01
2.551229330244011440e-01
2.299870769840088869e-01
2.745699917582612448e-01
2.437797574017550040e-01
2.455225751225067199e-01
1.940991981468804806e-01
2.268255567384284410e-01
2.182054575040530964e-01
2.429924908030877961e-01
2.173800976820429443e-01
1.407341584951893043e-01
2.023765057493860375e-01
1.656734667701733610e-01
1.723773523525263252e-01
2.280266548244491709e-01
1.413996724456570708e-01
1.950039695606769208e-01
1.649803953741733886e-01
1.532012136105045663e-01
1.388123198095005950e-01
1.717689954476099568e-01
1.691465582977077498e-01
9.848051992678667765e-02
1.788417014992297049e-01
1.028914120081477479e-01
1.443665294148580580e-01
9.159598005441367541e-02
1.076690093900054962e-01
7.760220461524512670e-02
9.474831498518795914e-02
9.935288426477879853e-02
6.580891543280883993e-02
1.047693020396738145e-01
1.038933806212623545e-01
1.670570299820237914e-01
1.092378133639473475e-01
1.123282412808020714e-01
1.978374812622957224e-02
1.007990901833259213e-02
5.606534819302484707e-02
1.148820017723338749e-01
1.319711731364195395e-01
3.373577600494254147e-02
3.355340292730245311e-02
6.438920209629479807e-02
3.924089273539653477e-02
3.722838951334198065e-02
5.880778209444225552e-02
1.187401909860483773e-01
7.406071109212722381e-02
8.877652127902468937e-02
-2.471659356643851613e-02
6.087616471481768071e-02
-1.722612152517110154e-03
7.531794511612786847e-02
6.410048241122649759e-02
3.995131081978490345e-02
-1.898905532853909645e-03
4.514144564506866047e-03
5.667045474689521092e-03
3.942970235442811583e-02
2.755685604107297251e-02
5.699216422142593108e-02
6.173270597336235482e-02
-1.287410287181780036e-02
2.587846667159615990e-02
2.470302830832373647e-02
7.200209956788976122e-03
3.758879892024064723e-02
2.339251092557527792e-02
-9.206739306564140635e-03
3.169315382422363981e-03
-3.607725802706722266e-03
-1.549001767591901349e-02
3.270394708285022899e-03
-3.355754968054434906e-02
1.911016732825793554e-02
4.658205658477669597e-02
5.556878790225484345e-03
3.203748961492918629e-02
7.922535140672651993e-03
-2.776787917679228446e-02
6.275314747099015877e-02
-7.047363254277333455e-02
2.177597468379041581e-03
-2.150892951475816273e-02
4.868709466730525293e-02
7.412693228002257412e-03
7.730344485513974961e-02
1.432598399013721357e-03
-2.275210709865308281e-02
-5.150682194828735960e-02
3.273610677143172498e-02
-2.576209193591609894e-02
-1.356343347682555968e-02
3.563352343990241339e-02
3.015999424257988573e-02
-1.995109334311842911e-02
-1.549197791771623339e-02
-5.475055508506578017e-02
-6.391596550613237726e-02
2.049496848299673171e-02
2.365910818901754975e-02
8.029986752602948086e-03
2.831488973350995350e-03
-2.404032310975108555e-02
4.115157561507070544e-02
-5.641251743203005292e-02
-1.690343635058152300e-02
2.064062032763539466e-03
-2.623091673462304291e-03
-2.464536601824952964e-03
-1.770416791048649852e-02
1.445354099955242777e-02
-3.779738814227943944e-02
-5.123721349144049961e-03
1.278891629063519039e-02
-9.395391223686794246e-03
1.596038235524279911e-03
8.923407813225769231e-03
-4.921698920117670295e-02
-4.510718481096183397e-02
1.039870078102374598e-02
-1.022682559776181069e-02
-6.587985640252430261e-03
2.894389587298559774e-02
-1.556965360013887363e-02
-5.587241363929999066e-02
6.887780611422200661e-02
5.832095882625218386e-02
6.101794222780199117e-02
-5.223994165021604921e-03
2.958744355845167873e-02
-2.419782907147706441e-03
3.776051335134390785e-02
3.323907249894843957e-02
1.563834963467081868e-02
6.754380679895584383e-02
4.929374627373252216e-02
1.134716085706634486e-01
6.919760609069591784e-02
-4.907467150329580807e-03
2.211240294055946687e-02
1.443014471746177363e-01
7.559229189145412475e-02
9.843378101207297948e-02
9.629733801624797140e-02
1.431306912785693941e-01
4.789471061223285475e-02
1.492274771856781368e-01
1.511583017817744734e-01
1.172420739687761171e-01
1.328442806658493291e-01
1.123620955232875751e-01
7.557321191001462046e-02
1.457804767753917985e-01
1.375788449741874586e-01
1.395628887426550169e-01
1.469106299727478138e-01
1.147446902141627395e-01
1.776398615431926398e-01
1.325967163154411765e-01
1.476779064789787432e-01
1.219304736684970747e-01
1.599076145750291666e-01
1.295292129165204476e-01
1.216503793936072886e-01
1.581158668217722552e-01
6.793970249342297374e-02
1.091767380672696436e-01
9.759691456922790775e-02
1.263185302966209345e-01
1.247668106700297597e-01
1.165955637875703277e-01
9.911927238353308856e-02
1.258719708108606283e-01
1.453984539461136705e-01
1.431297364493180346e-01
1.988266931890267930e-01
2.060531238675642474e-01
2.159270205143321575e-01
1.787136663011801296e-01
2.827186758548498324e-01
3.549435937994779855e-01
3.809463319079475219e-01
4.578443643123845663e-01
5.068519808897052892e-01
5.897718210318994014e-01
6.969978560278424773e-01
7.519837834444512703e-01
7.621872700481701068e-01
8.210762782243276048e-01
9.486872025933704711e-01
1.027640008298009500e+00
9.904982190834193956e-01
1.070445484519700896e+00
1.171636727936539835e+00
1.102399353790902259e+00
1.182140732450916998e+00
1.063580511085878477e+00
1.037500903711941147e+00
9.923200156835171315e-01
9.210311506425087336e-01
8.461111378016838991e-01
8.212653383243748717e-01
7.591653551980137582e-01
6.583266329018444551e-01
5.907424653150479266e-01
5.756693715229633801e-01
4.923371951744914821e-01
3.912120725397207899e-01
3.534496992274963612e-01
2.394006753419105071e-01
2.511340738043151832e-01
2.023182228800737836e-01
1.604633128771065231e-01
1.461131143979639835e-01
1.201206511767439894e-01
6.825625373887800329e-02
1.459403845447302395e-01
1.155432309239042832e-01
6.986673169404343520e-02
2.564680941705989661e-02
3.751249081470876823e-03
1.381645559320474059e-01
7.466432187239580021e-02
1.055995876903604025e-01
5.784102836456481850e-02
8.124900359997608290e-02
8.737808975069497053e-02
1.072281176259149149e-01
1.078272655545663983e-01
8.277256749643877032e-02
8.787781157951154998e-02
1.188952274163737055e-01
7.422525604586865944e-02
1.076749835877131439e-01
1.332288942040621149e-01
1.552129548236348966e-01
1.937527445796850545e-01
1.396229838345601770e-01
1.601525711599282586e-01
1.080654045607732372e-01
1.789933058301864111e-01
1.463570085188888314e-01
1.688870900492918936e-01
1.966963646691954060e-01
2.020079985468951067e-01
1.466775268799372645e-01
2.178996987168173860e-01
1.959497429147754322e-01
2.381154009427867146e-01
2.466291428054067925e-01
2.533284607715886039e-01
1.644496305625245125e-01
2.209523989559715462e-01
1.629193865043740141e-01
2.502917968893202394e-01
2.552125625456035385e-01
2.415328382673320173e-01
1.993839321533052711e-01
2.280182422322653002e-01
1.943318877367064546e-01
2.101629851154510342e-01
2.054807819031498894e-01
1.464462204845481952e-01
1.799203907016208026e-01
2.698087013321210370e-01
1.962378898406239025e-01
2.004909061396986381e-01
1.919716973934078863e-01
1.761798148460019808e-01
1.855731718295406674e-01
1.680204410217927546e-01
1.072458378033601667e-01
1.946047640369319431e-01
2.144854304933153377e-01
1.260714685706917637e-01
1.433435133670420414e-01
1.953133871602427962e-01
1.216310765556046780e-01
1.507547883935245747e-01
2.631916786991289614e-01
1.465423974588918876e-01
1.237772723365883620e-01
1.422681150294121122e-01
1.332072135139287516e-01
8.412571956090025838e-02
4.600634787781491403e-02
1.100560513679302022e-01
1.087413116048013273e-01
7.174932724211335877e-02
1.243548881396165789e-01
1.127532206377422908e-01
8.715799378796135199e-02
5.018479936110938067e-02
-9.444170612454505509e-03
4.292087671789768244e-02
-1.193102034124945976e-02
-3.241293687419636443e-02
5.300724285977142375e-02
6.420663449971943104e-02
-3.387945749008032525e-02
1.270210516855679178e-02
1.579484315096321700e-02
3.631061521575523754e-03
-3.270566878486689394e-02
4.499011369991290366e-02
-3.889648405693438282e-02
-6.011407490406599913e-02
-4.598150177631540880e-02
6.738114130358061060e-03
-1.851952371522819912e-02
-3.626269025887217390e-02
1.678799385382706566e-04
-8.047639132205700041e-03
-8.947399245756586239e-02
-6.822807168277725265e-03
1.111922993844921548e-02
-2.985855042790279412e-02
-3.493835815323523969e-02
2.730989652071597051e-02
-5.230913342454640569e-02
-3.739056585683417366e-02
-2.380063294389995684e-02
-3.349430277118346788e-02
-4.424673372645140934e-02
-3.445029993225226517e-02
8.969607718698278942e-03
-1.476839436004712125e-02
-4.207112866502542292e-02
-6.651575850392538181e-02
-6.323633167155463808e-02
-1.345305993971265129e-02
-9.036117588988493154e-02
2.898001085731704424e-02
-4.457911574876807781e-02
-8.545093373429912820e-02
-3.906626554307859184e-02
-6.894284662517013995e-02
-5.785522734392038041e-02
-9.094313071142749727e-02
-5.308523342275158624e-02
-1.098885099515215791e-01
-6.446471772096154518e-02
-7.152635179178377933e-02
-6.199592737271391457e-02
-7.005402728644567756e-02
-4.629471158751120169e-02
-2.084432282362833760e-02
-3.682342207881290908e-02
-8.808765399278252473e-03
-6.287581005282516511e-02
-3.830110141921580502e-02
-3.723169454533546696e-02
-1.370870219641189686e-02
-7.026569190482351290e-02
-2.477270558800530320e-02
-7.423371260950314965e-02
-6.568016016858166384e-02
-5.940161903912678093e-02
-3.509702076428450335e-02
-8.134314260457321810e-02
-7.719289731690882894e-02
-6.813430068813490503e-02
-4.733577956921720953e-02
-7.686934115626842257e-02
-4.083995547768209944e-02
-5.945365150560651124e-02
-2.892107710628023451e-02
-4.668678594053858599e-02
4.098149220026929551e-03
-4.469282428313962191e-02
-8.470665346449968158e-02
-5.432763248673006667e-02
-4.705688631768207425e-02
-7.464903522985935624e-02
-1.518684130171414626e-03
-5.591102355497421655e-02
-6.546533992913593225e-02
-4.011476867462700213e-02
-7.209791721803468501e-02
-1.517809349858308121e-02
-2.036150194199235278e-02
-3.844395545673719161e-02
-2.353368425904137085e-02
-5.505462811335546519e-02
-8.378654225146443812e-02
-4.695938916360761078e-02
-5.055826341960630022e-02
-9.475598621343325756e-02
-6.335851165480574365e-02
-6.630428753931494334e-02
-5.857613000164985095e-02
1.567550742409759557e-02
-6.113883629035352096e-03
1.054605199277312139e-02
1.728166732358968338e-04
2.088329244133627083e-02
-7.073923394308609391e-03
4.152659386937206792e-02
-3.674122549649306430e-02
2.508503600186284821e-03
-2.168238438945542523e-02
5.100656737922300982e-02
3.118987411592281239e-02
5.916523317990815545e-02
-1.346794095827347909e-02
1.571090470852948284e-02
-1.453985137123189886e-02
5.502613954453495354e-02
3.653346844788223080e-02
7.717961640256612577e-02
6.050376753620764075e-02
5.603296745682953550e-04
1.939753219206603180e-02
7.621714861418504849e-02
9.200735239979485058e-02
1.555658950176496552e-02
8.323380705941650637e-02
5.855995294559598885e-02
5.874042258577380493e-02
7.495575594841591416e-02
1.004429290292532528e-01
7.722611104856891284e-02
4.006441017558060036e-02
1.038783373375419816e-01
9.018361263959392971e-02
7.239390481970736646e-02
9.070617014403617451e-02
8.849370333494617491e-02
9.887107640717623935e-02
8.842854151928133954e-02
9.891642720350285467e-02
9.046608250326201861e-02
1.145046932392358441e-01
1.356408924581930242e-01
8.624532979404279931e-02
6.733927768565858840e-02
4.318835240853472618e-02
1.074004373505259569e-01
6.452036434101884876e-02
1.679981824870611651e-01
1.898953229571501977e-01
1.126747482092245456e-01
8.590822089059946265e-02
1.771573994028963761e-01
2.476908190737669435e-01
1.785585448127953445e-01
3.144669196384356491e-01
2.482452134925730025e-01
3.128206697271607717e-01
4.246489355636969831e-01
5.103510464318965489e-01
5.468509364472746714e-01
6.344874488749532304e-01
7.277839877687889425e-01
8.044368261773070516e-01
8.197236754007486415e-01
8.781795306191565453e-01
9.942689114335311329e-01
1.025646622763414895e+00
1.067968209966086768e+00
1.056198313728330618e+00
1.107318337331890667e+00
1.053398391296662906e+00
1.077675298126453907e+00
1.044213486081353448e+00
1.002722693887805772e+00
9.701649803837931740e-01
8.548651030945151330e-01
8.378384527906874712e-01
7.457777208667849544e-01
6.468464378134367587e-01
5.562983132201968495e-01
5.798024207500044325e-01
4.516988931451786926e-01
3.785193965023960772e-01
2.959393230605629754e-01
3.102939660671331090e-01
2.619473002859381561e-01
2.167602040466298230e-01
1.573599963636965471e-01
1.547191985607290765e-01
8.594814148936189002e-02
1.005757029364720834e-01
8.008622490191333321e-02
8.106511260266735519e-02
1.308086013984332413e-02
1.205361511030944022e-01
1.120420716756934110e-01
2.968354981168359885e-02
8.351233709327919585e-02
2.460839972873665737e-02
7.554433163270252161e-02
1.156360092478452006e-02
7.352540675423059613e-02
7.284427802408832697e-02
1.276073183291601687e-01
1.485581440728218627e-01
1.549474329833747666e-01
1.447503218490648336e-01
1.182942249959834519e-01
1.332933641354951959e-01
1.389470097390810566e-01
9.778622909728362789e-02
1.732553428167317999e-01
1.651695629776164520e-01
1.720410425610889027e-01
8.684773605500832605e-02
1.740684078466977758e-01
1.956781793879171505e-01
1.698848296576242478e-01
1.599449859932326745e-01
1.384942333701446038e-01
1.404986731879794282e-01
1.920506895419579196e-01
1.840013043524818259e-01
1.869151121770772916e-01
2.432784511831695695e-01
1.624513983209729395e-01
1.921507407749642460e-01
2.554032409975176554e-01
1.969323605482435902e-01
2.096491369663993076e-01
2.034180283350130736e-01
2.304958330953112700e-01
1.479615050693686984e-01
2.034409232611308627e-01
2.107430169846420398e-01
1.783735095675145765e-01
2.174832046634299909e-01
2.292741478902317054e-01
2.174068360405734535e-01
2.550600784327187176e-01
1.861909203868995222e-01
2.113471559046924408e-01
2.075699061074058327e-01
1.828329319998854285e-01
2.202449103132539665e-01
1.909757872196454487e-01
1.421436775177030709e-01
1.963168798297544315e-01
1.542371637784485661e-01
1.547688144467703197e-01
1.520557466882903330e-01
1.764913707967529777e-01
1.815884146612346539e-01
1.391095306999510228e-01
1.319723407979923602e-01
7.157350323036587580e-02
1.061488088248425110e-01
9.345999017235706585e-02
1.255994059651773520e-01
1.074506369172005121e-01
7.781166475691363160e-02
1.041027016856259091e-01
9.198263677310475339e-02
1.235043216175651937e-02
1.164250383283932100e-01
1.082244279206184406e-01
6.556793753548523229e-02
7.819942115023201246e-02
5.289709248913136014e-02
9.681995112593259900e-03
1.180214862865703318e-01
7.103791225743438797e-02
7.234485137413249056e-02
3.132369229944260980e-02
6.952796736021167601e-02
-9.311135267364364920e-03
2.063878528187574474e-02
4.656745479217900413e-02
2.101172797534522907e-03
4.492159946282538174e-02
2.356940800534956804e-02
1.776232164051295970e-02
-1.295285263753215288e-02
1.811168868311270608e-02
6.144093304628903823e-02
6.356812758993083540e-03
1.555658476017443212e-02
1.790431739664873761e-02
-3.947552264975268121e-02
-1.092945144687267750e-02
-1.352416861336686038e-02
-7.393919050664884973e-02
1.203663658288806754e-02
-4.091522355611027645e-02
6.207979183986307714e-03
-3.804004000988205070e-02
4.494311547173264476e-02
-2.560601332388645623e-02
3.954349247364585818e-02
-2.403261761933513443e-02
-2.113814425090540516e-02
2.685347274046845020e-02
-4.821347927600963534e-02
-1.966634880870593224e-02
-5.398213565334136071e-03
-9.834593524846356460e-03
-2.097010102502513268e-02
-2.535535075034319949e-02
2.647096565339009805e-03
-1.762229496912626550e-02
5.923473086085862677e-03
-1.141826876203032304e-02
-3.744209317765992417e-03
1.071064694993598826e-02
-3.261765730068190428e-02
9.883984125974545204e-03
-2.798568041749169982e-02
-6.525219788170374957e-02
-3.304062164324973738e-02
-4.476092886753454958e-02
-1.171931671777693210e-02
-3.143789955168511258e-02
-1.890052741532659980e-02
7.829701832602755512e-03
2.212721037678791122e-02
-1.350396016038542604e-02
1.045495777322806574e-02
-2.724954060075997220e-02
-6.864222010537152086e-02
-5.693126507647258000e-02
-2.721906778878622341e-02
2.731716760895064322e-03
-2.670251250031344115e-02
1.488808601037374529e-02
3.449801554826899264e-02
-4.685329296180960890e-02
4.379755190338459336e-02
-6.872228332857914512e-02
3.606631623401941600e-02
-2.010858899313048426e-02
-2.577572536994983399e-02
-1.869960925677150235e-02
-4.210510373693399089e-02
2.731838112497058518e-02
-3.808241035897067667e-02
-3.381942877650788437e-02
-5.778670498636841873e-02
-3.781248663933117760e-02
-3.633616159039071425e-02
-3.773268918648343961e-02
-1.930607710479935457e-02
-4.673351125859151467e-02
3.536328672722358069e-02
-1.615456116177874796e-02
6.441022692426426333e-04
1.637155648022242324e-02
5.247149056443677767e-02
2.034623429754151697e-02
-1.292769361037289857e-02
-3.607583475020642583e-02
8.000124890978781156e-03
3.163952405118909683e-02
6.114286402438180029e-03
6.080481734462257065e-03
1.298709565512619346e-02
-4.685349093327697417e-02
1.649764523272195804e-02
3.714701077732582984e-02
1.709927810898444200e-02
5.568432064277570315e-02
6.041353683879348291e-02
1.453482115271542176e-02
4.706301515030843902e-02
3.945557466779036487e-02
-1.812301673908994770e-02
4.186167670911818822e-02
2.146358114531164013e-02
6.147447205821397753e-02
8.313121826062756792e-02
6.141980952287054429e-02
4.632596035104578208e-02
8.577425481952778707e-02
1.575125957468525018e-01
2.446287994333828236e-02
1.019945700942801736e-01
8.398716351559633309e-02
9.268213755576902579e-02
1.073230186582244811e-01
1.049379670469067355e-01
1.378686725144959713e-01
1.168378780296322611e-01
6.319929874551816207e-02
1.700635372858450567e-01
1.687933430182618488e-01
1.195504258917341328e-01
1.416580014261096254e-01
1.786590825349624601e-01
1.746342744884159803e-01
1.854021613667309887e-01
1.564901028103161673e-01
1.684565411937739843e-01
1.873048399685143250e-01
1.339985926314165299e-01
1.563964764039888766e-01
7.734383518578015482e-02
9.267123155792257594e-02
1.532552777629431207e-01
1.560230986836981804e-01
1.231807743282944817e-01
1.153458735478127134e-01
1.222578306475456816e-01
1.390371746803349129e-01
6.557955844216023511e-02
1.524738894004626366e-01
1.453096607568873655e-01
1.604838586100139630e-01
1.615846209643388709e-01
1.401995689035928083e-01
1.699504748382118235e-01
2.752259842544790835e-01
2.428215098673219552e-01
3.252706364919613624e-01
3.140788144170810203e-01
3.981757842736638464e-01
4.437442531160090131e-01
5.123208901896169065e-01
5.794028991574208254e-01
7.049403201317790968e-01
7.931890557395625541e-01
8.160362414920838692e-01
8.677400958326740854e-01
9.068832717291328560e-01
9.646328572816695868e-01
1.100913966795026289e+00
1.053384329779005979e+00
1.111851847961627060e+00
1.143860722549936426e+00
1.061240785702576961e+00
1.087784227273848270e+00
1.057629227235100444e+00
1.037814789612336197e+00
1.014586415319135959e+00
9.776068218140653299e-01
8.598404627095302954e-01
7.941404375624669942e-01
7.301626972828875184e-01
6.350001369674342921e-01
5.987096718592813671e-01
5.299000898420324068e-01
3.696499089247015646e-01
4.109267168607687037e-01
3.422482012007304619e-01
2.994557868856939087e-01
2.869622129084467010e-01
1.643004882065537131e-01
1.526022776161704841e-01
1.660996438273546483e-01
8.148682673076443339e-02
1.320643507778995474e-01
1.548287826262905176e-01
1.355360540121945401e-01
1.228103868242216984e-01
1.123909296778412004e-01
1.071755003077282387e-01
1.074355839588529982e-01
1.319027213354460049e-01
8.236619540714239240e-02
1.772555824336775054e-01
1.161660730923236712e-01
1.603027397533481335e-01
1.515108913174749994e-01
1.201960551794497289e-01
1.994107677127311129e-01
1.989749612184517624e-01
1.253487743088168849e-01
1.762050638936501490e-01
1.905553077301403997e-01
1.280703882499235613e-01
1.324016734707663401e-01
1.767254298123095702e-01
1.679450308457603736e-01
1.815112502917325676e-01
1.787498267849353950e-01
2.196241173638456556e-01
2.014932605204019511e-01
2.664389523514857361e-01
2.429615273796244534e-01
2.656742112856479987e-01
1.952297755051548012e-01
2.307901901716758464e-01
2.571940628783330740e-01
2.698657240877467278e-01
2.397000618837571428e-01
2.466263041767638997e-01
2.521081849528276075e-01
2.567691033751915985e-01
3.321310941896792324e-01
2.777466589045226031e-01
2.703298917927559608e-01
2.317853020916843532e-01
2.325539293254687556e-01
2.629143857850592125e-01
3.025580955193921118e-01
2.616526105382400158e-01
2.615665905975393390e-01
2.422136398380570488e-01
2.102404475280710006e-01
2.732210859586616247e-01
2.497924495705713122e-01
2.678099299022603241e-01
2.557847433098185408e-01
2.186647532257420534e-01
2.505326225365333004e-01
2.009782101093529061e-01
2.419492805718625739e-01
2.290426495907139925e-01
2.724601160673634781e-01
1.953779795448440937e-01
1.765675873244208771e-01
1.988348886227210288e-01
2.242429469468181502e-01
1.166833199449080483e-01
2.214485579519172298e-01
1.834331282290699860e-01
1.499030061092416211e-01
1.675711042685439356e-01
1.508151167477934929e-01
1.307462594708131143e-01
1.038206115221782799e-01
1.784147859691224969e-01
1.342944089987778977e-01
1.339831894297366377e-01
1.658022314993503332e-01
1.369607990707935041e-01
8.343356257546297172e-02
1.454462095517530529e-01
1.649473966212399167e-01
1.308267801038118794e-01
8.522370581466234829e-02
6.257501165121706621e-02
7.545047169576177271e-02
1.014703391759627510e-01
1.372106366369499619e-01
6.784462555516883320e-02
6.752070701245455053e-02
1.141550972583520451e-01
6.717614465961599390e-02
1.284609526694066861e-01
6.960255722469345374e-02
1.062399231895592711e-01
8.000613829355404660e-02
8.720299007206139263e-02
5.829427024075436309e-02
5.801711984446407400e-02
7.183589149562870368e-02
8.125005401939119909e-02
7.125695095442644011e-02
7.478414121211973686e-04
5.991976848008434553e-02
3.102664089040782502e-02
3.299458758647902390e-02
6.184937794541410516e-02
9.791658188153799791e-02
3.896844486730542678e-02
1.041584888203231640e-01
1.119028550771515931e-02
8.026184000598601820e-02
5.551592397356923392e-02
4.820904626959404693e-02
8.287141309173387538e-02
2.176734619936933346e-02
7.873554106782834627e-02
3.375842129676027287e-02
2.039441421313179653e-02
-4.457554736288227293e-04
8.665410204643617109e-02
7.311053642962031529e-02
2.434660184309823949e-02
5.490043609789454354e-02
4.221601056579482592e-02
2.773893036077190732e-02
6.720302626851576422e-02
1.945514744574428079e-02
-2.755296889612392913e-02
4.598932234065841035e-02
4.021260141337264921e-02
2.044271057059660751e-02
1.151378202890624217e-02
-8.437094906349973389e-03
2.753333210308406970e-02
1.223871229448314155e-02
6.751783100703429019e-02
5.418003155469196253e-02
2.425593483854389734e-02
5.458794101090849032e-02
3.580344567053692778e-02
3.107214994387695606e-02
3.764568062142308741e-02
9.256997940913572198e-02
5.889843504052871825e-02
3.077736221871027467e-02
6.670888117635358217e-02
6.579626586270122257e-02
4.803132861045174978e-02
3.057034420042038791e-02
2.878798940569574777e-02
8.583572483573526091e-03
4.647923916641452657e-02
2.301203056580681389e-02
2.846981444707578912e-02
6.057804240991486455e-02
9.278535184760577925e-02
5.373846075543130263e-02
3.973516121357723030e-02
4.274326413587493240e-02
7.790666575422644513e-02
5.591127543202725758e-02
5.066221961452766626e-02
5.342176810875901016e-02
3.332897496356027056e-03
5.869294121221582672e-02
2.159849423892683945e-02
6.066241125598467038e-02
2.785705761456545859e-02
6.884871605634111658e-02
4.785061498771841365e-02
1.954982054550142082e-02
4.680723980928336303e-02
1.234808545050638945e-01
-8.941315101059638115e-03
6.636600663080099993e-02
3.337251754669827430e-02
1.075060202623866756e-01
9.340292063198454842e-02
7.741441978412716418e-02
1.024975085314687173e-01
8.566571179238618994e-02
8.208346533956348279e-02
6.772126511225387557e-02
7.885874291207779774e-02
7.996909271427088406e-02
9.860252215801842968e-02
4.611499430369452035e-02
1.385235807565304844e-01
1.709474062233822533e-01
1.046136487962089356e-01
1.579751997647157458e-01
1.239313150444306122e-01
1.151652973322538076e-01
1.270816405545621974e-01
1.463939450270936304e-01
1.274238589449541437e-01
1.724034618813058695e-01
1.436717973019705497e-01
1.319245017729512581e-01
1.681953676983240498e-01
1.524088652375783504e-01
1.675670718798668579e-01
1.796069223103947399e-01
1.445514361085658006e-01
2.316411191490474475e-01
2.149856303399977353e-01
1.740107774741463942e-01
1.942004183575210541e-01
2.152512160244032524e-01
2.033753405306212847e-01
2.539772090356866019e-01
1.904267898818408911e-01
2.328135230003297862e-01
1.562409380716400231e-01
1.596096901479412411e-01
2.439945579993559599e-01
1.786767608632710003e-01
1.546349988919908380e-01
1.862270057716783056e-01
2.237210111839303961e-01
1.613896546105304808e-01
1.821464146097034886e-01
1.277877231782542089e-01
1.706806475801949941e-01
2.177249634532013589e-01
1.695876536272270529e-01
1.630816686077981026e-01
1.895035474945127585e-01
2.101177854050199356e-01
2.716942508180884563e-01
2.858336205273615538e-01
3.232048567119022997e-01
3.447581180106258913e-01
3.697576332306231062e-01
4.160892056488175728e-01
5.096955732354636615e-01
6.074830606866186145e-01
5.994997664285387495e-01
6.686441996257452836e-01
7.385241932530389741e-01
8.710258810975670674e-01
9.162547709418591424e-01
1.001341583365376486e+00
1.030067074630365953e+00
1.115790694782974324e+00
1.129932072150659161e+00
1.121318875741626364e+00
1.211092569310369349e+00
1.184047366609493057e+00
1.163451119718620586e+00
1.155187896823413052e+00
1.064769619491358732e+00
1.071175490702973354e+00
9.811829211142323315e-01
9.279146588392399586e-01
8.952884158044711604e-01
8.061119023692958629e-01
7.066751520336244097e-01
6.354067639960788716e-01
4.911480907431369225e-01
4.772709232237418719e-01
4.463810626016901928e-01
3.640553068072938658e-01
2.993455278353213678e-01
3.123293176735528753e-01
3.023729786151095333e-01
2.129113670305826655e-01
2.378096113720594706e-01
2.153690780032912477e-01
1.508311090175003533e-01
1.486419000130410617e-01
2.181336858217663432e-01
1.267788005145643049e-01
1.404552595310625263e-01
2.178922431595453346e-01
1.434393771868560652e-01
2.037682040141378104e-01
1.360297759625969660e-01
1.749892700092250120e-01
2.080509100787519827e-01
1.664385129961605259e-01
1.887042972736965862e-01
2.134802598083892777e-01
1.696485273376128755e-01
2.695593080672584185e-01
2.391616586384738563e-01
2.030016007103846998e-01
2.123466349338773151e-01
2.823704414722100209e-01
2.199352020253158291e-01
2.218873704708153038e-01
2.758004360985857328e-01
2.046327491229028572e-01
2.493844398042988075e-01
2.591757103961602748e-01
2.402687706487495745e-01
2.189357885707198803e-01
2.722768390207386813e-01
2.949086144335866799e-01
2.576937533682309156e-01
2.462006873520471983e-01
3.225194434410197375e-01
3.036219394067530830e-01
2.795516414620335954e-01
3.203342642891472969e-01
3.019290308638269971e-01
3.499782278536923141e-01
3.175013706689867043e-01
2.567987222245977086e-01
2.792906442585381677e-01
2.809209262239544813e-01
3.083662468072821405e-01
2.894427664824770208e-01
2.638355909434864643e-01
3.140775867723066828e-01
3.248037320331439992e-01
2.897693501732043764e-01
2.968487910891190462e-01
2.589240179292165434e-01
2.693431555784521758e-01
2.673338239962540497e-01
2.950121844379753333e-01
2.821297167254683824e-01
2.604903504807848380e-01
2.549858539545306058e-01
2.024899126556936046e-01
3.049463159395101597e-01
1.892589132479888248e-01
2.593559960019103938e-01
2.425520578941955940e-01
2.280343668780509259e-01
2.302250716586612400e-01
2.049483436003239345e-01
2.387091233759399134e-01
1.739429180026880739e-01
2.173664317313588334e-01
1.813557013889829927e-01
1.830292607164059893e-01
1.779969721969991148e-01
1.792151869145988952e-01
1.934620071790681406e-01
1.715994452387020197e-01
1.950065717184443770e-01
1.927886749906185249e-01
1.652219206151523956e-01
1.710570834214136249e-01
2.060610744072495781e-01
9.776927255202838563e-02
1.674393854916466640e-01
1.766239697687920773e-01
1.385551665934952048e-01
1.780811191541100680e-01
1.697395268113430222e-01
1.021386472059662154e-01
1.003173108065303909e-01
1.200894431312509031e-01
8.164897821156495705e-02
1.780708536260042774e-01
1.169211581172854286e-01
9.133292743721693752e-02
4.446842523723489038e-02
9.132435073562653050e-02
4.534141409509322845e-02
1.010010310359307772e-01
5.750552458512470100e-04
1.147309338617700514e-01
5.820958795402322861e-02
1.802900324217561814e-02
6.626280985412905111e-02
6.535537503034274942e-02
6.113456678240584974e-02
1.027814442472000239e-01
7.124852457932452643e-02
8.223911401280524502e-02
4.952563521829164012e-02
6.851983583732824956e-02
1.526416474862989092e-02
6.115234286778774980e-02
2.963011730299421748e-02
9.100454587264310280e-02
5.278703796745355670e-02
6.957730341947565567e-02
5.678896952930140296e-02
1.023909496418158593e-01
7.242963702970908746e-04
4.350145103939537239e-02
1.753628624188467364e-02
-1.568655840685242303e-02
1.455188436257162654e-02
7.999795815029275836e-02
4.349672863719310917e-02
3.740228007655152509e-02
6.681972611800558737e-02
4.672049069965871632e-02
6.132174837321777150e-02
5.229074107443923425e-02
5.858774930672352305e-02
2.853326515073324049e-02
7.316809973577964588e-02
5.136112792338318189e-03
3.867703456480555552e-02
7.393105076407555099e-02
3.617809734547570294e-02
2.765980566159674525e-02
1.090320656911689667e-01
8.273745528356213352e-02
4.423650499018891985e-02
1.068761879667188761e-02
-2.142975877976199817e-02
6.070983523042343399e-02
7.725968898164306542e-02
5.099711728551269835e-02
-1.234948457685284412e-02
4.363641776579008091e-02
2.408528992642245542e-02
4.341420240568195227e-02
9.675209631075379346e-02
6.202874988521499267e-02
5.554096869236911649e-02
3.682726475878718431e-02
5.057015377277936791e-02
1.641613576979724862e-02
5.475139203353462242e-02
3.232863403754007714e-02
1.352247397748797264e-02
6.273958626386733073e-02
-2.851338759533996597e-02
2.228844799355651080e-02
5.727744501266011229e-02
7.592979200016153341e-02
5.372912613558236683e-02
1.988073107895885205e-02
3.906885936930033776e-02
4.998590810756241981e-02
8.882148349972648904e-02
7.049806357648513711e-02
7.171980790874718514e-02
4.698383711684288311e-02
1.417901109192043485e-02
5.573095304690068447e-03
4.033063439786162274e-02
7.214409045395051012e-02
3.808456489295498210e-02
7.248211637568217902e-02
3.385511220859128284e-02
4.107098864499621194e-02
1.053255974874725276e-01
8.910979964237705775e-02
6.014492910904315620e-02
4.787547581337388281e-02
1.049248236882826535e-01
1.066234638082745878e-01
1.035760474215912941e-01
8.332240286802486406e-02
6.024887353985337868e-02
9.722572583207426955e-02
1.446175043500809443e-01
7.994832065630311235e-02
1.135583064271461634e-01
1.661802374738196864e-01
1.129766945619339047e-01
1.232685735525355514e-01
9.152731613282366618e-02
1.556021446858790735e-01
1.194376032263334136e-01
9.961122511688777492e-02
1.220422907379115351e-01
1.610700357160158858e-01
1.113118497093916331e-01
1.207339879632011725e-01
1.823418761589354065e-01
1.662771318830675027e-01
1.435167962721679291e-01
1.633645957312461761e-01
2.267723268349583765e-01
2.142473102653635886e-01
1.732748362691021449e-01
2.012174470310134355e-01
1.801327725938740576e-01
1.225979547853914137e-01
1.161250945656553402e-01
1.459480335354822744e-01
1.241289994778916328e-01
1.774599131644697403e-01
1.505599041194441989e-01
1.775221577320834077e-01
1.758066232074712854e-01
1.814313437935157758e-01
1.315288593954417884e-01
1.745132005775964501e-01
1.312209579297286544e-01
1.837455056404736775e-01
2.037818369678447428e-01
1.962289263485101631e-01
1.799989818318191714e-01
2.170794881745581606e-01
1.734830673382626309e-01
1.913901320049589960e-01
2.886490870285211563e-01
3.506373217210300708e-01
3.177618317569949058e-01
4.050523270913192753e-01
4.740252114787174009e-01
5.045225637796758589e-01
5.798404783842201482e-01
6.792218280781407991e-01
7.370543888757138395e-01
8.104981883496117367e-01
8.492100396779049820e-01
9.453214633116983068e-01
9.956549931481749605e-01
1.050181836542502190e+00
1.086809289084329500e+00
1.132745773967252845e+00
1.124786546151232081e+00
1.154512173566793143e+00
1.132391440393279991e+00
1.090844226354446223e+00
1.023012647500203265e+00
1.061157549306371850e+00
9.967734340363496592e-01
8.843416979126688116e-01
8.577157422911031448e-01
7.322333078982381505e-01
6.785848434342733881e-01
5.978206711337198387e-01
5.341798214905045805e-01
4.949466213878226939e-01
4.019198897643273538e-01
3.483038635537174521e-01
3.318215068864628359e-01
2.690405701944048600e-01
2.136026650893531054e-01
2.089170817848214345e-01
2.075222987880206704e-01
1.906034863662827428e-01
1.048983685999833465e-01
9.601958260075271756e-02
1.571551651079350354e-01
1.142347046264106797e-01
5.478742097715722653e-02
9.862908800518986607e-02
1.085305651426961282e-01
1.146253713450329920e-01
1.501203626688720483e-01
1.031313578841254464e-01
1.634069665399293936e-01
1.486022749610048099e-01
1.064322596363825313e-01
1.406195607857557428e-01
1.703532589943403397e-01
1.620954017950269888e-01
1.777196036732245910e-01
1.541836271223537003e-01
1.938904574585015028e-01
1.706952918336938907e-01
2.643731526618118832e-01
1.536591667193849264e-01
2.793304140295029270e-01
1.748809495933376923e-01
2.464302060883792611e-01
2.378299548498021554e-01
1.902493037241561880e-01
2.398477317899718186e-01
2.110965169083408310e-01
2.380861379104824149e-01
2.378925904385384704e-01
2.263235689741548706e-01
2.268918549075979452e-01
2.528546660286510872e-01
2.179667946936048040e-01
2.212293938080908684e-01
2.776599949770123255e-01
2.633196858690413089e-01
2.123770506199439967e-01
2.222333473516845959e-01
1.886324484978131877e-01
2.800530524754223927e-01
2.730915397874254524e-01
2.190811032234564748e-01
2.701824756269819994e-01
3.088501675793019485e-01
2.013452198659707593e-01
2.269671822720918941e-01
1.961418311585222396e-01
2.686631673181154034e-01
2.342369947188857049e-01
2.217819937689214649e-01
2.368617591140599887e-01
2.093671316187481757e-01
2.097991438479753779e-01
2.256170385716944893e-01
1.943677969910833359e-01
1.936839355765820336e-01
1.979467013586517221e-01
2.000952119021106035e-01
2.099597139773844989e-01
2.038242508947610832e-01
1.356374939206518859e-01
2.170612100971173186e-01
1.707123437165781743e-01
1.530425041214117099e-01
1.298952640848022033e-01
2.106592120599619089e-01
2.157537529508804230e-01
1.949246680051748004e-01
1.365869579396402633e-01
1.373121134010170108e-01
1.658183288666935651e-01
1.080305588294726005e-01
1.257384231415790699e-01
1.106545388635422206e-01
1.558429612596279601e-01
1.359251048888124036e-01
8.337390445660325389e-02
1.280728750594107845e-01
7.715201117524701779e-02
5.598367854545257399e-02
5.903562829837920301e-02
6.741005698302159066e-02
3.498488524650436582e-02
3.871570833447555982e-02
6.811579320018490771e-03
2.146927075874066615e-02
4.937287288386097567e-02
6.995488088863546783e-02
6.262636513246662429e-02
4.477393065353369589e-02
-1.716978458268011987e-02
-1.383425062467524835e-04
1.690210596864938353e-02
4.899077167438307262e-02
8.233058710432634292e-04
-2.150208644919317236e-02
5.623486068042665015e-02
-1.143689706212704799e-02
-2.527578863987281488e-02
1.344896012568943915e-02
3.309471227387218023e-03
-1.190018371233527751e-02
1.510446040029840911e-03
-2.778424767051469735e-02
-1.676526671086983611e-02
-3.824956630948775013e-03
-6.505637623913440581e-02
2.351040803632683390e-02
-4.741553565983325225e-02
-3.541153218004657738e-02
2.180629475883542195e-02
7.989256433509644983e-03
-7.305604421277823654e-03
-6.195360297220790791e-02
-2.961201251978797661e-02
-1.861471270904285422e-02
-1.708205358390411585e-02
2.085820668510810980e-02
4.587228057310595297e-02
3.949741073955931325e-03
-3.103680500721574601e-02
2.094580846595090612e-02
-3.362987633935217435e-02
-9.508663444473336446e-02
-5.427364803523748726e-02
-8.833782198117538786e-02
-2.906989953739579080e-02
-2.326228861943975545e-02
-6.603798745537506343e-02
-4.421195623477355841e-02
-6.169758634508826917e-02
-2.302407359213011137e-02
-4.511525661454864056e-02
1.050044216709519751e-02
-1.498523827345213735e-02
2.779834681780822547e-02
-3.424954468183002976e-02
4.347102928875810901e-02
-2.102984423377114720e-02
-3.719691239278578171e-02
5.068979193834491359e-02
-7.664815861053889123e-02
-3.858479078391521128e-02
-7.215729651375069054e-02
-7.754437294526572710e-02
-8.458806069508978398e-02
-4.235149874901637801e-03
-6.275745127523681133e-02
-3.065909226600257304e-02
3.632348711598294699e-03
-9.310512839597441873e-03
-1.085205929781690032e-02
1.311694831465989516e-02
2.499220726726789077e-02
-6.079592424107049808e-02
-8.655831636655734324e-03
-3.117547376273990811e-02
-2.720890426258714551e-02
-6.788820942937451308e-02
-3.816582076085924674e-02
-3.447316075271900093e-02
2.162195773010486960e-02
-5.534193352895955959e-02
-9.153642720360001539e-02
-1.932860980553910771e-02
-5.589404764899925937e-02
-2.128612764409834254e-02
3.964284631088339783e-03
-1.745380207761930771e-02
-2.582883481233540224e-02
-1.584186339770331936e-02
1.621121862706926750e-02
-4.172020559056741074e-02
1.710856121913602312e-02
-3.233482921560330847e-02
1.861961379843248346e-02
-4.275816389642287524e-02
2.300607607198431812e-02
7.089160405186607089e-03
1.667159282938208975e-02
4.638235572493779046e-02
-2.978624294326503302e-03
2.513272676013220130e-02
3.938919782976271766e-02
2.588461803917721515e-02
6.106233304932870420e-02
5.427303859647802237e-02
3.189068089199688372e-02
9.208266256925928817e-02
7.612098077038162436e-02
3.898866374835006227e-02
4.365268799364351721e-02
6.753686490377228124e-02
9.232752713372363584e-02
1.713188915055991607e-02
6.396428227130024347e-02
7.487408486404703578e-02
5.302478133608234251e-02
6.915860978342650012e-02
1.072551885305094432e-01
9.142918970356275765e-02
9.635470606376929370e-02
6.945606899727903294e-02
1.061228898315424302e-01
6.866636153166705281e-02
1.583558260730456857e-01
1.672145793291891502e-01
1.005865910287350451e-01
8.052475487654206510e-02
1.388249829859961870e-01
1.295548533502963728e-01
1.662822364049110491e-01
1.722566950991201162e-01
4.502589678464048728e-02
1.383379509118643491e-01
9.474852172274277062e-02
1.160357290765639121e-01
1.215756368017615330e-01
1.198312867422006295e-01
1.284744731123135808e-01
8.398457233766681851e-02
7.664454424060773707e-02
1.479368970345225076e-01
9.654025180269237838e-02
1.928008123691384579e-01
1.328506437084792935e-01
1.683675718671618915e-01
2.038486268291712922e-01
1.993155259207860519e-01
2.419055313171825650e-01
3.645160515209831531e-01
3.410766403457841101e-01
5.297183385971880876e-01
5.178545358180126623e-01
5.602692703984565314e-01
6.766330475122682708e-01
6.636340856829323620e-01
7.994790793972019749e-01
8.716380984715110802e-01
9.021798057954945049e-01
9.754422991866114057e-01
1.084266981184145884e+00
1.076243753429040995e+00
1.101882041100367804e+00
1.071553495994934879e+00
1.046586088735064424e+00
1.056376347739854449e+00
9.542494868880568859e-01
9.478370690359749773e-01
8.860657473647841620e-01
7.975484935967457334e-01
8.076391601329030445e-01
7.103388694976108253e-01
6.205899203184372936e-01
5.850975983730883900e-01
4.440642869831754602e-01
3.856188444463096721e-01
3.972197491374448441e-01
3.759415153934949627e-01
2.783050886836694882e-01
2.288386209585107633e-01
1.606822106315156651e-01
1.310468930191222847e-01
1.300784868986309684e-01
1.451129673849079205e-01
1.019985187463658821e-01
1.072068232767773577e-01
4.363320570983000163e-02
8.510229554489244508e-02
4.424206950436458674e-02
6.824131800818764026e-02
8.364981145764016635e-02
5.154058728588116478e-02
4.016901635006011467e-02
8.545263592768878591e-02
7.494638924775809397e-02
8.787741201581644734e-02
1.085977732044187127e-01
1.333976482349704951e-01
1.195154128575990765e-01
1.211070256192989525e-01
9.572155575967025709e-02
1.059309450985344431e-01
1.355650227862629786e-01
1.165912153199615553e-01
1.464998397647147566e-01
1.139405819850209112e-01
2.016083280367326758e-01
1.547352688324926395e-01
1.578206592531027352e-01
1.443969873377491386e-01
2.209804911903890390e-01
1.305074223892780383e-01
1.513154406747440062e-01
2.020796996294889070e-01
1.874771849768561982e-01
1.665337130592969284e-01
1.706621843929901905e-01
1.813510654352921414e-01
1.958070973694187866e-01
2.416975075063637624e-01
2.152593513349662646e-01
2.294817696041102084e-01
1.870844642427448856e-01
2.165632464902201293e-01
1.550694871360671634e-01
2.074391941190544264e-01
2.054144808857483462e-01
2.560575664040892763e-01
2.473225150370148007e-01
1.916654444492085496e-01
1.733766967967485528e-01
1.723273101027944232e-01
1.849685507259376249e-01
2.303218202889032173e-01
2.008608696600257260e-01
2.007921028788632600e-01
2.061333678133052683e-01
1.482389263075759578e-01
1.527945625717216649e-01
1.854281747258076651e-01
1.419772631189749335e-01
1.148627023263507352e-01
1.232917415306266223e-01
1.823369683266536923e-01
1.342620219182652508e-01
1.468986371986475969e-01
1.036653980153616761e-01
1.404397947241054767e-01
1.153038084396353913e-01
1.310474556917766709e-01
9.754945930092248640e-02
1.212112028011396725e-01
8.445893712901472727e-02
9.205298037561074342e-02
8.052852911498539767e-02
8.372071757962520899e-02
8.561326695274246168e-02
5.676889947365749284e-02
6.248203250097549011e-02
6.621171331884972977e-02
7.049734149085017110e-02
4.774699305973083979e-02
1.830320347503006789e-02
4.252425681757081299e-02
5.519463634962726989e-02
-9.611834231537275119e-03
-1.381459596586235433e-02
1.564089679643471120e-03
1.141895278794577417e-02
-5.280016725009008954e-02
2.641018422767618667e-02
-4.543989115788488187e-05
-6.869633437135334864e-02
-3.498955684579106717e-02
-1.388157336881399445e-02
-6.114977135697281796e-02
1.818830353581770559e-02
-8.117428174985272249e-03
3.978188647615996110e-03
-4.973495977011904712e-02
-8.875702036291420460e-03
-4.324867137122397759e-02
-3.128035641516411364e-02
-1.686746068108475882e-02
-3.137441111320539433e-02
-6.718992207518599546e-03
-2.838251093817615103e-02
-4.792118497601000060e-02
-1.010798742151615415e-02
-5.051468513848286768e-03
-3.520458344082359747e-02
1.169491306767946048e-03
-4.697305707131338437e-02
-4.466364638658817943e-02
-4.153447785894524846e-02
-4.632908629559991109e-02
-5.245440321645999243e-02
-6.522461704346430023e-02
-7.418531324686057637e-02
-4.156761944308029477e-02
-9.418805316558025165e-03
-2.137493735481096543e-02
-3.454721716192885733e-02
-9.063515907959243667e-03
-4.627309800140140539e-02
-7.679282855951874431e-02
-5.785842633915275202e-02
-4.941266653437313000e-02
-6.315688415713839599e-02
-2.964929261418902673e-02
-2.002999539085080494e-02
-1.001843999118830209e-01
-5.269036227003983525e-02
-1.355090254199458055e-01
-5.123571800312487490e-02
-5.162988045360975692e-02
4.693330997720929210e-03
-4.338740692855683201e-03
-2.067816968460016100e-02
-7.745260839515662188e-02
-7.918760905570758346e-02
-8.153660909459403694e-02
-2.840157071097866581e-03
-7.592693906897871048e-02
-6.014719508486298521e-02
-7.553091527364361180e-02
-8.623197236982121927e-02
-3.844799641674465085e-02
-4.375605485217564511e-02
-1.150123793973946151e-01
-8.724129714395251201e-02
-4.042237815916888827e-02
-5.012479024673818090e-02
-5.985044027745470285e-02
-2.949786737602364678e-02
-9.078402111677269515e-02
-6.514381996409542019e-02
-3.152690538123892328e-02
-6.628999356306813917e-02
-3.714282269323335162e-02
-8.057444488543348549e-02
-7.052638574995201415e-02
-9.884942820102893268e-02
-1.066127993818548891e-01
-5.862895234786404813e-02
-3.022992743187691636e-02
-4.647529102228033226e-02
-7.435504535557038719e-03
-5.314376507086336632e-02
-1.039732207943812048e-01
-2.893615735063026495e-02
-7.038428225780490877e-02
-3.288161402653938525e-02
-1.037047711161363794e-01
-4.171633060402755999e-02
-1.054069688409352973e-02
-1.218583770719484927e-02
-3.491416011448870982e-02
-2.652784226299486486e-02
-3.729619812623831410e-02
-2.851260510756326721e-02
2.271243071742548580e-03
-3.577889651169736951e-02
-2.936992994948740832e-02
-5.351122046883145800e-02
1.718049529691496879e-02
-7.701257548054146751e-03
-3.167593570868214997e-02
3.539244459108740332e-02
1.237852548804968533e-02
-3.644590048843064645e-03
5.039428584655390037e-02
1.848369902020923633e-02
-1.314877138434427523e-02
6.795913490735391860e-02
1.931062751194202037e-02
1.404276029582585961e-01
4.172994205705646276e-02
-1.532598275979582536e-04
1.180480652391589780e-01
6.868901205841933255e-02
8.283584208379071723e-02
9.117127511849960897e-02
4.319994325080545733e-02
2.302586784136672476e-02
1.503185469122691464e-01
4.812443968935491145e-02
1.470965708448059295e-01
1.162668776918210911e-01
1.078108585706010203e-01
9.014048503979968374e-02
1.746212544607509132e-01
8.527462159384605056e-02
8.635043545164015899e-02
1.262727869940442615e-01
8.525093014367976507e-02
7.405343220795057579e-02
1.012875482242640290e-01
1.219887435499564798e-01
1.558831769583032267e-01
1.600613090721586529e-01
4.197235683563068503e-02
1.253752403729778142e-01
6.348396448706430939e-02
6.467671546668490867e-02
7.736337987863294019e-02
7.785548785828406981e-02
6.830700320466445707e-02
3.766782890970474945e-02
1.610536309893798035e-01
1.586452831484733983e-01
1.497060838676211036e-01
1.447839051556286671e-01
2.401640240383879354e-01
2.366672602766735078e-01
2.632699290493336619e-01
2.797547834465944905e-01
4.002426821728128914e-01
4.350902422397494584e-01
5.192105287538912872e-01
5.867839881118559475e-01
6.737681464060862879e-01
7.350371024328873348e-01
7.919960081365048365e-01
8.870227652159023979e-01
9.624993667057589741e-01
1.036095842900820241e+00
1.001926973275257815e+00
1.103116837784137605e+00
1.043355965554453535e+00
1.128851257722383261e+00
1.073991559518854944e+00
1.096362761250972762e+00
1.082210571880834360e+00
9.988168888195629869e-01
9.364112807609719091e-01
8.711653232617156961e-01
7.903703357858244960e-01
7.649356108268611232e-01
6.532392933317111572e-01
5.170922679969885971e-01
5.371730822880040890e-01
4.678299747751316628e-01
3.815180194659790747e-01
2.998631630321575425e-01
2.384264777014393211e-01
2.060246226500056510e-01
1.984611193801116280e-01
1.063797774100120330e-01
1.494467756410257364e-01
1.192139711988218220e-01
1.406696511080589018e-01
1.121736663814181384e-01
6.199249360004444043e-02
2.839869639545369862e-02
5.230639937368884024e-02
1.181191226413791928e-01
8.678210010774291272e-02
9.834276403949336609e-02
6.495093422832490249e-02
1.024876589427771850e-01
4.699905068866225277e-02
1.257235798209463407e-01
6.836599068166709925e-02
4.937238684099605479e-02
1.822005864788076024e-01
1.242015710996237782e-01
1.292527055325481955e-01
7.584217696810703624e-02
1.565156885212439508e-01
1.702852608508971244e-01
1.435357734273767505e-01
1.819438746735270451e-01
1.959948813298319492e-01
1.821648006705782197e-01
1.067805728930804471e-01
1.424342004205767787e-01
2.326266877603319905e-01
1.893321265149932042e-01
1.940931810837531468e-01
1.709311877371086363e-01
1.809019235745318310e-01
2.396861590407000087e-01
2.524615258030959430e-01
2.347304851108105439e-01
2.303614325934882356e-01
2.352944590025128901e-01
2.167371072925862174e-01
1.847528509187698065e-01
1.799371727502219187e-01
2.632903778996702471e-01
2.238189858565418355e-01
2.397179900607606939e-01
2.319659788210103879e-01
2.333634496935825253e-01
2.353821740467288426e-01
2.451135247589770749e-01
1.999697640386708386e-01
2.569269278313897065e-01
1.974419320247771947e-01
2.245469596954019209e-01
1.793427629079216712e-01
2.069948717140413785e-01
1.890648459664802106e-01
2.061707825311168696e-01
2.238244472803579410e-01
2.001114089351731240e-01
2.524889438918230256e-01
2.131573929409129875e-01
1.778439917437798223e-01
1.773517090162133880e-01
1.863432407907093802e-01
1.910726809331815823e-01
1.277301849418463198e-01
1.785553482728830799e-01
1.178311061153551886e-01
1.648203434544633361e-01
1.761300462271618850e-01
1.465906738485543426e-01
6.228475996755335198e-02
7.304863588564612653e-02
1.378829758224124069e-01
4.190642373141749422e-02
1.283837736286583264e-01
1.342648039186138953e-01
1.334853514465637880e-01
8.698534020868871341e-02
1.022851902934537038e-01
9.040831570535107220e-02
3.508854527012704450e-02
9.688475358678211302e-02
1.116452682734530022e-01
8.615223815285620590e-02
4.607337134302480486e-02
7.919549799251754396e-02
9.192161605638286825e-02
8.413426115405647776e-02
7.626845154320993636e-02
-5.816482579176001852e-03
5.052495658163673464e-02
5.474895382055935261e-02
6.350131754063000067e-02
4.493145718882821799e-02
7.329959673632890915e-02
-3.066153289118083922e-02
3.850836166127171584e-02
3.385960465553880527e-02
4.444690113729650449e-02
6.164446933970242626e-02
-1.311712993085902175e-02
5.706857185907894536e-02
3.466594196635759684e-02
3.131440940050352756e-03
-1.987456082031864926e-02
1.203195379475801956e-02
1.357130495607299960e-02
1.419510626393872231e-02
-1.579563065930669752e-02
2.043618445621973867e-02
-1.078221484887228500e-02
3.718908841967714929e-02
5.138097220794546338e-02
-2.484978292049724174e-02
8.442470896896413571e-04
2.779343855007153363e-02
6.543341597118657732e-03
-4.261691022079081709e-02
2.364426415459334324e-02
-2.068536550733200002e-02
3.331894513577654537e-03
-3.263421295647693510e-02
2.093045214314762439e-02
-1.559996783111008631e-02
2.401338844294297059e-02
-9.448599902984727156e-03
-1.741625555876677098e-02
9.434106243879310238e-03
-3.509653328074653633e-02
5.116878321537658703e-02
2.895174799227266758e-03
-1.954027384658963210e-02
-1.439708837719621756e-02
-1.740749142220045188e-03
2.776798131098204281e-02
-2.877017844819347581e-02
-1.281579332904346502e-02
-3.045836986476008635e-03
4.491410640118327635e-02
2.882292635504599826e-02
4.677017675316397921e-02
2.200303406529231526e-04
4.250292371845117156e-02
3.777730198355302299e-02
2.090816240780992916e-02
2.356953734120150953e-02
-1.731486244707964445e-02
5.564347640866011691e-02
-6.277808306255910561e-03
1.816134266529296354e-02
2.197791060761747350e-02
-3.914193013085672662e-02
8.036179702405640661e-04
8.795290419739689933e-03
-3.278879720314208622e-04
2.301575280802131262e-03
4.869314889997513468e-02
-2.043438588619511317e-02
-3.317793728069307058e-02
-1.216200183196486893e-02
2.835678013562695221e-02
3.193124217196895848e-02
2.557444696981876764e-02
3.553095541877299840e-02
1.671721615979533671e-02
-5.559457761648746964e-03
-1.733436029932752809e-02
-2.569995874394707600e-02
6.605381121912642754e-03
3.845156680452921361e-02
2.342346261199763219e-02
1.866403944658028349e-02
-1.187112194086690359e-02
9.914797820259189931e-02
-8.388589380166214596e-04
2.988283431551630107e-02
5.888777499567361684e-02
3.280096169714860621e-02
1.026415932783952475e-02
6.188620991100846763e-02
8.101343598791704154e-04
9.684672889330825374e-02
5.685858726261995566e-02
4.481073963175763453e-02
1.415320803361675567e-02
2.651948573125123554e-02
6.414229004920798949e-02
1.272925492193157371e-01
8.246700274449413059e-02
9.100050460931123630e-02
9.740417260684494649e-02
1.620707895068670135e-01
8.330500467491060157e-02
1.489463673664171151e-01
9.546653768482153690e-02
9.172857892269875579e-02
1.157970844141149591e-01
1.208955914970693823e-01
1.453986999887697806e-01
6.374663328073591761e-02
1.426129672887451461e-01
1.246713787281578112e-01
1.250811270320016932e-01
1.117670818061056032e-01
1.431796164532127269e-01
1.417222618123162303e-01
1.471059732290143640e-01
1.129971453967566763e-01
1.668993948144898432e-01
1.415431071805718088e-01
1.171101203361855081e-01
1.501194474986551342e-01
1.432892131027944660e-01
1.672568554236386063e-01
1.482847548781315583e-01
1.203937513268098503e-01
1.356861284404520529e-01
1.087870318056409491e-01
1.928563559964778795e-01
1.958860382681600343e-01
1.979618056445731078e-01
1.366104219218564619e-01
1.928817003836321708e-01
1.669349317091365359e-01
1.323176107144364566e-01
1.423569348605857876e-01
1.627918282325223343e-01
1.808633478645728654e-01
2.022478808301416686e-01
2.092622726265913613e-01
2.218400125453177107e-01
3.014531299276230203e-01
2.921808882364216320e-01
3.316232251136697062e-01
3.779966728595011149e-01
4.353726852627421429e-01
4.582367964759681001e-01
5.347062175649501814e-01
7.081309682417138429e-01
6.580240413247359088e-01
7.895647731187016571e-01
8.646494347478399511e-01
9.546235363343941183e-01
9.997591372633181095e-01
1.102418238813432705e+00
1.100177197557834052e+00
1.169294555861151164e+00
1.183109614140087418e+00
1.207482854711848352e+00
1.157157367628716793e+00
1.149588940423112327e+00
1.094589691413306642e+00
1.066466939009571790e+00
1.013777192349460288e+00
8.822722847714581373e-01
8.713562307620754677e-01
8.294499267281381094e-01
6.876205650764337651e-01
6.242571819129433264e-01
6.164359038332715146e-01
5.537321416370309946e-01
4.314618844993929336e-01
3.978017345114566727e-01
3.391271081135978638e-01
3.322829649661231399e-01
2.430582051689219591e-01
2.161074536617650921e-01
2.420002168742947657e-01
1.513562990010281772e-01
1.509674078561745181e-01
1.584932747927484953e-01
1.923591447218395978e-01
1.059456556303753905e-01
1.179746951639422808e-01
1.565873076312611079e-01
1.623141124073439190e-01
1.485873950140169097e-01
1.420373783494642272e-01
1.534656593921114587e-01
1.089549467619742307e-01
1.622314108036793101e-01
2.089768856048099810e-01
1.304561025113654960e-01
1.522422747860725234e-01
1.696637203246948167e-01
1.774191274782343508e-01
2.485701999741784518e-01
1.712600442920041988e-01
1.711233819464854089e-01
2.340099245123926086e-01
1.971984534577592152e-01
2.458628809357412126e-01
2.218308922010883422e-01
2.468850820856496320e-01
1.912920084736665638e-01
2.570348198352679359e-01
2.547401407186866140e-01
2.451721100453339852e-01
2.202472829810793731e-01
2.678821635191523387e-01
2.869818692985875996e-01
2.529298028296854683e-01
2.568300027760468396e-01
2.989949560573759157e-01
3.291698797305321889e-01
3.084074944881483038e-01
2.891199009869685477e-01
2.766097769637345105e-01
2.843990910320112753e-01
2.464189953633729446e-01
2.821504085808032025e-01
3.206135075073358043e-01
2.880774775249296815e-01
2.676326498629091333e-01
2.640075097484069766e-01
2.833893065334193162e-01
2.457489414824031715e-01
2.536354756037608738e-01
3.246478363779448095e-01
2.450287825407416187e-01
2.492028261139282719e-01
2.788277872711585337e-01
2.533885189779951919e-01
2.655842220240616780e-01
2.848409070868863080e-01
2.083338599336271857e-01
2.729447196412820298e-01
2.282139491241677032e-01
2.322872100824073249e-01
2.935503289920498027e-01
1.886800409323803052e-01
2.432231535414065837e-01
2.539774697547340088e-01
1.941753358046265920e-01
1.891229782347602639e-01
1.925157731032902109e-01
1.772785521195718861e-01
1.943258204365641562e-01
2.134793954183479281e-01
1.701901653126447478e-01
2.033618801707131329e-01
2.120006448943703159e-01
1.774282620664414944e-01
1.748614174703859991e-01
