1.293893484453132237e+00
1.237993945130078988e+00
1.183144496437061211e+00
1.184448472236511174e+00
1.136897574871161387e+00
1.123495876434333018e+00
1.014879580409858928e+00
9.338519922504510129e-01
8.570632165075721121e-01
7.869139858506007945e-01
7.145054331792949354e-01
5.974253306689163434e-01
5.151348100678619923e-01
5.211727031657804599e-01
3.703761383545342012e-01
4.151627429750133214e-01
2.621939863015100292e-01
2.624360753607298813e-01
2.762502624575038923e-01
2.204166902092664637e-01
1.598284041624105922e-01
1.959913536794853639e-01
1.733815344573777506e-01
1.567137819665511134e-01
1.393471518022880995e-01
1.543940585005575128e-01
1.373579403584445635e-01
2.288377380198580169e-01
1.508440491116753435e-01
1.500470156617486062e-01
1.489688218081613447e-01
2.230454037105341625e-01
1.255015540460388546e-01
1.906994826909466367e-01
1.782004931743073617e-01
1.482921941622390993e-01
1.721361609607992560e-01
2.119879935259114390e-01
1.823400961714571056e-01
2.218430980138264563e-01
2.716805900656739103e-01
2.306155116427017759e-01
1.875030479741573997e-01
2.112136984161572528e-01
2.334423311355908748e-01
2.366821742140635954e-01
2.568926804373639627e-01
2.666078468724489281e-01
3.138533625369503421e-01
2.663115230060146277e-01
2.361080641718183715e-01
3.092873468415879290e-01
3.162957436827180668e-01
2.888277299127505748e-01
2.776156419768193162e-01
3.065276307331950556e-01
2.840416505574001604e-01
2.308942107508139552e-01
3.113206994615381751e-01
3.226869074583019747e-01
3.403005774823742446e-01
2.759348240776181016e-01
3.050700295356030267e-01
3.057828469620008094e-01
3.006104226509668798e-01
3.008325824857739916e-01
2.974799464356315259e-01
3.013430033330764535e-01
3.154874881956273303e-01
3.278117531419265651e-01
2.661178221487917051e-01
2.809224259160268411e-01
2.703875773183816444e-01
2.627735541127232954e-01
2.276582021316239102e-01
2.729937232227430677e-01
2.825229211865674661e-01
2.591315983649086219e-01
2.589395034897348791e-01
2.669852850500861186e-01
2.918083663024662044e-01
2.317618127620759416e-01
2.039426710125046838e-01
2.309894759465528913e-01
2.847155697759117254e-01
1.878011068933853334e-01
2.364836455300590723e-01
2.460188850763259938e-01
1.345858306273224336e-01
2.121148515423242342e-01
2.121696766393204592e-01
1.803256042607009613e-01
1.632654626205631565e-01
1.593011174671565278e-01
1.615896304769918745e-01
1.568858724640296853e-01
1.458160103531009610e-01
1.448953219018590255e-01
1.857535117869325014e-01
1.085162501121138268e-01
8.752417979312335228e-02
1.713810786796830243e-01
1.247397081329435498e-01
1.143225116444145650e-01
1.182532066275437943e-01
1.236428399042655141e-01
9.757511115830315440e-02
1.245658632479118011e-01
7.677159757604667956e-02
9.299684315652441413e-02
3.218314582136933000e-02
1.305227931405338881e-01
8.696231960205696998e-02
1.093928019858514955e-01
1.007844319629754432e-01
1.003287876943772805e-01
8.109443144275949034e-02
9.061011492250914401e-02
4.789846019803543908e-02
3.950901972323010020e-02
6.964764509495990907e-02
5.044826352210576847e-02
1.118856078221377170e-01
7.877058113488252800e-02
4.452582484168071675e-02
5.648255128791654367e-02
6.732701657240983129e-02
6.009950570847381879e-02
6.918475684796088210e-02
6.207024097927611034e-02
1.735020772934173922e-02
-6.320994947919308937e-03
4.620712993613483588e-02
7.350885196086379136e-02
4.516777507214082832e-02
9.254368875808863248e-02
5.350863871320565845e-02
9.515796550993624314e-02
8.858264845427651912e-02
8.520294330737726574e-02
1.725231819116464921e-02
5.361948739268871528e-02
8.959062960624332439e-02
6.093535245627296204e-02
6.931030277269915885e-02
1.101640689568708642e-02
1.102520432260486877e-01
2.904767927204202765e-02
-6.873894964059559798e-03
4.266924547732044853e-02
-1.989760878274382527e-02
2.138297439807507888e-02
1.311947013016893093e-01
4.364102703289784307e-02
1.291989903911012344e-02
5.734066917462730950e-02
3.060183444104547928e-02
8.456112667686907503e-02
3.317383761638319217e-02
6.937160038718698241e-02
2.839172370311874097e-02
1.425022671861974066e-01
8.155123377653136774e-02
6.418019633436874982e-02
6.205901613087241864e-02
5.674849818687575237e-02
5.324973384972074564e-02
5.536188748630101186e-02
1.325187257385955775e-01
6.896441940469735798e-02
2.525150217681435688e-02
5.795952488465606900e-02
1.247815144803433307e-01
9.358879986206330992e-02
1.015303333212894399e-01
1.452120835254073483e-01
9.152028735512036939e-02
1.386574407124101516e-01
1.046063679811568559e-01
1.469590086252748340e-01
1.230413414509156922e-01
1.326430051736776916e-01
1.695953850119171213e-01
1.724864449426811719e-01
1.500528034672750644e-01
1.457146663236894846e-01
2.125249487494886569e-01
1.867185597040092460e-01
1.615554779502909599e-01
1.576742866304554902e-01
2.116813644970395036e-01
1.877212478525165373e-01
1.823039561891595106e-01
1.932101402122342604e-01
2.020205288533264143e-01
1.918678772425528312e-01
2.309031738389611399e-01
2.333305915783879247e-01
2.117973596040448325e-01
2.369114652117146336e-01
1.953087711800296777e-01
2.147297547192535405e-01
2.227423977394426824e-01
2.214495058794430093e-01
2.163874311037765064e-01
2.057360579923964705e-01
2.434068148086598604e-01
1.665682673157266036e-01
1.765615187253739837e-01
1.739067458351482853e-01
1.694209230923886533e-01
1.223155125376894914e-01
2.266025393668554822e-01
1.603521747206115289e-01
2.050044100867692287e-01
1.696839556351323886e-01
2.477309243101684655e-01
2.273485961227138530e-01
2.443233452485069623e-01
3.179965009680243426e-01
3.316317868523933066e-01
3.829049010472101999e-01
4.597683683887411332e-01
5.398334122805454882e-01
5.586211702334048512e-01
6.259181506130073736e-01
7.326295380826146619e-01
8.264597595164887567e-01
9.325957767187467162e-01
9.328302701779298545e-01
1.027128275770655907e+00
1.136670280998287819e+00
1.216049992065834529e+00
1.171192196165534938e+00
1.209912630764848007e+00
1.260329303476386720e+00
1.233417808859291309e+00
1.214757403320692042e+00
1.217074467061965981e+00
1.214905499191151428e+00
1.075848546239045911e+00
1.096771004929854021e+00
9.634752679154156008e-01
9.145824275099924128e-01
8.724229986596634401e-01
7.542507823089195096e-01
6.567677776158744596e-01
6.116658859806918258e-01
5.140606025215482822e-01
4.698523413117403069e-01
3.895959400521161742e-01
3.700642630616504114e-01
2.579563669882192212e-01
2.318240148916880516e-01
1.889297938870724003e-01
2.044768041853990415e-01
1.406494288099779666e-01
1.508852751841786022e-01
1.275980716280839256e-01
1.978403945860209290e-01
1.192126691496477320e-01
1.081493318732803799e-01
1.538791474016580618e-01
1.981971966367581661e-01
1.464295590461653918e-01
1.519593359593529591e-01
1.957305980902899201e-01
1.877510393526657939e-01
1.789405042085218944e-01
1.537569178077967114e-01
1.901505982106213299e-01
1.410265602136311358e-01
1.686023564933097074e-01
2.357635861412281097e-01
2.373980174142301391e-01
2.169642886614610300e-01
1.514183043035962906e-01
1.784458672006483948e-01
1.996145200780516382e-01
2.200455605715965490e-01
1.927534143540432787e-01
2.277971502457241948e-01
2.929584850097798898e-01
2.565311251412845661e-01
2.554322168454944975e-01
2.224792284806638987e-01
2.077347303260621558e-01
2.237002257594882526e-01
2.135341477852939485e-01
2.692497850407952198e-01
2.812977910205214926e-01
2.432921096732580668e-01
2.788338175926854401e-01
3.202773526570717455e-01
3.364070326874355477e-01
3.019071015281922787e-01
2.743126699654033218e-01
3.021043542576901109e-01
3.205564995628137348e-01
2.194629138530534707e-01
3.234565031134626900e-01
2.616107224663173914e-01
2.604962182913879154e-01
2.641421281288381939e-01
2.822921227994481530e-01
2.369145104389899503e-01
2.589426901685579763e-01
2.801636808537243395e-01
2.675761267912973307e-01
2.687656712737852005e-01
2.436673614174798552e-01
2.699811368672278000e-01
2.764001200537002378e-01
2.699099082242043535e-01
2.479429805696501954e-01
2.581863388223800682e-01
2.508817139880767377e-01
2.996197260792438644e-01
2.503043432532180979e-01
2.054201647714136714e-01
1.749536102535816096e-01
1.886115040497308437e-01
1.805727425641567019e-01
1.999066784929621754e-01
1.575690064234673005e-01
2.083469958175903636e-01
1.249087809958719375e-01
1.116589414720567941e-01
1.506605604128811726e-01
1.235714214355084772e-01
1.053037739931121791e-01
1.182224794031622728e-01
1.088668080154817086e-01
1.264961114013627985e-01
1.021724633689928136e-01
9.932980874933998450e-02
1.102058321731209795e-01
1.357647216556240877e-01
1.445892525197577383e-01
1.001781689393707875e-01
9.794270813383784691e-02
8.126838701679731103e-02
9.694778634366045533e-02
9.012360556840884329e-02
1.142603624057167144e-01
1.405302150675983089e-02
6.006920328057534231e-02
7.382934176117529612e-02
5.957237265460899739e-02
2.904834581910676131e-02
1.525776035888733520e-02
7.559298104541355146e-02
2.600576621729481369e-02
-6.481523358372053706e-03
6.945209084223048779e-02
5.524678356551891711e-02
3.585177006194931182e-02
9.865632496376341987e-03
3.199170398782476277e-02
7.006895619172869016e-02
-1.652463546973348754e-02
-1.658429117895893201e-02
1.001955887647303263e-02
2.666468248142043335e-02
1.127604333295131184e-02
4.423494332354437758e-02
5.648165376913034247e-02
3.112236718031220067e-02
3.858761908973079580e-02
2.902214588669594850e-02
2.029489023408207610e-02
-1.958348297574245833e-02
-1.234215260169811354e-02
-2.269698376521422228e-02
1.276545508537806073e-02
2.363490439301303009e-02
-2.731002283805753633e-02
1.790222572739116891e-02
-1.091986552172608330e-02
-1.707030491539280811e-02
-4.027259333595059609e-03
-1.909268877787428931e-02
3.257359983069782472e-02
9.253432272474949524e-03
3.874161471702373266e-02
1.048885365227528177e-03
2.334486307314303545e-03
7.094697934466762113e-02
-3.360966071313617465e-02
5.405716140778987072e-02
6.571119304453904020e-02
3.972367985207828078e-02
7.638834007880670671e-03
6.130340646143628974e-02
9.936197834971394888e-03
-3.327736771681997358e-04
1.061323839367969875e-02
6.754135919543060272e-03
-2.752936172262860325e-03
6.092729771486166124e-02
6.607905034601960041e-03
3.131564215197414625e-02
-8.499896668149448803e-03
3.856386957899116119e-02
6.007935437858585165e-03
8.536989237766709135e-03
4.415604388017334292e-02
8.283941978460949984e-02
6.824328825509529128e-02
7.440004440132227947e-02
5.950643661068835688e-02
5.777834911571492343e-02
9.617264709194248140e-02
6.025950658647027253e-02
1.070051662601739090e-01
1.239414718620187317e-01
6.655610994773063227e-02
7.591053695768597287e-02
8.529654877339046259e-02
6.252347116409866234e-02
9.721943196263423126e-02
1.549803388117299008e-01
8.903262956715442267e-02
1.644081999436531605e-01
1.156530635919010008e-01
1.957966696760657099e-01
1.153207247595274126e-01
1.345029646870836981e-01
1.141823573085077731e-01
1.231141266516768695e-01
1.857174728221875626e-01
1.611872144891060843e-01
1.787344984083817645e-01
1.088548958932397115e-01
1.679548636786873661e-01
1.186984211864155758e-01
1.068175815173228321e-01
1.527907218150428570e-01
1.508158702486809277e-01
1.435977737875466786e-01
1.613542056365145361e-01
1.637710603768388062e-01
1.794469065504910588e-01
9.767824804265569372e-02
1.769611464439556636e-01
1.876520767353110075e-01
1.206013114691337207e-01
8.348317051999123994e-02
9.601759196106125771e-02
1.302455689311288189e-01
2.143179304628077542e-01
1.680797782569548038e-01
1.672984832382553577e-01
1.887568587370010154e-01
1.990393079510222873e-01
3.008016681544513626e-01
3.144825338540486737e-01
4.299459909467683860e-01
4.424578038257468982e-01
5.117399403413989134e-01
5.486454401102641709e-01
5.969771877212673994e-01
6.805607741782210285e-01
7.441980183427058249e-01
8.904414390713537575e-01
9.264775404066756259e-01
1.036129645687685397e+00
1.073409077573829196e+00
1.112335118527871369e+00
1.125874230198788739e+00
1.196350487409746810e+00
1.192515669663041233e+00
1.222847853780467453e+00
1.156058000321302348e+00
1.163456551709821207e+00
1.148596259669020014e+00
1.050585706153653653e+00
9.997047507833990432e-01
9.200353402538069547e-01
8.819547523565570701e-01
7.560781367059201674e-01
6.858843614820170353e-01
5.858024937949717348e-01
4.894257432665597429e-01
4.073000321802695556e-01
4.185530268472424931e-01
2.940347869798331515e-01
2.974344898739610388e-01
2.453439323272751382e-01
2.249919011099638100e-01
1.529757112692191057e-01
1.214635049751253415e-01
1.384843668164823793e-01
1.048294481390490418e-01
6.699926113166385089e-02
1.556592163827641984e-01
7.000918582381505939e-02
6.236064181206404933e-02
8.505797674963168353e-02
1.314264571730515696e-01
3.141935755012950637e-02
1.349139251091141800e-01
7.648751726872303480e-02
1.162448509436011801e-01
9.284815385499216311e-02
1.779529128773311430e-01
1.271756463226577372e-01
1.075531621155619011e-01
1.251935714915681230e-01
1.423800856911447144e-01
1.504888403972917399e-01
1.637646170539433232e-01
1.559539112723237753e-01
1.200038895124417027e-01
1.563403535588038795e-01
1.898639811664496468e-01
1.565497146489465141e-01
2.016580963957977923e-01
1.870819550704590495e-01
1.840625136988964516e-01
2.306736695611577848e-01
1.467327341804296192e-01
1.824001103414814584e-01
2.431552171159679365e-01
2.643307104376027561e-01
2.809658307745894756e-01
2.165502362339309927e-01
2.311146143478560733e-01
2.439124203675415714e-01
2.593179897864902328e-01
2.317907620976797922e-01
2.511641906645269429e-01
2.377989175051132276e-01
2.399390114166712329e-01
1.966263210769190195e-01
2.138440870557733464e-01
2.072195762647790207e-01
1.860596229353727593e-01
1.706480235241257803e-01
2.056086077783889077e-01
2.081809534004326612e-01
2.166958714325659119e-01
2.273415503228745638e-01
2.131263290929572285e-01
1.962896516033913186e-01
1.727722186011461658e-01
2.224964513978764380e-01
1.888330203781297401e-01
1.743386584837384734e-01
1.770018860889147894e-01
1.556525911954081964e-01
1.565685974894450438e-01
1.503020655916084691e-01
1.530946805061733917e-01
1.757974577227702784e-01
1.626382594645473800e-01
1.910361798417108681e-01
1.751229705054220542e-01
1.915471959859973428e-01
1.436772926341832457e-01
1.372259161180059694e-01
1.003398541391968130e-01
1.337881788685935380e-01
8.340125336769194098e-02
5.309477474675877023e-02
1.371826787968432049e-01
4.817626679960905489e-02
9.316264890457681691e-02
4.803068769662200560e-02
1.027929006220565933e-01
1.015519122201371804e-01
7.433619875356661799e-02
9.078380819629176812e-02
4.868620458534216044e-02
1.107115007157540576e-01
6.144311430829642318e-02
7.569115238335172302e-03
3.235997696630443093e-02
2.154359614501918929e-02
1.461493861360060875e-02
-3.141479803762504963e-02
2.623962438056913482e-02
-3.044279522531379706e-02
-6.797593612340036007e-02
-5.719242122221898650e-03
-2.110486592960198610e-02
-2.715047146016632412e-02
-9.712401545385361545e-02
-3.213742572936376107e-02
-1.426069555669502373e-02
-3.037799275888898240e-02
-1.902189276135064777e-03
2.621627816339677092e-02
-1.990329481461473871e-03
1.151095932726622917e-02
1.230673227953796300e-02
-5.311074995705183238e-02
-1.084594413749016481e-02
4.459413106488833989e-03
-3.975626401766665929e-02
-5.158922158929463153e-02
-1.306646412010920716e-02
-7.445524682289494933e-02
-6.359771048062561050e-02
-5.183863604009408127e-02
-1.912948060234848785e-02
-2.682015735377458673e-02
-3.095410255366186358e-03
-6.234033941265741674e-02
-6.450672183749252275e-02
-2.002550450482882410e-02
-6.014619503938344741e-02
-5.467806574041239598e-02
-9.260598745039683166e-02
-2.845041354646943299e-02
8.848789863951871115e-03
-6.842219667658527849e-02
-6.982944642860679230e-03
-3.944022863898240944e-02
-9.057471490210979026e-02
-6.433327217424353317e-02
-6.598457005137187137e-02
-4.649938053713201930e-02
-2.403838028380422820e-02
1.932363783206979962e-02
-7.849074819319235008e-02
-4.939568070961593976e-02
-6.090252203072685222e-02
-7.109868115445787395e-02
-2.908795947859118061e-02
-3.064524449166176195e-02
-8.367838061660130833e-02
-2.712126149738240677e-02
-6.204662864371238151e-02
-2.355760126475197822e-02
1.634414748852099086e-02
-5.470498397461699691e-03
-1.144628766263072056e-02
-2.982689214669451833e-02
-8.929864269905100904e-03
9.211055812433956158e-03
9.708122907561844706e-03
-3.506541349636765892e-03
9.889722363935600502e-03
-3.202678575068367700e-02
-1.026623906456052004e-02
3.746267654569698791e-02
4.613025450195532007e-02
2.845216441590981554e-02
7.490696918619003941e-02
5.076569329629063154e-02
3.358352041168480295e-02
9.071440987060065686e-03
9.391423780954769041e-02
7.891669868158737722e-02
1.147417887006814685e-01
1.306759393966883676e-01
3.179492680539239280e-02
3.642181720889008101e-02
-6.617597769143217235e-03
1.108963256325488089e-01
1.068114693621093902e-01
9.349223832747127760e-02
5.685546526121265654e-02
9.365916357866438391e-02
1.041471936601265080e-01
1.239280428893881209e-01
1.100246323037079033e-01
1.226760433676999940e-01
9.949946832054834545e-02
1.386673577664400137e-01
1.217250041394590671e-01
6.628919412334810524e-02
1.423078206607331087e-01
1.357941385713520577e-01
1.111200343370013499e-01
1.035343721241328008e-01
1.427811609847532970e-01
4.204679281284255665e-02
1.266230096315106857e-01
7.401058110205151197e-02
1.209443866247748300e-01
9.274984660053045560e-02
5.460155295520005558e-02
8.195965754660261560e-02
1.352686847603929432e-01
1.095055164116894852e-01
1.124737582483113507e-01
1.323849182070450936e-01
1.960891641069887892e-01
2.610253205420515754e-01
1.825579852886123899e-01
3.760100367310532654e-01
3.503418408191073530e-01
4.207397531432101601e-01
4.557152266903546911e-01
5.396784280307125314e-01
6.208228339556363107e-01
6.615304479982456742e-01
7.475645291575565565e-01
8.846003844197602994e-01
8.760659780120354512e-01
1.003270817906313894e+00
1.037806327422359676e+00
1.068304723004171564e+00
1.191974115685929814e+00
1.125955174954459181e+00
1.127664607896579296e+00
1.147836689627922624e+00
1.107463001178520257e+00
1.093853919570638933e+00
1.048931454740448022e+00
9.912101390639861398e-01
9.118005197728239475e-01
8.195927659771952145e-01
7.813058922944348117e-01
6.785568642851675936e-01
5.876815197692287773e-01
5.702515602362764335e-01
4.497706109961127074e-01
4.192217490498295618e-01
3.626814334450343957e-01
3.107948145937073359e-01
2.462512118057633703e-01
1.858254224731207549e-01
1.509174771685208583e-01
1.187007273331693313e-01
3.980931474922486807e-02
1.101335017166355790e-01
8.395520842234655001e-02
9.309161442997478109e-02
5.956807140240953646e-02
8.027482065346622231e-02
1.827469303188095778e-02
2.539662462426918454e-02
-1.167833362448526813e-02
6.168547281912731273e-02
4.639334804483120217e-02
4.688387353699687704e-02
8.886111932492599119e-02
7.120114285918700825e-02
4.634052079191402357e-02
1.711978369827929780e-01
9.936772885821645862e-02
7.366543241449893809e-02
9.177153473801116790e-02
1.123727607749487323e-01
1.179780612673042572e-01
1.679128610599107119e-01
1.319993803805447341e-01
1.954735268523502545e-01
1.321597749280263856e-01
1.631009616321478228e-01
1.859834465872241827e-01
1.960164589316550909e-01
2.041590116865719395e-01
1.610685088387289743e-01
1.732578335879589870e-01
1.029844065460443492e-01
1.751663759303432322e-01
2.171839288159628234e-01
2.144570781665761650e-01
1.877562287203700941e-01
2.438053782593590790e-01
1.834624713149170250e-01
1.753118859981343536e-01
1.842190390084699481e-01
1.657059179201531562e-01
2.188111809278774911e-01
2.091935881689177823e-01
2.188770874130099853e-01
1.878239062094659295e-01
1.978305311796463850e-01
1.331813230586209873e-01
2.084299833796227630e-01
1.983721522085825917e-01
1.603167855673100495e-01
1.877896758621781792e-01
1.804721975102521747e-01
2.381084771949725232e-01
1.500227886930108057e-01
1.881968650516565311e-01
1.416634846427949623e-01
1.535336321495183731e-01
1.742252142632071399e-01
1.550154247849429290e-01
1.564150352935431698e-01
1.616360223616759295e-01
1.317431351865271105e-01
1.678364839457793523e-01
1.267838105729050535e-01
1.275545481898434086e-01
1.357693874402677026e-01
1.261234383853221952e-01
1.329766013203475816e-01
1.174659665832245570e-01
1.163236577287762030e-01
8.679261003445881695e-02
5.881330059962826262e-02
4.240704847473959066e-02
2.952657815311185430e-02
1.270071533375221884e-01
2.298460735280768996e-03
9.914064844133921306e-02
3.345230978844655062e-02
8.853342985789951214e-02
-1.815253910946026256e-02
3.598422737321298887e-02
8.190838960692073401e-02
5.507813372261451124e-02
1.910704736007169668e-02
-3.336769485175356681e-02
-1.889939440196105463e-02
5.846304438242761609e-02
2.516377778543736621e-03
7.146573847556771109e-03
1.430807554174765711e-02
-3.661973717407932677e-02
1.150921222015612727e-02
-1.631282996840609234e-02
2.229725265386423017e-03
-2.662467286809723152e-02
-5.902633298203936729e-02
-2.705517649203606836e-02
2.732861860236482365e-03
-6.784619077369255513e-03
-1.965836201435674710e-02
4.509265518779399795e-03
-3.026422898854153054e-02
-2.406804657907961331e-02
-4.163243961570303742e-02
8.785063720434527212e-05
-2.112922205728633845e-02
-4.774627197791276451e-02
-7.677377093977594269e-02
7.299252870856393072e-05
-5.628294381860446394e-02
-3.260076147683407810e-02
3.509289179794040925e-02
-1.208682831465711371e-02
1.162712767515903384e-02
-5.335788724921140813e-02
-5.526136536418667367e-03
-3.723373918513628311e-02
-2.737096583610225398e-02
2.201507426170932341e-02
-4.717058564187162628e-02
-3.837773734472482018e-02
-6.613936787521193517e-02
-1.241954274267311267e-02
-5.586532419217848239e-02
-8.278891915349480268e-03
-8.830994546979704929e-02
-2.214163699330499654e-02
-5.763225219442813518e-02
-1.605490934365837175e-02
-3.794968626579457022e-02
-5.309352163377756284e-02
-4.803235837317042928e-02
-6.125434846532898381e-02
-9.813623625289945307e-03
-6.550029193737177957e-02
-4.102821346407964365e-02
-2.150508107765250823e-02
1.783381103827378494e-02
-2.941144927283866409e-02
-3.481223937438168020e-02
-1.756555581553478906e-02
-8.603993856472971768e-02
-5.767138056791649980e-02
-3.065501768687398099e-02
-3.826333589160185733e-02
-6.217093542828921321e-02
1.452986967453415157e-02
-2.501220328134101667e-04
-4.535795020483013307e-04
-2.187888409183580407e-02
5.144465487346185084e-03
2.223341950420987256e-02
3.099214221354749943e-03
2.882910949444132676e-02
-3.756360340108920448e-03
2.785627648701590603e-02
6.416782823608584152e-02
7.194874671296774826e-02
8.002154023682248041e-02
5.405064893224859751e-02
5.177667536856297298e-02
4.273273033563850659e-02
7.329890116941170652e-03
2.651997985908714078e-02
6.705554106659922242e-02
7.395860458613211230e-02
1.245254784970626361e-01
1.263573042875292818e-01
7.083830946848472532e-02
1.202302492332581463e-01
8.530855960747589506e-02
1.236984705448216371e-01
1.306283802977158404e-01
1.465395543445432991e-01
9.690380185931186940e-02
1.440767468700945297e-01
5.897184415714012279e-02
1.550872251258087198e-01
1.160291588788837785e-01
1.167876356399227267e-01
5.545299982387370819e-02
1.041767377312503295e-01
1.553866666272490649e-01
1.004895987146740832e-01
1.330244092169263759e-01
1.108529482448507436e-01
1.398938978027716440e-01
1.121320932273569826e-01
7.720096296536710367e-02
1.062842105110891056e-01
1.530618130796516096e-01
1.217864680616436851e-01
1.070601175946955391e-01
1.843235400195291918e-01
1.605277028472393286e-01
1.630090517877255674e-01
1.651254987510185623e-01
1.996455280842349134e-01
2.284445373522313305e-01
1.741780076164874402e-01
2.923362776502584914e-01
3.234799363177176534e-01
3.681375989428899986e-01
4.388299591101940678e-01
4.657012266906588871e-01
5.310639118245467083e-01
6.992134395971095762e-01
7.543852249880920180e-01
7.469056725627131188e-01
8.786055845212726867e-01
9.943541999787544050e-01
1.024609406085047691e+00
1.126162763121641985e+00
1.164775093661668315e+00
1.124015658984429011e+00
1.177579713437699738e+00
1.170634979365540396e+00
1.129531068191334198e+00
1.100134732889128664e+00
1.078616593051624717e+00
1.030634728218960738e+00
9.954062293070045087e-01
9.474959306675037052e-01
8.554360532456053434e-01
7.833975066705707313e-01
6.730560422374466389e-01
6.207242139585440466e-01
5.229924973322982451e-01
4.437188475506657070e-01
4.492190630992711209e-01
2.643052368927601425e-01
2.269044029201712775e-01
2.505303726728222991e-01
1.939397188176987252e-01
1.281421788497142944e-01
1.149809044201251379e-01
9.964929984039432032e-02
1.396534054408981318e-01
1.388367558070863206e-01
1.446769892786509137e-01
4.370254942683556021e-02
4.857257009230427081e-02
4.660256020824556089e-02
1.299035053648327775e-01
1.064775408975583287e-01
9.998130823713861914e-02
1.087575483306174040e-01
1.049692665860126189e-01
7.822115939532067741e-02
1.327098833552570467e-01
1.173867525612385249e-01
9.275226844414388716e-02
1.518670990504662199e-01
1.277873674449085117e-01
1.533206988788662906e-01
1.486662812451403359e-01
1.850354140076770904e-01
1.707130302310283509e-01
1.433250657784623794e-01
1.851170035776100453e-01
1.915910202408661889e-01
2.016366218254259934e-01
2.225526035846825401e-01
1.779911968711779535e-01
2.212991988865162241e-01
1.540853496569937475e-01
2.065601454139754933e-01
2.059943433705308524e-01
2.614729608554844931e-01
2.168653521722794519e-01
2.430136092394827307e-01
1.748273451522786015e-01
2.197116762425253556e-01
2.071243080160422578e-01
3.086894962185183222e-01
2.159805090873019862e-01
2.393885255352551644e-01
2.418344838728068436e-01
1.908386062249651238e-01
2.228652703701303750e-01
2.505508599108278167e-01
2.403813140540794480e-01
1.678430011709187986e-01
2.185403607115656011e-01
2.645252973222260717e-01
2.495617755742546851e-01
2.661439410100946978e-01
1.974056218250161143e-01
2.624713589236350453e-01
2.194892920371784295e-01
2.650900268672217730e-01
2.136635184551196887e-01
1.481364527596082670e-01
2.308068861784368375e-01
1.875821164525729723e-01
1.849667412843911396e-01
1.478531599824183806e-01
2.351495777734540771e-01
1.657521958534607653e-01
2.234210948359696414e-01
1.579196845231133906e-01
1.376326169204693251e-01
1.995984964778854953e-01
1.523181524908110984e-01
1.470923639725579546e-01
1.050251338273377050e-01
1.242293543823197038e-01
1.453288455593268191e-01
8.804353385315370761e-02
1.054527863818656708e-01
1.036876528241299916e-01
1.130517784741751075e-01
1.502965434943422107e-01
9.186691574944189087e-02
7.522070157513195687e-02
1.735204351747217655e-01
7.345868525497446788e-02
7.619774739396746599e-02
6.678968785478350823e-02
6.497901621257169691e-02
7.152533558511602052e-02
9.288405309580151370e-02
7.360655199573566676e-02
9.018744782039922470e-02
8.574483132574935162e-02
5.739175225871650382e-02
5.929700663514252124e-02
7.830222205329942509e-02
8.894501903281325575e-03
1.145236689268896851e-01
2.169933336613013783e-02
2.419724774611524409e-02
-3.835422283558197979e-03
-5.005384569020660326e-03
5.775555088215124366e-02
9.484907409728890459e-02
8.063491823957590413e-03
3.396145632415310811e-02
2.872714611350442662e-02
5.082361712131223952e-02
8.618079829112076928e-02
6.415563604605302450e-02
1.037280476709803549e-02
3.249603651961334438e-02
3.466476872365107514e-02
1.449543601558042627e-02
-1.842401922755523141e-02
-1.007660019128727227e-02
4.783678432989477841e-02
5.050633726854539263e-02
6.381143060280325581e-03
2.014421912977698223e-02
4.799572770234910440e-02
-3.922618565517456413e-02
-1.607420075444082434e-03
7.225663927215417170e-02
2.069251962563211505e-02
-2.211505099736713054e-02
1.538386904547520487e-02
4.266932682002009397e-02
-6.415029627838352011e-02
1.781459987321607624e-02
1.697813074242465747e-03
-3.597790934495413706e-02
1.622355674571456657e-02
1.023201000270950248e-02
1.424710330760449450e-02
5.254520873759849567e-03
-1.410905394218776865e-02
-2.618039058193528945e-02
-2.212245407578854184e-03
4.545165728790544202e-02
2.796188920984440246e-02
2.032979337024375804e-02
-7.203629318957224803e-03
1.451534852345406912e-02
4.975953011257597258e-02
4.487836081624795026e-02
1.769593677160405040e-02
-4.385776403322532574e-02
1.691409078743954381e-02
2.556312678032323510e-02
1.592954512642209136e-02
3.406408394371175652e-02
7.449215204882400632e-02
5.263248849494667203e-02
8.741501642534894867e-02
1.665791279530477037e-02
5.714686823621963757e-02
1.271247462740342574e-02
6.285181279612567229e-02
4.921117515195248815e-02
1.240971680072947558e-01
1.031547930979211519e-01
1.266127223426028736e-01
8.866502221671168638e-02
7.637485957188644425e-02
8.085158069373277190e-02
1.257706105095269256e-01
1.774622183109025308e-01
1.407825543255170619e-01
1.222874643775183900e-01
1.328140150745989456e-01
1.422736525160176457e-01
2.084986150593571286e-01
1.889088770842628495e-01
1.635804582985526945e-01
1.626019692382005277e-01
1.714365081718882688e-01
1.800213934531661175e-01
1.551034873593857832e-01
1.440348593799286869e-01
2.017208971403816886e-01
1.723440107121198273e-01
2.006108463393547203e-01
2.215419373434906469e-01
1.873468996239824602e-01
1.816507908499132851e-01
2.657083023522879284e-01
1.744234142970398360e-01
1.338000131109858271e-01
1.562892862756461443e-01
2.095400275357959807e-01
1.226699756102672956e-01
1.379048775676041672e-01
1.934246879839691957e-01
1.529595389398056837e-01
1.602209942500930351e-01
2.001844549690014186e-01
1.535272672222535162e-01
1.412363424826706959e-01
1.577713587496309133e-01
2.356076899950496628e-01
2.499027169607322407e-01
2.512231345154098405e-01
2.735487506119361201e-01
3.433439219422204092e-01
4.351307547645139051e-01
4.336876308177372574e-01
5.025770587384496002e-01
5.562719398876824206e-01
6.552257968196618654e-01
7.539091850982791998e-01
8.861847542842634651e-01
9.075697921053257344e-01
9.747705866589961854e-01
1.072244480393391264e+00
1.129462390606635891e+00
1.143473559177607513e+00
1.270144505492679876e+00
1.227124740484753840e+00
1.247153196097338768e+00
1.253741373059396480e+00
1.229745719114537783e+00
1.233015025820836996e+00
1.124384269258930091e+00
1.109052968061019051e+00
1.024658369476156183e+00
9.763697253910189611e-01
8.630072108466066982e-01
7.793001906517563748e-01
7.321666815680676343e-01
6.433877176472093673e-01
5.342443494198214626e-01
5.305480817448339215e-01
4.495932476068050243e-01
3.695696145658070031e-01
3.089582391166822428e-01
2.921690811209629590e-01
2.660881572377536419e-01
1.698418889344086025e-01
2.061328683475091295e-01
1.968149574202508190e-01
9.355748736824348599e-02
1.607712769086299121e-01
1.697195491152458657e-01
1.629761228366395365e-01
1.684601586479630986e-01
1.351291615221067999e-01
1.156929789791080188e-01
9.589230096788889379e-02
1.864595166718434061e-01
1.792097361495743890e-01
1.980589496156441309e-01
1.464769613415126681e-01
1.978195166472808963e-01
1.342703428522730169e-01
1.590280774481287740e-01
1.947243876760240966e-01
2.167062802193234217e-01
2.530468394739792681e-01
2.013151118293587394e-01
1.883347300093733967e-01
1.925098537544048249e-01
2.050114453346323362e-01
2.977848424778742897e-01
2.592320609560837541e-01
2.751185821579879009e-01
2.396155846306199932e-01
2.515852208769558396e-01
2.772509127602969525e-01
2.455084324815441921e-01
2.561067332430515542e-01
2.485063870568861577e-01
2.589469480408856383e-01
2.771736369503037256e-01
2.540806054174196138e-01
2.900218971728363848e-01
2.923627399962521745e-01
2.804932049011062967e-01
2.627467267582405119e-01
2.920670660815203323e-01
2.747612912691095310e-01
2.919354479044549144e-01
3.237474814403797363e-01
2.531178007336487568e-01
3.554503036487468570e-01
2.872496977052485523e-01
3.006044293462970529e-01
2.641404397841293772e-01
3.191199977559829870e-01
2.788811834278106527e-01
2.682983389053614776e-01
2.600151959148117031e-01
2.660839719426687511e-01
2.832601763030010988e-01
2.721926845491687841e-01
2.618543434161625938e-01
2.375088400129866939e-01
2.313543329626344403e-01
2.359758109357887601e-01
2.587954943196968394e-01
2.598714957229651401e-01
2.587816687140365168e-01
2.295621676872464934e-01
2.357371089823221966e-01
2.137080315352030135e-01
1.609499402527707901e-01
2.011429455661639665e-01
1.907254987473230856e-01
1.651588354464378072e-01
1.736507187246477124e-01
1.890815782608815943e-01
1.454174433275197686e-01
1.525220294955253741e-01
2.147723353843619121e-01
1.148160360919791567e-01
1.520484150429562975e-01
1.172974574049814034e-01
1.245872453642808686e-01
1.361701754912478246e-01
1.075658890360959713e-01
1.496345397135456223e-01
1.683138207924575747e-01
1.485372709570899619e-01
1.496826670852440533e-01
7.336314245188499394e-02
1.034306072582152070e-01
1.208716315182141732e-01
1.292710718260826341e-01
1.521829474587634290e-01
1.282610952583219111e-01
1.198518510923488045e-01
1.688906574821286699e-01
8.985398028920343894e-02
7.552868039890528462e-02
8.690772410672317760e-02
5.166938870255073646e-02
7.882763778801095411e-02
2.281030189245596834e-02
5.668278686937468225e-02
6.719151666756609242e-02
9.734971873585439306e-02
1.005235955674561310e-01
3.672873680167508537e-02
1.264757886250649499e-01
6.730971052442263902e-02
6.882481355835608217e-02
1.195398515490802421e-02
4.083599898156556329e-02
8.997235546282422725e-02
6.269346602536302049e-02
6.003534638227590869e-02
6.289119548666829984e-02
1.212564412611186193e-02
5.193646291949273464e-02
9.656169863592022062e-02
8.645148911589690954e-02
4.969182873965590636e-02
1.000126015740158691e-01
1.504004618347979522e-02
2.342729982800772354e-02
1.083064505476474260e-01
6.961094102997197886e-02
4.353418600188532078e-02
5.052667205001754730e-02
2.803098316902332202e-02
6.063219787167851288e-02
5.842461243195577747e-02
5.333597943112549505e-02
1.825576662696148239e-02
6.137797655986085288e-02
3.802059102670030805e-02
2.488770191210444918e-02
9.312810983838792911e-02
1.209819045597223669e-01
1.150473371487030216e-01
7.727382661817912279e-02
5.093622866331407040e-02
5.806854505508626113e-02
7.377423248154672819e-02
5.058694992529132878e-02
1.045177744398150671e-01
5.820902468852008627e-03
6.014916720099404424e-02
9.537831419530291843e-02
4.852079484671860399e-02
6.941070861808767978e-02
9.737885761946156460e-02
1.282897916210035405e-01
4.731466389283321694e-02
4.869967983522840299e-02
6.518491815591909155e-02
5.147279549745861771e-02
5.784139937337518661e-02
7.707656179046890044e-02
1.478606706981900887e-01
1.062519796866986110e-01
1.214531013143871629e-01
9.686191330508783781e-02
1.496368427957570080e-01
1.920712303502980500e-01
1.143689971351836837e-01
1.979390257984989798e-01
1.622922583440589706e-01
1.569562695582832346e-01
1.734352615119794661e-01
1.779806165119228456e-01
2.266248423159351599e-01
1.909406344581197346e-01
1.957275588922087750e-01
1.707116816303535789e-01
2.120592109529549629e-01
1.613479588450140167e-01
1.960976145314148600e-01
2.816828099764797644e-01
1.219773453032986926e-01
2.055622450832445547e-01
2.077170916022978431e-01
1.932582655825518247e-01
1.940335686499839452e-01
2.025279115917678063e-01
1.914134534243938091e-01
2.044284060773978728e-01
1.815955214686593155e-01
2.550810976265722729e-01
1.848602714158954774e-01
2.074710024440031275e-01
1.683846649140729457e-01
2.148376209454359309e-01
2.078031754839049783e-01
1.982124099677226858e-01
1.559051712713997728e-01
1.669430339361161475e-01
2.451034408358374050e-01
1.794109475127880216e-01
2.327706987222623591e-01
2.005418123389955121e-01
2.792751745880535097e-01
2.540515603114316678e-01
2.774586048825734008e-01
3.232863678063160329e-01
3.732695212317807543e-01
4.542831954086052337e-01
5.033447286494855399e-01
5.338920928518667841e-01
6.368991692869643284e-01
6.787022264350535128e-01
8.102717802427795712e-01
8.945011802640511211e-01
9.462967116432556836e-01
1.028725555225974420e+00
1.140525876486104817e+00
1.142094462121092002e+00
1.166672652821891587e+00
1.248036113459651597e+00
1.218420762154091896e+00
1.253023685713005264e+00
1.233209745585731376e+00
1.207157347063339881e+00
1.183809327745680484e+00
1.168872093303961357e+00
1.114902287561461813e+00
1.040820983451322013e+00
9.482214538753447330e-01
8.517010875793260549e-01
7.085570508122284172e-01
7.109189763519864202e-01
5.547651502495066778e-01
4.929554986769066893e-01
4.788104475643493729e-01
4.309619255254133474e-01
3.557282975135941938e-01
3.686241014420813533e-01
2.966919814802725930e-01
2.422809600033894173e-01
2.644750792976638953e-01
2.485649504438641744e-01
2.006722378435818743e-01
1.500174074917243749e-01
1.483963195832784798e-01
1.161761387528758155e-01
1.554764279457591936e-01
1.244333366446117028e-01
1.468500214055319941e-01
1.665839483589875436e-01
1.022701848209928432e-01
1.276273136881251880e-01
1.546526802262559730e-01
1.730183278168966887e-01
1.648195276220191241e-01
1.767824055070816303e-01
1.691262364658092654e-01
1.523429383191468311e-01
1.853521073626425153e-01
2.005908321668800898e-01
2.032571880325758640e-01
2.214712860857725174e-01
2.361744455579116442e-01
2.494690331342909184e-01
2.153186039446765287e-01
1.922368788040280108e-01
2.827021594364685919e-01
2.609994744015240453e-01
2.254973471698995813e-01
2.669702040619554295e-01
2.949634011859451066e-01
3.188486120558120529e-01
2.782899237559020578e-01
3.060926799534153808e-01
2.412631063624203764e-01
2.794263819360495726e-01
2.730961986022169552e-01
2.957459257752507731e-01
3.357956324778446633e-01
2.966071516403296915e-01
2.622824232426176905e-01
2.534584972642530132e-01
3.413247216103260651e-01
3.075928076376905351e-01
3.054855814096109068e-01
2.812317914243032124e-01
2.987182175668297024e-01
2.598533840730582467e-01
2.995038249995758406e-01
2.507195370097788922e-01
2.729244898585482249e-01
2.618226567080562672e-01
1.804739505826952473e-01
2.645683560708285698e-01
2.444856376964807121e-01
2.613379033938398877e-01
2.636319835328104211e-01
3.122975645978410819e-01
2.638454612980656311e-01
2.599547883048769492e-01
2.598275998643648776e-01
2.659601529948401599e-01
2.481186504514670266e-01
2.374826260591585969e-01
2.447852632148982965e-01
1.449601454995652350e-01
2.746556894624074263e-01
2.538333658897286571e-01
2.067636438864540460e-01
1.519362477472915307e-01
2.247000912617955204e-01
1.616396045478325494e-01
1.925568969727668445e-01
1.321752497656327741e-01
2.316251168352347345e-01
1.158005621861606660e-01
1.554475105741961738e-01
8.411201608035756561e-02
1.410406960429828049e-01
1.241288166092651829e-01
1.657324057506165405e-01
1.137128668243544138e-01
1.556254319931531238e-01
8.587706252131821483e-02
1.034226712983790653e-01
9.945636040963247437e-02
1.177685203035978012e-01
1.096969150386592484e-01
1.162167917686927621e-01
9.861995013171148683e-02
1.066804594696467573e-01
5.629171349867415075e-02
9.143783489901834149e-02
1.247243118005385287e-01
2.293846076774443132e-02
8.502177584085135464e-02
8.781828952192016757e-02
1.086603945208064886e-01
8.405879988364103883e-02
6.287797537255325475e-02
7.049589970469313793e-02
3.339725975601527674e-02
4.178875441873927676e-02
1.145593916066040344e-02
9.435201007538356055e-02
6.156983630716631600e-02
1.901065838873529368e-02
5.316366174695601188e-02
7.842747862098103928e-02
7.214537569531580263e-02
1.333291628417122843e-02
-5.397107657779953716e-02
5.086508269135303628e-02
1.143032841838371311e-02
5.580905282138404200e-02
6.481674315319629898e-02
6.895066560553088364e-02
8.717798085903576133e-02
7.127944077633402431e-02
8.608529153381978827e-02
7.443657479818306666e-02
7.657228673658744711e-02
3.093550544543314032e-02
-6.887365416281866076e-03
1.059473769657351128e-01
3.311214973980460691e-02
6.788866842199239859e-02
1.438539778564164665e-02
5.974333717911095576e-02
-4.252126894026060644e-02
1.859107582138300532e-02
2.810909766451197625e-02
4.518325926000529152e-02
6.380268423037747938e-02
-7.445180276137580710e-04
5.242559740984203270e-02
7.009089982830929433e-02
1.044591793459007101e-01
5.620761395300225005e-02
2.229618002196865484e-02
-8.435972173608599634e-04
9.357851619656673559e-02
6.239046000451167057e-02
4.136248969074013404e-02
-4.628851309149969312e-03
1.817429886587233062e-02
6.740052406141081032e-02
6.163954946322838802e-02
-4.585094563483216312e-03
7.578258231988949101e-02
1.297001249533222267e-02
1.040801710595144064e-01
7.336726389262596126e-02
5.706599987110142630e-02
1.047294923397147637e-01
8.987220757085891132e-02
1.234286646971781976e-01
9.066210862963941519e-02
9.711204187482889993e-02
8.919852403200496938e-02
1.105361455199252024e-01
1.585302175094835120e-01
9.747534037247730654e-02
1.369519300308199572e-01
9.600803147803799176e-02
6.524367978529535539e-02
1.381721270996505435e-01
1.476032897482739970e-01
1.375339536767377635e-01
1.000639283200454727e-01
1.579071282089359873e-01
1.602933115321602542e-01
1.288241341969388887e-01
1.176936206517060768e-01
1.531372625325121417e-01
1.822834005533452983e-01
1.767386836515291437e-01
1.389002561259984891e-01
1.700540309162012764e-01
1.927141447175657885e-01
1.306141292934347442e-01
1.669380996676894935e-01
2.040648147713854943e-01
1.240835530235888662e-01
1.951349033323803162e-01
2.069427330586650904e-01
1.494637727075187328e-01
1.436032523261354110e-01
1.828246619034114562e-01
1.445803347264336125e-01
7.856915952095848421e-02
1.461963069705708440e-01
1.646659557548118824e-01
1.760140199356581558e-01
1.330510972586014251e-01
1.600362371515526572e-01
2.097531814216869461e-01
1.953037150617532580e-01
1.729327705594868592e-01
2.833080478710713335e-01
2.734137005257473163e-01
3.529568987392375790e-01
3.257292839809183826e-01
4.183457762118348300e-01
4.983838531639124825e-01
5.477134837850404780e-01
5.872135044647365243e-01
6.272636104730964224e-01
8.228128663576587121e-01
8.628736343730081249e-01
9.665764071700106985e-01
1.031008481370951246e+00
1.085658263367340615e+00
1.113444714147691750e+00
1.181774215498544889e+00
1.241015893727158037e+00
1.217214868517376258e+00
1.273494883716762116e+00
1.158112213838464077e+00
1.126962790559129513e+00
1.163367527347335839e+00
1.055750151404163617e+00
1.078182634240015814e+00
9.857877514877809721e-01
9.166782757133541404e-01
8.159719165990543255e-01
6.814890964687287944e-01
5.804667728295737072e-01
5.994471266867547055e-01
4.386528404496418676e-01
4.660620456951871105e-01
3.800498714285868163e-01
3.060899221871012377e-01
2.771161507138484859e-01
2.401837229763493786e-01
1.890446029420314034e-01
2.127832832889883785e-01
1.920439344834750650e-01
1.399992872638177732e-01
1.064353601569921620e-01
1.561628682579607463e-01
5.171249782064200884e-02
1.234407456490683730e-01
1.319166274814800865e-01
8.596472778059745246e-02
1.422705414173130456e-01
1.153978893338007405e-01
1.036291234222968261e-01
1.532174553303184694e-01
9.644916816200911625e-02
1.600703971549128080e-01
7.969554517736994470e-02
1.530427339996979774e-01
1.511777636416838377e-01
1.391078350611636705e-01
1.724360516520120068e-01
1.637926769569373608e-01
2.032116862662805556e-01
1.937017215543745119e-01
1.957178890316221276e-01
1.960253430695290677e-01
1.781092557910434193e-01
1.880774025913542757e-01
2.092684205397008501e-01
2.011258783233509095e-01
2.439708425139024417e-01
2.175093934990647293e-01
2.298243605584961435e-01
1.800487180915738838e-01
2.537388179366111829e-01
2.110335210546477047e-01
1.999164729924315376e-01
2.829970654380358219e-01
2.566323286132594084e-01
2.667755831993501858e-01
2.525148626449630895e-01
2.371537906760453895e-01
2.322739189597077536e-01
2.643902932354613156e-01
2.749861190104289088e-01
2.385961648530160184e-01
3.020871977748277870e-01
2.329008041745567470e-01
1.955534382533850313e-01
1.839304222526887966e-01
1.828010327036732607e-01
2.185420465617417540e-01
2.211914130022550884e-01
2.455097928319036060e-01
2.207498037350194842e-01
2.431950617598322983e-01
2.152505679321974896e-01
2.100585351180186411e-01
1.878319691454862495e-01
2.431119198515528379e-01
1.495564753249447043e-01
1.994150303464976848e-01
1.796274125363824248e-01
2.030760652310481529e-01
1.734093366478091092e-01
1.685876779828765770e-01
1.545257103382134400e-01
1.984403881479109011e-01
1.507725653280492240e-01
2.038057963724026478e-01
1.468755642038944431e-01
1.333461740775016557e-01
1.223288407789989846e-01
1.376374002495281690e-01
9.712089444609670053e-02
1.132635139243135802e-01
1.033233785803399779e-01
1.071069510934558600e-01
1.022147307597747051e-01
9.824289290250574902e-02
8.361425068290832818e-02
1.225432494263221650e-01
8.299158318992159999e-02
1.434724122449604344e-01
6.191143650714049651e-02
8.445622405054950543e-02
2.933431828151759208e-02
8.872376952674325412e-02
2.131563439134357557e-02
5.202593499847292524e-02
2.648444360945758497e-02
4.420749175814620013e-02
1.999512603042382167e-02
-8.627439465281466768e-05
1.215458654572749986e-02
6.341720831875601039e-02
2.820912636301421694e-02
-2.730330044406444751e-02
4.154173355359128128e-02
-2.060440145235665002e-02
2.604104049428918044e-02
1.806843382889447569e-02
1.782531706710625136e-02
5.291869328168580244e-02
-2.942961430648292215e-02
1.197466553818718471e-02
2.976932294542829205e-02
-2.888306575332227899e-02
-3.342011549339415910e-02
-2.103283567391589851e-02
-3.954588719536678704e-03
-5.720440132873801792e-02
5.399551255999834876e-04
-5.928822100503286507e-02
2.080246637273304444e-02
-3.475129306888834202e-03
3.768236213109257826e-02
-4.078804527185148077e-04
-3.031207751741866324e-02
-4.576779886285105292e-02
-1.522091864742216097e-02
-2.381839850897125507e-02
1.220637969941203160e-02
-5.164702643712625052e-02
3.648465172633756637e-02
1.380475488273875950e-02
-3.078091006679609110e-02
2.908461419453983385e-02
-4.845382866690874091e-02
-1.883374500279418051e-02
-6.326413127021490723e-02
3.053647423406835593e-02
-7.408909937113150601e-02
-6.759749450782945313e-02
-4.304516076888235954e-02
1.615133951157648670e-02
5.725553169763610700e-03
-1.853775890403854334e-02
9.220136985437027421e-03
-2.381782761047991984e-02
-6.540019878219997806e-03
3.164149233443656895e-02
-2.383652508555781507e-02
-3.777764573991583552e-02
1.164319980613073846e-03
1.129752003537071170e-02
-5.357179338442014105e-03
2.388131288866784940e-02
-9.591924029929713158e-03
3.157262769792855417e-03
1.367400962328579189e-02
1.438411851282195286e-02
5.770618850169607211e-02
2.415288418933100173e-02
7.913289435089843060e-03
3.702982817223209738e-02
5.579882009086454403e-02
5.327028439773889151e-02
5.626555550876984751e-02
-5.455638349945821086e-03
-3.040314787833427179e-02
8.759102679865828078e-02
6.750428855412084206e-02
5.870913657285718734e-02
8.518194277800691938e-02
1.271102371332545611e-01
1.165403555612526398e-01
1.077115513606681507e-01
5.678225620217315639e-02
6.500962367244833562e-02
2.020304938826116004e-02
1.145984192919799888e-01
1.323308317406365342e-01
1.379050138931608993e-01
1.252092327730885413e-01
1.026637086477477923e-01
9.226731526331956312e-02
8.589757749517461238e-02
1.067593917317575802e-01
8.286563375994604463e-02
1.649530754314370296e-01
7.282255296879461270e-02
1.051660109228492734e-01
5.177113306425826927e-02
1.171768014795355473e-01
1.063378615142507311e-01
9.362834895199440011e-02
7.417896731509690533e-02
1.001222893156554078e-01
8.184444293464136766e-02
9.268208811110548173e-02
1.548923565404364266e-01
1.018411629274947050e-01
1.147142678737922694e-01
8.888356503830391331e-02
8.596966244180115346e-02
1.187153944002249106e-01
2.083066557326461732e-01
1.429259745691300876e-01
1.860123552917584688e-01
1.798368673698410303e-01
1.579934334476863489e-01
2.597576833378391070e-01
4.047022278981836640e-01
4.079252915062134832e-01
5.026436135764980051e-01
5.121719591471327604e-01
5.258174954955775471e-01
6.404381232178000261e-01
7.642311530016797638e-01
8.374132260942757089e-01
9.049738459039218252e-01
9.590111080444257974e-01
1.064985649464815554e+00
1.073637012304759164e+00
1.137847075583706014e+00
1.160902308639731872e+00
1.155850500314466123e+00
1.137264732559863933e+00
1.132713654539126313e+00
1.169289893922663470e+00
1.100950587633598321e+00
1.041330021012121021e+00
9.209695719887119880e-01
8.282790777825194128e-01
8.265571876788985195e-01
7.408493451818063402e-01
6.379077610854850811e-01
5.448134629104439686e-01
4.379159669622950668e-01
4.388853532535573754e-01
3.855908964657432381e-01
2.735195035400087016e-01
2.219334831823826515e-01
2.399949179471349836e-01
1.482488207795346902e-01
1.919818436357496605e-01
1.122529274826864348e-01
8.602100502671125581e-02
8.558257924242443360e-02
6.310526500274450667e-02
1.022079461535656125e-01
9.138754633688195295e-02
9.601810809256253187e-02
6.920635404713493255e-02
5.164225232187242415e-02
6.778532742934456623e-02
5.882628278813171324e-02
1.197536851987109630e-01
1.104461085469032600e-01
8.259670405234034729e-02
6.276096042301965161e-02
1.421683754593166260e-01
1.055495069646751327e-01
1.031219046887494190e-01
1.591293356073986698e-01
1.029576476905820215e-01
1.142809237822258461e-01
1.224703173033703796e-01
9.536939984463865816e-02
1.497194612409154524e-01
1.226448321692533427e-01
1.335280410093108161e-01
1.344982558798575312e-01
1.428287509202074146e-01
1.398921267188411866e-01
1.768856264475011375e-01
1.689843462956838738e-01
1.790316608498976059e-01
2.518844977057290158e-01
1.800083200505163683e-01
2.059384234216952714e-01
2.121646118408634651e-01
1.912137575881011908e-01
2.034851259963325887e-01
1.977286389243463616e-01
2.046777033210953611e-01
1.821487420096702670e-01
1.857060507151617745e-01
2.014693984498697743e-01
1.418730641213364341e-01
2.456193805080821857e-01
2.649095981800555499e-01
2.041832902826122009e-01
2.176722241346230324e-01
2.284273849199960071e-01
1.542023861650157757e-01
2.194055638497276750e-01
1.760566752867536722e-01
2.545534051209270010e-01
1.768673514829765814e-01
2.061593322893680857e-01
1.696901222570345313e-01
2.368174412032564291e-01
1.511822203175510471e-01
1.969205154874017760e-01
1.759801148782872693e-01
1.643360434795075320e-01
1.539375885282900924e-01
1.217701465216769613e-01
5.878354741477496287e-02
1.630723338169076109e-01
1.105603349661438972e-01
1.546268573497695809e-01
1.243500577964720688e-01
1.440321670313420011e-01
1.262893150067494752e-01
2.249961215128286340e-02
1.091116003794531386e-01
7.461085023684303763e-02
1.141749708573181754e-01
9.132571929464977645e-02
8.611810095759094008e-02
5.438839302794185038e-02
2.980275358882870929e-02
3.892875821806098674e-02
-7.228226307811849716e-03
2.403875794802090571e-02
-7.060187884282330406e-03
-1.101047123795361599e-02
3.102065177201315110e-02
3.910443370000081520e-02
1.784185819444718268e-02
-2.963424465516825701e-04
-1.772199744891306966e-02
-2.620153925199347755e-03
-2.141256685970862814e-02
-2.109339520056832673e-03
-4.918674224563809871e-02
1.434311571698346915e-02
-2.670420994084948124e-02
-1.246186619326579426e-03
1.139541750162877815e-02
-7.922591376127594009e-03
3.823722671608360824e-03
-8.439858615714651568e-02
-3.929674194426995004e-02
6.602757265836471656e-03
-1.306275600669822012e-02
2.538769970184566460e-02
1.945726264999404764e-02
-2.418072014970081354e-02
-4.211353645240564075e-02
-6.458933880378836534e-02
-5.129360956631232038e-02
-5.035587032017860287e-02
-5.690559975703683021e-02
-6.757290545401142823e-02
-2.880934055671409422e-02
9.285483909341196718e-03
-1.429998982185914230e-02
-5.258461196519768899e-02
-1.303887313736299541e-02
-3.354406909654274183e-02
-4.558703433263228133e-02
-4.782224678608051893e-02
-5.103122905885210114e-02
-2.574826131534341256e-02
-4.128056921317634076e-02
-6.745689037352066431e-02
-6.898574004253384129e-02
-3.652018902918531540e-02
-3.279416358625526773e-02
-5.494077925066392920e-02
-7.933355588275332881e-02
-7.600603923058682487e-03
-1.365257584878309949e-02
-1.040328625463542017e-01
-3.738654088480827808e-03
-4.961706625816426214e-02
-3.696962190199636761e-02
-7.735892078593570309e-03
8.596749836723205362e-03
-9.864865355285495907e-03
-3.155661374762461224e-02
-7.874918204632694319e-02
-9.680535118678310069e-02
-8.048321172665975909e-03
7.666475470262244796e-03
-5.505248805738170714e-02
-3.653382460026025069e-02
-4.278618652979868098e-02
-4.100634918133820583e-02
1.155099309857001572e-02
-1.113789258156821366e-02
-2.133543703583303322e-02
6.871589860408669481e-02
-5.037148264588042074e-02
1.298657889651214092e-02
-3.082041765066122901e-02
2.287840629388374070e-04
1.390619925895283937e-02
3.945832949805672812e-02
1.111979074209774876e-02
1.292315949596836017e-02
2.065424969331101923e-02
1.816730500585596320e-03
5.843820998095251157e-02
5.319695945859555242e-02
6.310149588308627822e-02
5.321631834413399764e-02
5.470271823240070719e-02
1.008362470523766347e-01
1.011554880102351062e-01
1.176955632589116174e-01
9.095682204984771591e-02
1.246267665891807874e-01
7.553659483558752830e-02
8.563601508725005029e-02
1.307957125891838768e-01
1.231364895233453549e-01
9.159654364543157179e-02
7.096283126506888750e-02
9.782060831364150499e-02
8.452059772771042256e-02
1.574632234532681030e-01
1.287288753192113722e-01
8.270017655577782678e-02
7.365219099666886482e-02
8.058653410967954456e-02
8.576698473062652206e-02
9.585963058595152464e-02
1.324543095499267631e-01
6.813278656635618491e-02
1.640384357108173596e-01
6.559440852928093146e-02
5.073393824591153345e-02
1.436488029271009437e-01
1.338895287203088480e-01
9.173567520045580737e-02
1.138164960909106571e-01
1.225407036157896423e-01
1.258466537898045301e-01
9.836539433115637499e-02
8.312167147398732969e-02
1.580408434035015797e-01
2.697630276232403923e-01
3.094309316626998041e-01
2.913306306845248050e-01
3.228987341699450231e-01
4.192960086140063436e-01
4.898014701043742480e-01
5.658417738635924676e-01
5.474772381203169003e-01
7.961773170514265807e-01
8.143468675703963155e-01
8.519567117364347242e-01
9.100979422219386272e-01
1.028856332733492529e+00
1.073158076129608451e+00
1.109437417213730015e+00
1.156282422906960816e+00
1.161091524752071003e+00
1.183671600314732730e+00
1.185449763744002016e+00
1.151198130383077167e+00
1.112936888682086956e+00
1.096772844076050690e+00
9.471492963266840981e-01
9.026516660573561390e-01
8.527085838337847834e-01
7.515496528285195987e-01
6.816605190118948387e-01
6.530119039983941498e-01
5.334111970387461765e-01
4.107636920223998178e-01
3.861952022108811056e-01
3.402572712446784164e-01
2.861975639422180695e-01
2.552442581975116753e-01
2.133264061116263433e-01
1.621267963978150761e-01
1.038871089689674398e-01
1.054355158346951260e-01
8.393738676385800734e-02
8.231572749995469396e-02
1.035031487987022603e-01
8.983650018816893845e-02
9.987723752623239859e-02
6.309484755742378326e-02
1.209321621377935363e-01
9.818821625362258998e-02
8.466544047017829366e-02
1.034385704714217147e-01
6.966746244547200595e-02
3.169910161032722662e-02
8.209028100428783503e-02
1.282658433374967988e-01
1.139537339932481796e-01
1.132484524990332031e-01
9.778307907468393456e-02
7.043180456626020602e-02
1.777339323985558939e-01
1.346011557363734346e-01
1.337449052420348616e-01
1.321960649227453544e-01
1.955956970130897088e-01
1.898947975965898927e-01
1.397910737083745691e-01
2.089387687407798233e-01
1.746657690475856006e-01
1.655196116101213533e-01
1.796300459354552848e-01
1.693091557190296581e-01
1.573018156919974431e-01
2.240666099712187720e-01
1.977355930763924075e-01
2.261526070425850243e-01
2.192249497505563138e-01
2.297179723425104569e-01
1.542058708550370638e-01
1.915678824943461145e-01
2.362906685076479607e-01
1.822514681935863412e-01
2.326179471630803741e-01
1.802742629277176989e-01
2.226963482021986074e-01
2.703485906022012331e-01
2.447725293942820957e-01
1.651408819098496572e-01
2.448904563605833473e-01
2.725364749063824421e-01
2.998712863926516481e-01
2.279750832521324211e-01
1.702331526919991789e-01
2.213416410254687161e-01
2.530233392115244784e-01
1.960901590226457880e-01
2.292909568226745853e-01
1.688547641458227333e-01
2.010255595227516123e-01
1.107639730340683470e-01
1.523398982166239424e-01
1.758855168449598438e-01
1.602268962719914092e-01
1.270257542243516946e-01
1.458485360260768082e-01
1.654181190920920308e-01
1.475471179465023541e-01
1.465014963210556076e-01
1.611242001625494691e-01
1.233323518745435554e-01
1.688524838777989423e-01
9.285365427588840315e-02
1.748474771282023665e-01
1.449106772014818467e-01
9.540295171942431152e-02
9.203185161231243472e-02
1.016202030922138955e-01
1.081753023287931881e-01
1.179501596890673576e-01
3.990623088884513725e-02
8.837847466390605367e-02
7.020242416438563643e-03
6.059367880437716708e-02
1.050699815257048475e-01
1.461253143300490082e-02
5.004615884630379818e-03
5.560287061046505219e-02
8.675818559469607172e-02
5.121436587622198167e-02
-1.920686067475859890e-02
-1.592068354838696576e-02
3.430900832279232260e-02
-7.036275228049445468e-03
2.956528127955119697e-02
2.862537812650928215e-02
5.488090593228314717e-03
7.221006575350284729e-02
3.321587531262946286e-02
4.972793157680577975e-02
3.901575166191958988e-02
5.049507373743707811e-03
2.002405348025334750e-03
-2.682760580851135598e-03
2.520993887122072175e-02
-1.608700450517727698e-02
5.393307566946466125e-02
-2.132977740576462444e-02
6.445916787803545808e-03
-7.799090553918315571e-03
-1.529721070621701401e-02
6.263727001583777043e-02
-1.638184585763283185e-02
-1.295044322548496128e-02
-2.425682499735298814e-02
-3.554647730362155492e-03
-8.210456629764079084e-03
-3.906957676829951598e-02
-1.848170839761651904e-02
1.234125063345598711e-02
2.471966574359753602e-02
-5.453669307878384644e-03
-4.431543884796594959e-03
-1.700316457070011333e-02
-2.116243136285322901e-02
-3.353531689181705328e-02
-5.244815734790561623e-02
-2.656211263481535884e-02
2.195611201785474531e-02
-1.750802406457902666e-02
-1.469526840014724611e-02
-1.474278310333202412e-02
3.418067163465611513e-02
-3.030698210374447102e-02
6.655390327979772425e-03
-2.809171641532209364e-03
2.293433646805656013e-03
8.715340969852870129e-03
4.356394698422172938e-03
2.782552592454297022e-02
4.697007032015879970e-03
5.960205471924941156e-02
1.046708743318184448e-02
-3.993398450978689201e-02
3.254121155910458252e-02
2.756979756664847125e-02
1.939913674177995428e-02
1.345922259998375003e-02
-3.915539580733897601e-02
-3.086800245262937004e-02
8.043676443642509832e-02
1.714017625535085507e-02
6.758646343963281566e-02
-5.346034375077667218e-03
1.567430555380475501e-02
7.197312852279288964e-02
5.325944093318096123e-02
7.735686311649393743e-02
6.586419147177569045e-02
6.522248016990850328e-02
5.634026870108643781e-02
4.629346995044702345e-02
1.296205089369419083e-01
1.400071529932266357e-01
6.726409678580633211e-02
7.069361786615648013e-02
9.869027620444079107e-02
1.245228378297263822e-01
1.138820062336362293e-01
1.391509176365137157e-01
1.272806154552487967e-01
1.296389237199024880e-01
2.094815447312094181e-01
1.250026064884828536e-01
1.932541395721486810e-01
1.903587059685866445e-01
1.645491167849885139e-01
9.367306859027184351e-02
1.539625780948721545e-01
1.386987340128104929e-01
1.553844833446753060e-01
1.230749153545474400e-01
1.773896988230250493e-01
1.835726557060710085e-01
1.880690614196368349e-01
1.401301664921135726e-01
1.182006826361930302e-01
1.587869499322726585e-01
1.991729042288647999e-01
1.470016575663815883e-01
1.573126904224241007e-01
1.361866425048010310e-01
1.286197885479493930e-01
1.653587956225146260e-01
1.461797363002128036e-01
1.676201269451887688e-01
1.798949010844963226e-01
1.879066067535387630e-01
2.113709489038060330e-01
1.912335710773119812e-01
2.172847503952360648e-01
2.775835563366473302e-01
3.191875086468607958e-01
3.519463156997001407e-01
4.297272879369293253e-01
5.113586331699532250e-01
5.874711490309695305e-01
6.670859414142912280e-01
6.619329158051109330e-01
7.452271575620839084e-01
8.502360739981027482e-01
9.379622621490414369e-01
1.000463004920003840e+00
1.056124193797614463e+00
1.119383872298533422e+00
1.187491254479569491e+00
1.164539170742360907e+00
1.291889614631654082e+00
1.224413746276159065e+00
1.242436118681982338e+00
1.166062045753134324e+00
1.159725316549242047e+00
1.092563676267933603e+00
1.052316089823671863e+00
9.499202842265529467e-01
9.262952250798646148e-01
7.558614286410388905e-01
7.492911027158970505e-01
6.459725605817498995e-01
5.366944297721558677e-01
5.553507702758281317e-01
4.876188643717824234e-01
3.118815306846275393e-01
3.283109019805576234e-01
3.001476914579900845e-01
2.550917996331032445e-01
2.566901834393441328e-01
2.258397725344801488e-01
1.753453441382429590e-01
2.212190307740747874e-01
1.706045101453224355e-01
1.249921777684998569e-01
1.148546673144713592e-01
1.669444485207806084e-01
1.059445194469795515e-01
1.190095833174306672e-01
1.268381369470706344e-01
1.483084866410905867e-01
1.361261692756583208e-01
1.072210933495143514e-01
1.867705493049564569e-01
1.452294173957917600e-01
2.236084334556700803e-01
1.779127517784013790e-01
2.126764696646684383e-01
1.994980407478377515e-01
2.259474994376286516e-01
2.095127979406530838e-01
2.053223848761799031e-01
2.368636756139674837e-01
2.843579375285485433e-01
2.072888432622009280e-01
2.447061059547424311e-01
2.260282691478525396e-01
2.465271316466835783e-01
2.375833789951431185e-01
1.763546983356254483e-01
2.396269946792960459e-01
2.799249060043190185e-01
2.310313030136585399e-01
2.853931229099306854e-01
2.667635472533107510e-01
2.587007903359015426e-01
2.944974030615915561e-01
2.903072538865809626e-01
2.847120441348908737e-01
3.044493165108917987e-01
2.815921173185723103e-01
2.273305281985170956e-01
2.661385351288918510e-01
2.237994292321087153e-01
2.977384236651620109e-01
3.046266129746913465e-01
3.053540853017505663e-01
2.907811784755301998e-01
3.037995199800818114e-01
2.257718881719629200e-01
2.678141275040482050e-01
2.262372462954492236e-01
2.552617123575899316e-01
3.115213957290286495e-01
2.925618137992785361e-01
2.760870381975243926e-01
2.469618503480894289e-01
2.185489445159147781e-01
2.496852025653006624e-01
2.729010334775146540e-01
2.471901732082451009e-01
1.824619558096773619e-01
2.281538362760390237e-01
1.624616558046930448e-01
2.387152264014139602e-01
1.884289226858118782e-01
1.670750603504188581e-01
2.227948926438092503e-01
2.094835729700306737e-01
1.940942971422259800e-01
2.472857859082809306e-01
1.950055874206131357e-01
1.510527727367397266e-01
1.804636026162192985e-01
1.508457635881480241e-01
1.920396615222481063e-01
1.571559759574974735e-01
1.549068826302985036e-01
9.512428144345005943e-02
1.352355573581222048e-01
1.268291599327954766e-01
9.304326168560420052e-02
1.125145346549628333e-01
1.277654733260876752e-01
1.102442218802609508e-01
6.384618318281479188e-02
9.400306397825830551e-02
8.430757289426260570e-02
1.004624260900330301e-01
9.369248394285682735e-02
7.540847802756944773e-02
7.102761155881047450e-02
8.351388644858274979e-02
1.074934312660182911e-01
8.422512705260304378e-02
1.159717846067433444e-01
1.048379472546441676e-01
1.134502451612392770e-01
1.074571712470999835e-01
1.112721049748857521e-01
2.790676045487744047e-02
8.016864526947259373e-02
9.566275241560090459e-02
9.956866158548388634e-02
3.307328959888737596e-02
7.462041997477528166e-02
5.596120284369997255e-02
1.080198151903011827e-01
9.983824810004850170e-03
2.760506464263749390e-02
-4.472436060714200801e-03
5.342468585180068508e-02
1.163130855700505450e-01
4.644678089437397767e-02
5.025021514515144727e-02
6.322732325165621170e-02
4.278704352077587758e-02
5.686286041574564742e-02
5.730172609907939474e-02
1.986538007524515231e-02
4.214740578339704058e-02
6.700034570391488753e-02
7.240699624156725356e-02
8.334308074506369124e-02
