1.156544041367028930e+00
1.127729255200666358e+00
1.065250911988794735e+00
1.122887620993469948e+00
1.026837936059315837e+00
9.934072715962385391e-01
9.039256727457717355e-01
8.367549164315611909e-01
7.559687202264664396e-01
7.427631433348751422e-01
6.778719088276348170e-01
5.732678747590684853e-01
4.906012552056923104e-01
3.951512463655384444e-01
4.148722132218513048e-01
3.220696638423602431e-01
2.666695183961807492e-01
2.652701296497573247e-01
2.246742768773696830e-01
1.651292078120121243e-01
1.503545035724403456e-01
1.875209475302601625e-01
1.473404379325945479e-01
1.752530158419168538e-01
1.600697694688490991e-01
1.851222822069807372e-01
1.286068450319060030e-01
1.619029782912295434e-01
1.765781252127126000e-01
1.420495738454742585e-01
1.987458355884554606e-01
1.195550670921038949e-01
1.495571103368470989e-01
1.287220076691472093e-01
1.632487958483399559e-01
1.863221709384013658e-01
2.216317699844003175e-01
1.978071905954544574e-01
1.904024255969596624e-01
1.675745032947304480e-01
1.833776532686779981e-01
2.348019136696795628e-01
2.575510438457812579e-01
2.240403416939723558e-01
2.783346068330718182e-01
2.187515200690806905e-01
2.406159439980157522e-01
2.480501353634001482e-01
3.078199074988134942e-01
2.704328708223747157e-01
2.167209055498751646e-01
3.032227877741774380e-01
3.337828314745614477e-01
2.743622143195295071e-01
2.580950035298157919e-01
3.137789608264217045e-01
3.493019839381280578e-01
3.180274311700070911e-01
2.457262803388886863e-01
3.185598175964498568e-01
3.091941821979636851e-01
2.692186676601360240e-01
3.369496054369454652e-01
3.114993946892004595e-01
3.374977036365567340e-01
2.655426168336252890e-01
3.083291983051676399e-01
2.681376787333301093e-01
3.006970665302856616e-01
3.355198909118246031e-01
2.460152628203929603e-01
2.450214317077982762e-01
3.117300612103856561e-01
2.793200415797082448e-01
3.112770413736800634e-01
2.480485062957239750e-01
2.696790278798947282e-01
2.844284555136907811e-01
2.655142460744963628e-01
2.007697573406034552e-01
3.341527231159610034e-01
2.507244830781960587e-01
1.988785218374659047e-01
2.431286770757923321e-01
2.410830830955307258e-01
2.524458307643059340e-01
2.447939215221431319e-01
2.048661515881126105e-01
1.538894661949098963e-01
2.136490662807576935e-01
1.447948751746446494e-01
2.248029973720711283e-01
1.606758790369564038e-01
1.960697960368846804e-01
1.517616181231477290e-01
1.511876795243098370e-01
1.365102215165793775e-01
1.767120174693675161e-01
1.313893368024715569e-01
1.680050611314952147e-01
1.221402010730091858e-01
1.282349495241555115e-01
1.315671502952849292e-01
1.305840756499234145e-01
9.386351832289820118e-02
1.384786708287076284e-01
1.051563400799513937e-01
1.257047742525636003e-01
1.051523888685082647e-01
1.196449275133755208e-01
8.628335728527994353e-02
7.166717358342947208e-02
1.050499525152957248e-01
7.447668124653662736e-02
1.302494954825113016e-01
8.586238157571765561e-02
4.011654666511120515e-02
6.139643463927675626e-02
4.675411997949553006e-02
1.068271084490151068e-01
9.588081461191702570e-02
6.900225909736751317e-02
7.781365705965129220e-02
6.487280541893243602e-02
9.181572332691148586e-02
8.020267262884425707e-02
8.430951754579921187e-02
5.635076994693063307e-02
4.204362949635824520e-02
7.991005228561751106e-02
1.055447812964516174e-01
9.130532791587356312e-02
1.047647752208565319e-01
6.143123054521548720e-02
2.678697209238739552e-02
2.882481334908447088e-02
9.607489817477300742e-02
-1.692870378938629572e-03
9.883289667114054933e-02
2.963019206413482556e-02
1.105716871399808482e-01
5.040216269399370314e-02
7.388512214501752329e-02
1.234831483959666076e-01
4.178584858109411077e-02
4.107475875393551412e-02
3.046356014551880945e-02
2.111475207872413884e-02
4.116702154699347638e-02
3.434494961590429940e-02
1.344725211355148747e-02
4.464363931820083259e-02
6.449562311480212806e-02
2.421274982195592909e-02
4.635192178311913630e-02
9.360797183740526828e-02
9.071169120639620276e-03
1.099137926642116680e-01
3.211834415699559020e-02
5.881688403665277093e-02
9.169824138292814730e-02
1.014780425195991320e-01
6.876642560708567942e-02
3.466915241560084016e-02
3.297052701570564459e-02
4.028649918609784886e-02
1.154272931888527948e-01
4.861964787046159364e-02
7.134548952103360320e-02
3.201480727530706116e-02
3.050587650342254792e-02
6.804350646571900862e-02
5.976014908294068062e-02
6.440459508423820867e-02
3.024566608633668177e-02
7.528859528536613333e-02
1.270633262062855207e-01
5.830386473677941217e-02
1.143447443542996989e-01
-1.276880944654543160e-02
7.104019106038694797e-02
4.194700916257440571e-02
1.406816398628098763e-01
1.344702844626848304e-01
8.174607324342528236e-02
1.262613186184557701e-01
1.585562437390373725e-01
1.682320835982565044e-01
1.204151186763618708e-01
7.142603864920622769e-02
1.158358211597425996e-01
1.708391891588721678e-01
2.158106211700405730e-01
1.560915430755279165e-01
1.442444366767171304e-01
2.389695705082808541e-01
1.834740200479821060e-01
1.385186673772557109e-01
1.755345510994097968e-01
2.125160705235097924e-01
1.834583396704261571e-01
2.120580925814381512e-01
1.423162905236708409e-01
1.492413962795916538e-01
1.715660971763651177e-01
1.860258873237977673e-01
2.049208608217586991e-01
2.139500845555135644e-01
2.683217081876455024e-01
1.712408969816958115e-01
1.826399527234373599e-01
1.690540610951578870e-01
2.207891977254456961e-01
2.202697421323554505e-01
1.705926809791850629e-01
2.438441080994489252e-01
1.587229626851607012e-01
2.095115172328147757e-01
2.216697118538041578e-01
1.377517329521447675e-01
1.980500642101035436e-01
1.031241813265515173e-01
2.163250262688667380e-01
1.684299773634082287e-01
2.321619016063370677e-01
2.558636280581441103e-01
2.899280553018414031e-01
3.117327718071875031e-01
3.214518550644591133e-01
3.494537021735946158e-01
4.061635604525564158e-01
4.287090852018151654e-01
5.154319854617680496e-01
5.776591997915216936e-01
6.311990853555496939e-01
6.734776149817651714e-01
7.589136223198130748e-01
7.728690470025357806e-01
9.247771552735408740e-01
1.005756259779023498e+00
9.675379599881408499e-01
1.098378043503104085e+00
1.119392521859334799e+00
1.106823261022249039e+00
1.134737882484363247e+00
1.170984297208358393e+00
1.088553106029443107e+00
1.085816021166277290e+00
1.048167357016321910e+00
9.577557947244424996e-01
9.496314526201178330e-01
8.629168139589997732e-01
7.713211351795391524e-01
7.766525411360230002e-01
6.637905104566373948e-01
5.130073762800546611e-01
4.860604772902151760e-01
5.109548097993590332e-01
3.525639971822052687e-01
3.353995096566230738e-01
3.281849541153485372e-01
2.750451496592301037e-01
2.496731514854672318e-01
2.238536586053160027e-01
1.835397202382180737e-01
1.445748488117961084e-01
1.708627028025202221e-01
1.385320470678900462e-01
1.317396324484824688e-01
1.884903112840262407e-01
1.322558016847141804e-01
1.959977716736198694e-01
1.547896615685607491e-01
1.454718344121834483e-01
9.955770196941426953e-02
2.220316912155316236e-01
1.629913896190668676e-01
1.000628422547000240e-01
2.030357740338861183e-01
1.772558975258025360e-01
1.562701185756755484e-01
2.176442786165989074e-01
1.187631281625632085e-01
1.793074213261194871e-01
1.972168304359213364e-01
2.371733257192707445e-01
2.841422869763536863e-01
2.148160315482986749e-01
2.410587514862780334e-01
3.146705345791136477e-01
2.371571572820039275e-01
2.556758973859264983e-01
2.089244208744915621e-01
3.090171840280290794e-01
2.328148615579176961e-01
2.659713848059555574e-01
2.685636725965545590e-01
2.670764242059287530e-01
2.543499396440013771e-01
2.771727974405210904e-01
3.248860592316191176e-01
3.424949001038478102e-01
2.703734664097314222e-01
2.633567692538358873e-01
2.534365781201383672e-01
3.587837446613596493e-01
2.822031499731661452e-01
3.115645720561153187e-01
2.984251525731180243e-01
3.428279261917011045e-01
2.678371335116488394e-01
2.403948459334151466e-01
3.273819563032152602e-01
2.963495907369021465e-01
2.802605052349778081e-01
3.096295039988561371e-01
2.756671953037544975e-01
3.037626283756571510e-01
2.601804865106606690e-01
2.756921333687573084e-01
2.600260822792175852e-01
2.298429461671875063e-01
2.285906876090290363e-01
2.179192541299749819e-01
2.324426298209717467e-01
2.054157514619023295e-01
2.266364797199083292e-01
2.199631279376872139e-01
2.083032612435632980e-01
2.029816549336273535e-01
1.734124136080124612e-01
1.759809526148751191e-01
1.283350395091340523e-01
1.688577422026098507e-01
1.368843515650759735e-01
1.634797058688874372e-01
1.331109875743815008e-01
8.713780970926281177e-02
2.104083037730876127e-01
1.301468472098386009e-01
1.748459624224341646e-01
1.100699676170313335e-01
1.713797066877282838e-01
8.056217485417289936e-02
1.151995388420629374e-01
7.209124412551344563e-02
1.779657197827149151e-01
8.769660119780341156e-02
1.154110045495630593e-01
9.961323464183066689e-02
8.102710332471033117e-02
9.318085078991365788e-02
1.144422051651733108e-01
8.989234739605382607e-02
7.105996873563331928e-02
7.826612167057649116e-02
1.167960163572478033e-01
4.365507755336796997e-02
-2.489278685475972142e-03
1.735048909599909775e-02
1.684669358906561165e-02
1.847966898459689478e-02
1.705706977714512365e-02
3.943660075466096093e-02
4.537683595931471525e-02
4.298870635228769360e-02
1.203403817319546008e-02
6.192769347697643645e-02
4.642205657357423992e-02
7.620956997285865953e-02
5.265418978647455617e-02
1.534049927589139183e-02
6.365524172462896924e-02
3.144646443002662578e-02
4.600590360116722094e-02
4.258184517379236256e-02
1.621204780490868511e-02
2.207844651700477390e-02
1.413971394092867692e-02
-8.348751340354038097e-03
-4.788807996684171786e-02
-5.097211234137827979e-03
2.100407144869012588e-02
4.695391690517283084e-02
3.766592419279488763e-02
4.838044839091398472e-03
-7.700187188321206549e-03
6.824468926215707630e-03
-1.747819507067344125e-02
-5.209986664580396054e-02
-3.537536950325004259e-02
5.187651482261954744e-02
6.604317109970365973e-02
3.266921313652989406e-02
8.070243244190866694e-03
-3.217127708959353904e-02
4.629507691288063838e-03
2.770912629410099762e-02
3.418973366570959849e-02
2.995017272011270271e-02
4.562359450966831792e-02
6.773959035223317549e-02
-2.515183762035907294e-03
9.405617075184455333e-02
-5.035566016491661856e-02
-1.266882489779715647e-02
1.721957785946992212e-02
2.833949254672095408e-02
7.188394581476691310e-03
-1.337315930661673972e-03
8.065094389064454694e-02
-5.448762517308619775e-04
-1.347315132913260750e-02
6.934990684302723418e-02
4.579618346175143295e-02
5.504801839609679837e-02
3.016425076643861752e-02
-1.470585740007508344e-02
3.160808809741276482e-02
-1.363057732378707837e-02
4.197763372930984199e-02
5.745782744906071521e-02
7.348361604951071657e-02
4.202934575445013005e-02
7.103252850378057037e-02
2.546375949929641572e-02
8.575654947470241762e-02
8.134848828789625896e-02
4.161496183785719227e-02
8.618308608001351567e-02
1.077284130344922236e-01
8.225003987235807168e-02
6.013008210223406286e-02
9.508298450647180433e-02
1.112656678144951089e-01
7.469542775748110042e-02
7.419610748886154572e-02
1.247914577751933346e-01
1.384093653195016815e-01
1.825808088740953905e-01
1.422112433093612460e-01
8.985417578334795041e-02
1.909072777618068817e-01
1.646165888095113550e-01
7.569671282028019033e-02
1.074403757865596692e-01
1.256782446842352463e-01
1.672051234835890687e-01
7.186139851631699604e-02
1.403902274086842039e-01
1.676456778070379572e-01
5.897727552484259561e-02
1.657380770104922574e-01
1.682492435531313113e-01
1.153530010540496642e-01
1.043217800195607864e-01
1.109442409792340961e-01
5.435891721917411601e-02
1.223801683039941468e-01
1.364855741311221116e-01
9.132984690686726803e-02
1.556036005690424606e-01
1.288640697021045667e-01
1.340973016691149322e-01
1.163262860618874822e-01
1.548252829514668583e-01
1.779958028791081837e-01
1.369856164502774587e-01
1.857864718577509344e-01
2.043090395775947754e-01
2.169408133193408694e-01
2.835913317018166069e-01
2.464260411130019535e-01
2.968704915596395155e-01
3.339381716079551365e-01
4.329802412004802870e-01
4.628079125126381976e-01
5.148212410677625028e-01
6.541054878286667318e-01
7.293385168412310771e-01
7.365851294520708858e-01
7.753589145884902667e-01
9.386076668606360141e-01
9.573273076901467338e-01
1.008377894119226958e+00
1.041558622500721176e+00
1.045510581333849220e+00
1.075454300857137335e+00
1.112982986309539735e+00
1.070264214123732849e+00
1.074281856542542490e+00
1.026701287517254757e+00
9.483235038906916436e-01
9.728183722555232560e-01
8.785706391115438718e-01
8.017986354101134250e-01
7.364250350768574149e-01
5.927842721023508510e-01
5.594447211546101917e-01
4.586896340932235527e-01
4.425446038161270357e-01
3.880006824704119173e-01
3.277668671426140490e-01
3.105094494731781007e-01
1.883242828346284592e-01
1.737266258398898200e-01
1.806602974513116799e-01
1.522942500374137587e-01
8.613847023908417777e-02
1.472091155169424348e-01
1.472032749170319732e-01
1.065614997214676674e-01
4.415436648667848268e-02
9.210092685440397775e-02
9.721754254550023233e-02
7.999364813692172449e-02
1.308402851203219197e-01
9.009590131862611762e-02
1.605326662291324813e-01
1.252198233478695744e-01
1.147175405274675070e-01
1.390352336552962143e-01
1.625363402506908306e-01
1.489073883921369357e-01
1.250767310626564321e-01
1.130204951109556738e-01
1.046386059960965481e-01
7.055298470207342632e-02
1.544380191621752552e-01
1.429579106942202860e-01
1.498598107546608715e-01
1.959428157293346129e-01
1.667857918465537326e-01
2.319295865511805110e-01
1.626502218799274480e-01
1.553006712744803008e-01
1.510868404108075547e-01
2.146679492044107351e-01
2.314648941140561023e-01
1.827721390786549160e-01
1.721011469266990057e-01
2.530636357467117015e-01
1.664822218090538097e-01
2.428312615021347154e-01
1.976054822286144874e-01
2.285276594131324668e-01
2.504630067315185560e-01
2.336367650910669003e-01
2.113322461090724191e-01
2.625562873263138086e-01
2.294694591099923908e-01
3.310329376509077992e-01
1.688025913241509857e-01
1.673990778336462704e-01
2.475077326044314296e-01
2.150586173659944367e-01
2.377752191338468324e-01
1.786936425012857210e-01
2.105887326165721274e-01
2.196860442741019881e-01
1.863508559629724060e-01
2.060196090640415978e-01
1.543424179357428261e-01
2.028923905104669800e-01
2.300226207915404553e-01
1.449120319612099972e-01
1.382670914139059182e-01
2.078737482059788144e-01
1.274999281016588326e-01
1.868213054609466905e-01
1.577581710689826278e-01
1.379367832001485716e-01
1.887392411328286390e-01
1.667772391717506908e-01
1.414495346286775701e-01
6.255765657832980386e-02
1.425571295435205110e-01
8.310531274549273761e-02
1.026378297776864568e-01
1.035702696937164102e-01
1.543777758301645153e-01
8.402433206282339251e-02
4.316734686958458717e-02
1.242484522810763659e-01
9.633152218443069570e-02
9.195212264394098112e-02
1.083317009336188241e-01
1.101139277980948961e-01
2.653452524587144451e-02
6.563344863109395189e-03
6.871747084411300444e-02
3.086891090227945195e-02
2.904269973587138981e-02
-3.843863939696004484e-03
4.309299545733123737e-02
3.357141782436421501e-02
1.293645038971440869e-02
-2.779216504107496349e-02
4.655168759046565685e-02
1.452870646517154252e-02
3.713289138564390690e-02
-6.259539207446540576e-02
-7.482506630599392028e-04
-2.675635059162513943e-02
-6.813500369689397262e-03
1.789384375079912382e-02
-1.668860341045602658e-03
-1.445316390317049476e-02
-1.671240653848013805e-02
-6.586206675390664234e-02
-4.811873726479501401e-02
1.097997894370519173e-02
-3.945119566976468262e-02
8.406407346108785150e-03
-2.435859584162314295e-03
-2.176480806332849183e-03
-1.980066846037256689e-02
-4.401852821846587854e-02
-3.654250971882046228e-02
-1.379014723161302303e-02
-9.769249133698873488e-02
2.534041624965968631e-03
-5.057492475187458369e-02
-3.889271688347314959e-02
-3.931129423063610406e-02
-3.880136271315130780e-02
-7.759144551232391440e-02
-3.415991703307585253e-02
-2.136639080925116160e-02
-1.009749390158065502e-01
-7.906931723658763844e-02
-1.353595961178170534e-02
-1.944717892120137806e-02
-3.207181229404310052e-02
-6.175560972831616730e-02
-2.004401518005237415e-02
-7.778424324641847187e-02
-4.596474957418403978e-02
-8.114802914279919954e-02
-4.688098021981929736e-02
-7.295686482733848566e-02
-1.934841652540597937e-02
-2.895453191774449708e-02
-5.893977846147829824e-02
-8.926349285556418878e-03
-7.007226674000471833e-02
-4.211722441132031286e-02
-5.910072822116363422e-02
-1.789634532719557719e-02
-2.028156207389018514e-02
1.592215067950722429e-04
-3.561277011968563139e-02
-1.259716987404553845e-01
-4.906015206990738120e-02
1.201465845335941696e-02
-4.335056216043445265e-02
-8.962281743102652742e-02
-1.694126259739288376e-02
-1.284283667148490571e-02
-4.833389713192882964e-02
-3.167538770061588405e-02
-4.724120790743170650e-02
-3.483044274821558983e-03
-1.458374929749106652e-02
-4.815745042328447439e-02
-1.015280995020129834e-02
-2.832045202732662997e-02
4.125453654614626153e-02
2.819582733190868079e-02
1.879850502620281083e-03
1.233326258626553373e-02
4.484322923062412924e-02
1.390851641368454072e-02
4.669360722532900354e-02
7.320346928786594654e-02
1.918465357588569620e-02
8.838534466833811165e-02
8.477404049376063844e-02
5.669333792277612971e-02
4.099671007139975981e-02
6.639981824767844654e-02
5.687110446787539686e-02
4.516159724965441991e-02
8.946213705657160564e-02
4.710968381320201209e-02
7.171549208352388793e-02
7.586619516703434207e-02
4.809217698968999699e-02
1.118601769172332117e-01
8.791811770939686466e-02
1.359775078808342363e-01
9.147805795762525838e-02
8.797139902993619809e-02
7.391802257397299403e-02
1.026493774045679069e-01
1.027773379044502056e-01
1.231986428756229601e-01
1.020382593829808199e-01
1.615364066295811585e-01
1.107566821296302878e-01
6.554607715806087809e-02
6.091019145167438087e-02
1.069444969438902160e-01
5.829399572414285802e-02
1.049243434225281546e-01
1.127171435630206775e-01
1.130385951061793903e-01
6.015342647651980568e-02
1.162582603019093885e-01
1.027609326936330947e-01
8.194190149203151030e-02
1.057084739845377541e-01
1.387851962833871744e-01
1.230973831510392136e-01
1.760680997577726004e-01
2.397537448234634827e-01
2.607657424274850699e-01
2.761272125432954749e-01
3.289478287571033222e-01
3.602750890106981574e-01
4.213532686874574829e-01
4.556789033532096522e-01
5.782156521496903956e-01
6.622914398271173564e-01
7.112843796993980616e-01
7.571252941860427965e-01
8.517446860536175279e-01
9.504071668367373160e-01
9.894363340404485063e-01
1.003970607803544635e+00
1.097025972998492360e+00
1.134486846317396713e+00
1.043486693341538318e+00
1.041125038613468723e+00
1.046503737883281548e+00
9.629774797561945210e-01
9.693005074269336330e-01
8.908458894284999596e-01
8.354391718627508512e-01
7.381863464061160229e-01
6.598497861130081521e-01
5.509502409084693353e-01
5.830537474183482560e-01
4.974262295328495398e-01
4.241444484295857631e-01
3.543234364324906460e-01
2.205900188500627968e-01
2.193629387467893599e-01
1.928618588585371829e-01
1.331088798028965126e-01
8.579718156457319389e-02
8.393255107384187119e-02
9.643026584377928367e-02
8.259863910687509359e-02
9.835638594723400407e-02
1.263072310220166028e-01
8.098668453319628202e-02
5.337770966417133833e-02
1.126811248261236909e-01
1.266825243096309644e-02
3.355946649937491255e-04
3.954050091252322291e-02
9.461224880769880663e-02
7.990916553059582150e-02
4.598253673984058904e-02
6.327418050667563132e-02
5.329473036198981162e-02
5.888292888216835330e-02
1.483373302037990504e-01
1.032292597050095684e-01
1.663630682159133178e-01
9.230683687906987567e-02
1.394358805582092131e-01
1.371495390450455099e-01
1.622807114596090949e-01
1.489772999256908093e-01
1.762210207085490310e-01
1.684794071486789835e-01
1.241381782449651749e-01
1.836995647364970674e-01
1.632673724728975484e-01
1.474834578535609286e-01
1.957942352084961202e-01
2.065600698553051728e-01
1.680775501735279343e-01
1.754566801528242848e-01
1.474532459327694556e-01
1.377096629960574692e-01
1.870467376611053001e-01
2.202117953788689242e-01
1.810471610460233360e-01
2.425272595693739874e-01
1.946369159952503758e-01
1.954974461145072007e-01
1.932335506938813452e-01
2.313712907288923704e-01
1.728122696728438823e-01
1.970075185593639366e-01
1.833959293703487370e-01
1.815597407229605775e-01
1.977064401723548082e-01
1.911603341055740368e-01
2.236908510044427756e-01
1.890812169890582206e-01
2.030132529541313346e-01
1.882123104654486734e-01
2.215310562788120607e-01
1.664725275967959550e-01
1.624358766686499478e-01
1.894230390068810665e-01
1.530280171197151984e-01
1.727014227678617120e-01
2.229524523256219415e-01
1.183543182367406688e-01
1.884423794010441078e-01
1.223759759577061484e-01
1.718220208419447559e-01
1.467410080365077196e-01
1.385745965257004220e-01
1.103965176963049577e-01
1.017443948066798221e-01
8.192419491931235420e-02
9.810530288228039297e-02
8.675610294966323854e-02
9.239966762001730616e-02
3.879902299589432779e-02
7.631526065981092399e-02
1.081133123841197252e-01
9.324557188843006494e-02
6.040818866046790414e-02
1.314984120185329064e-01
3.233583277577087994e-02
4.221780284985973686e-02
-3.397816117812882397e-03
2.345258859632809445e-02
8.478969308207680300e-02
1.593840271610263981e-02
-2.302713456752459448e-02
4.503270929895243635e-02
2.677572934061651921e-02
3.640819510303634765e-02
-8.703841811144794050e-04
-2.545775260250540684e-02
-3.876552701395488687e-03
1.531333548682076162e-02
-6.308586886403767802e-03
4.847748804214166429e-03
-2.539615284288979438e-02
1.108419044549863175e-03
-1.394389538002243495e-02
-3.709907593107869550e-02
-1.365862184528976106e-02
-3.126175967714550641e-02
-2.824409190703910943e-03
3.297535498222134431e-03
-9.293433003821030547e-03
-7.472128314532505700e-02
-5.584172214085021679e-02
-4.712281499920203953e-02
-5.294688728411144074e-02
-4.628487936250466617e-02
-3.098964527179587369e-03
-1.067345002161823944e-02
-4.504962701726838992e-02
-1.521007695751993433e-02
-2.366149057838263722e-02
-3.501251431784142137e-02
-2.098611148240725477e-05
-5.469218450583095137e-02
-3.360402905320165196e-02
-6.699718513883502757e-02
-6.579769396706472429e-02
-7.672756860638627052e-02
-6.563372454147416157e-02
-3.367884566202378194e-02
-4.532222881429503331e-02
-4.438283285919627369e-02
-4.526450229550769977e-02
1.692546622981870585e-02
-7.030364352137760675e-02
-7.340616598958088490e-02
-6.130387015594370576e-02
-3.791705459791222532e-02
-2.009524082360744646e-02
-1.671548351124505644e-02
-6.622085279140103170e-03
-3.784614648087194361e-02
-4.607159882927323868e-02
1.529864440806241732e-02
-1.166892169237707388e-01
-3.066627724291463852e-02
-1.895630189685408584e-02
2.513269095857946500e-02
-8.002188521353248429e-02
-4.183320875176436276e-02
-6.886954759508992496e-02
-8.088013977633104479e-02
-3.172681188505448169e-02
8.840715378599442453e-04
1.370431019383668708e-02
-3.663520973440196477e-02
1.284220180317284521e-03
-2.249442667019310726e-02
2.473254598390310643e-03
2.294759506466748783e-02
-1.477070163592727678e-02
2.631986135165329671e-02
-3.920971037992351804e-02
2.026579551537031898e-02
3.518986720630561810e-02
3.591374766145835618e-02
-2.350028768885119301e-02
1.012792798824575097e-02
2.981971771438707286e-02
3.868701341537054278e-02
3.368704309233087890e-02
7.805865986077137331e-02
1.422668062516240645e-03
3.830695819137892866e-02
1.911994703097941173e-04
7.483048973712036478e-02
7.822795656137807030e-02
1.674382333847649618e-01
1.031209627089803710e-01
8.754382875875874048e-02
9.040739212233998845e-02
7.826652060669710143e-02
9.649197201434729643e-02
1.054474086049865811e-01
4.253269512491193727e-02
1.113956454444375854e-01
1.121948165631431182e-01
1.650936212725649110e-01
1.114361689553785562e-01
9.491317019901344965e-02
1.279888099650065836e-01
1.237616374741039998e-01
1.187471154922505462e-01
8.496203111946791509e-02
1.188548214781695311e-01
1.059138312982164792e-01
1.161235757624286546e-01
1.435217015559697440e-01
9.992318401256677918e-02
1.118562009033781252e-01
1.328906968593477900e-01
1.066826734400538046e-01
1.912555044340308041e-01
1.189629353742463064e-01
7.330319903410983939e-02
8.528870168073449110e-02
8.337984977880698312e-02
8.956074283047775475e-02
1.352627366389975161e-01
9.345249001411318202e-02
1.274526249436923331e-01
1.862860863185067384e-01
1.555349668652730166e-01
2.155181688176216470e-01
1.747973975903999444e-01
2.501829396362533209e-01
2.771109635145950212e-01
3.614990205836694503e-01
3.764991203331647940e-01
5.303755479460593447e-01
4.847097975241713153e-01
6.372475904699007598e-01
7.009711057565765069e-01
7.557329083903324696e-01
8.182239525215098119e-01
9.385670332494276957e-01
1.017345921537727405e+00
9.891474490686951171e-01
1.042175088457890197e+00
1.051267227816393035e+00
1.050284181096095226e+00
1.103200278696717662e+00
1.086988095322091619e+00
1.008006391675954960e+00
1.034320982395051436e+00
9.823338859331112172e-01
8.996068847421121450e-01
8.340664855308953518e-01
7.979701779349266388e-01
7.616942544735435527e-01
6.526510162945640126e-01
5.924358972230792109e-01
4.751286637208165242e-01
4.228869468493423045e-01
3.939880540472594506e-01
2.813695756782830237e-01
2.810561563425508225e-01
2.488311125079958053e-01
1.984056942522987588e-01
1.807049457722417207e-01
1.499920225198905777e-01
1.117493786543970469e-01
8.165584692804871147e-02
1.046979616593562701e-01
1.401896095235818096e-01
1.281277562017579807e-01
8.558342842444544019e-02
8.528390854352790873e-02
8.481000728595208815e-02
8.765334163902341325e-02
1.131677299117655328e-01
1.406075065429312487e-01
1.816086217554031268e-01
9.403799905872053944e-02
1.439476173832536787e-01
1.463542070164209064e-01
1.259968994302334555e-01
1.109995280619877067e-01
1.559780956250039763e-01
2.172645182589815760e-01
1.676768367130263282e-01
1.418867980805295359e-01
1.666220446461339211e-01
1.428873209152689283e-01
1.832957076209792702e-01
2.087655850550851067e-01
1.728635826439414158e-01
1.011874463190624296e-01
2.121933136380511620e-01
1.936699340160661087e-01
1.908066092054148954e-01
1.949211160254432917e-01
2.338278808126560693e-01
2.134342664341496165e-01
2.571520884230887316e-01
2.610819206763121403e-01
2.273487785255030313e-01
2.224793928979539037e-01
2.442423620427327524e-01
2.380143417847259135e-01
1.914176678360336448e-01
3.026791324762039825e-01
2.675906387057395697e-01
2.327993190765614839e-01
1.893931564087065755e-01
2.412902557513051383e-01
2.285221152966989411e-01
2.434455159452147410e-01
1.790959444147570134e-01
2.282485328504325617e-01
2.281425999716427955e-01
2.324520982771300925e-01
2.285546539277576450e-01
2.343232747857096343e-01
2.752133556568803208e-01
2.106714748557287353e-01
1.950677559880201750e-01
1.666159283356743737e-01
1.989054139439410396e-01
1.677911432132382918e-01
2.340265100686890754e-01
1.975588680070037850e-01
2.236866460908988330e-01
2.343954561498766409e-01
1.592749010839582813e-01
1.695072087576200981e-01
2.144981375169102422e-01
1.747804204463115629e-01
1.792607042275943252e-01
1.890892976149515237e-01
1.794704083830068464e-01
1.593679745525919678e-01
1.834535904368260473e-01
1.340593963041442904e-01
1.462870490950067826e-01
1.200665128072326143e-01
1.507303905393691246e-01
9.392733954819813824e-02
5.940389202685715520e-02
1.245895318274127250e-01
6.951180556357668128e-02
6.184291167526186073e-02
1.288094942105680873e-01
1.154347197091055849e-01
7.190459473543858726e-02
-1.329815374672030370e-02
9.010530822567389131e-02
9.018439524547594566e-02
8.217523225723728786e-02
7.731957223742559615e-02
5.443699417406498015e-02
4.441042395765119194e-02
2.054545280366944920e-02
2.997245875087516456e-02
5.785889965249649269e-02
5.582533507391830574e-02
6.700536527351855232e-02
-1.112896631029612615e-03
-1.078497759845751733e-02
2.565045842147824912e-02
4.626551857033998905e-03
3.911679808640701472e-02
-7.322995251578302139e-03
6.593532290983045163e-02
4.535438279039759324e-03
7.575506481511093404e-02
4.258503181563144668e-02
-5.821423256180697364e-03
8.775079767488089266e-02
3.203327474981650796e-02
2.829800050619831614e-02
2.068145753226490607e-02
3.603188879848634452e-02
3.726499677949905720e-02
-4.914394580190639336e-03
1.422202347831859684e-02
2.375079801108914354e-02
3.746704273477378944e-02
3.773107320799200942e-02
2.447963720936219972e-02
2.881303036696005598e-03
1.232957213697365162e-03
-1.653429213882807655e-02
3.695610148518990029e-02
7.030086444670714807e-04
1.346934468319622817e-02
2.642860134986787721e-02
1.952291322944401178e-02
1.937953820265984201e-02
-7.423062141368282768e-03
2.800554231095987376e-02
1.080615904955641721e-02
1.788990388258500375e-02
5.555403394729735433e-02
3.635294705435751506e-02
4.496811163112516413e-03
1.763470810334220526e-02
7.062498956474122513e-02
1.402445320848027567e-02
2.511701012886996195e-02
4.459712931631311383e-02
3.196579053448700414e-02
1.525601042006075395e-02
5.170336481781674653e-03
2.831342224745474201e-02
4.962099944189667100e-02
7.090191727008331168e-02
-1.115067245885110678e-02
8.737923768116633017e-02
2.769002972707228921e-02
6.610443351280810564e-02
1.843115812280454041e-02
-5.381203518851233880e-03
6.139676579230726045e-03
3.838789469828075146e-02
6.703828160545269310e-02
5.546494374904639701e-02
5.045335280337720496e-02
9.515067694801968012e-02
6.553618907263568383e-02
7.795018921009702617e-02
1.671747229422553271e-01
7.808836200667437777e-02
6.212646997977863683e-02
1.022750503852433851e-01
1.148679789820648833e-01
1.070080323288501306e-01
1.079299347781823293e-01
1.530181907520092310e-01
1.546532637687294265e-01
1.158320721753697269e-01
1.054408321896258410e-01
1.429784082983927562e-01
1.159013855637983231e-01
1.670909707019463952e-01
1.582588751474434674e-01
2.304440646167960627e-01
1.991148189427006110e-01
1.268561971195831251e-01
1.476513473317766223e-01
1.094536028123351684e-01
1.060263336857209804e-01
1.764618581256471308e-01
1.397414427973930340e-01
2.267722357547982404e-01
2.138408239402319333e-01
1.720590624448020134e-01
1.709862642931059273e-01
2.255646948655237738e-01
2.321595040747868877e-01
1.520353754438169558e-01
1.470811666505511262e-01
1.684511941549865777e-01
1.887225058516215914e-01
1.585099889151462271e-01
1.855740235312353381e-01
2.287160714916912363e-01
1.265367236508532223e-01
1.544157483721557977e-01
1.261035616317003893e-01
1.437629171707355269e-01
1.628113416516466239e-01
1.547582149515359107e-01
1.997755064691979221e-01
1.995813810207677785e-01
2.188029172287462021e-01
2.199495635266837668e-01
2.471781857661396464e-01
2.732516381088623270e-01
3.125863277613348257e-01
3.752697012554881417e-01
3.540716244862441298e-01
4.756925793409445546e-01
5.019427773678646343e-01
5.836006169214851269e-01
6.162922243619090024e-01
7.238336462187754394e-01
8.146569031549577566e-01
8.899955519196799392e-01
9.067213558795227391e-01
1.014469504118445276e+00
1.088040654587028699e+00
1.080520708764774129e+00
1.125094240557059644e+00
1.079825029040225370e+00
1.118183298503909517e+00
1.142675374039317626e+00
1.139340400108506346e+00
1.056382955516582012e+00
1.107073087206331685e+00
9.797343292041660323e-01
8.681568840148377042e-01
8.758945892042505621e-01
7.276924507063853298e-01
7.023329630108445798e-01
5.929401558551613549e-01
5.112558666564251952e-01
5.162100985146312881e-01
4.201721539357238244e-01
4.263209440584382892e-01
2.969566163185322072e-01
2.401152535960222045e-01
2.382567108622183627e-01
3.111122872211624646e-01
2.267102772773429697e-01
2.005991826927801536e-01
1.882775698079719173e-01
1.466043291054197895e-01
2.367204372373815091e-01
1.649412983701050717e-01
1.606687033607572535e-01
1.795817074356898801e-01
1.135283580880345755e-01
1.281255682989247413e-01
1.507636500240469857e-01
1.921354662116551981e-01
1.282059008828149438e-01
1.702398693027480925e-01
1.713722435092053242e-01
1.359719903189307577e-01
1.736307075782748399e-01
2.109433213336827095e-01
1.559983289691542485e-01
2.486684731570801554e-01
2.261852989664554503e-01
2.282981902214994419e-01
2.238732585478491466e-01
1.964814638872385832e-01
2.152767725120112718e-01
2.510126890188900672e-01
2.258498076569962765e-01
2.561380473645938904e-01
2.284000176190284503e-01
2.735965584410318674e-01
2.803017052597614467e-01
2.199154150840960664e-01
2.747367532277981139e-01
2.307678254650490368e-01
2.240011878636338771e-01
2.651306674236441063e-01
3.696578445674701952e-01
3.114913166591481986e-01
3.321385407462899564e-01
3.104313031975063364e-01
2.997958314420878789e-01
3.215925015585646141e-01
2.762820182412850101e-01
3.099604188606452926e-01
3.311699511446043465e-01
3.164882981981574916e-01
3.320762212666269475e-01
2.992000620284201440e-01
3.430608190387259837e-01
2.842814432142706238e-01
3.519508175001110906e-01
3.031909611199257171e-01
2.717088098711547550e-01
2.447914883373154826e-01
2.525707362652886423e-01
2.443957842548395987e-01
2.666175140599864601e-01
2.269151563291293416e-01
2.995406751554252067e-01
2.594903179261901505e-01
2.534885650345894414e-01
2.114611113951194998e-01
2.182322026350241306e-01
1.694338803339638377e-01
2.792006275517850966e-01
1.826555799993465068e-01
1.793684974008095123e-01
2.563959170503695706e-01
2.199576475926589558e-01
2.062555704041829641e-01
2.071344066642122617e-01
2.198431367504261047e-01
1.885451342065705416e-01
1.336039081957095254e-01
1.963196043952643022e-01
1.814747743283453285e-01
1.985110240003395421e-01
1.205427426241642008e-01
1.308890142265085599e-01
1.593977733357750393e-01
1.142868909750596601e-01
6.715343677391796828e-02
1.389115221454769733e-01
1.552372623040246813e-01
1.200622169298542208e-01
1.360693279851973858e-01
1.275767299193824034e-01
1.117988281492537095e-01
1.117306410576913711e-01
1.444540870606110805e-01
7.154120709226062524e-02
1.203089062031473533e-01
5.849895310285791600e-02
6.704672556196750177e-02
1.238873108262124600e-01
4.898652007617884663e-02
7.545416090503077877e-02
1.511078756527438616e-01
1.087406925594597840e-01
5.370259327533653815e-02
5.681891768764593675e-02
6.679372893335297490e-02
1.094818024783365401e-01
3.841804057146688128e-02
3.505899348792310133e-02
8.688875519649873203e-02
1.372050893696212526e-02
3.558599093189983992e-02
5.922148925360332800e-02
5.970258329822903526e-02
1.880391849122883124e-02
6.945759309148402671e-02
7.463413249085147638e-02
3.739080152751725339e-02
1.063967515959707288e-01
6.613097378746410349e-02
2.522216915069553853e-02
1.034693040033327210e-01
3.867357565606401038e-02
5.931333594443199964e-02
3.896114259860339324e-02
7.194775732799951751e-02
3.847486806469788134e-02
4.002970782118708826e-02
4.762638712525117668e-02
3.717204556473629323e-02
8.422361381826580506e-02
1.420746642840569479e-02
5.073250204764993831e-02
5.447070255296124208e-02
4.802274478249939776e-02
8.082252120120886341e-02
6.705773037786369462e-03
6.895389323649288305e-02
1.470471561321355647e-02
3.697547015689232885e-02
1.204656830758329272e-02
4.281114697418746812e-02
3.578797086922418103e-02
1.027130581111515700e-01
6.131363723367791452e-02
6.785869853324727474e-02
2.212537900985791367e-02
7.833976059000612169e-02
1.061819551282706386e-01
8.415052419895353852e-02
1.984118129570202477e-02
4.656594573504306556e-02
6.518405948362024360e-02
4.621424478251633799e-02
1.412891733528993110e-01
5.278148127859387528e-02
6.808848108285502077e-02
5.371845317178823576e-02
8.121618484316422970e-02
1.184865064974156279e-01
8.342632307709227368e-02
7.659190073717488112e-02
5.434434288014661218e-02
1.264424097041261796e-01
8.969470239889593133e-02
9.243907585819999273e-02
3.210354873354281241e-02
1.028723228273464296e-01
9.924358604733546363e-02
6.123763081095932870e-02
1.505796581996980965e-01
1.098166375934947203e-01
1.878063438052138823e-01
1.784917636162073884e-01
1.196032068683850202e-01
1.874106196636579902e-01
1.997321835551610636e-01
1.396466350344491847e-01
1.303189875148847987e-01
1.013601953708557629e-01
1.819586473260538795e-01
1.456346967756645405e-01
1.911657996146452210e-01
1.655239532410289760e-01
1.625344712127742564e-01
1.720762402091571552e-01
1.525209932959781245e-01
1.768274913156660522e-01
1.733148152844677103e-01
1.962575908712361483e-01
2.006121793355918892e-01
1.656821868417294730e-01
2.307107457813253326e-01
1.923190875351163953e-01
2.411741943863393578e-01
2.019414206403338519e-01
1.950565188903999880e-01
1.762676767669316413e-01
2.072912575038900196e-01
1.876626146869435630e-01
2.103394102381017650e-01
2.309765661470807863e-01
1.598530610802338381e-01
1.997590964672373015e-01
1.998437269338212696e-01
1.986344447813860881e-01
1.766524651582049021e-01
1.847229516070220401e-01
1.903633080792140886e-01
2.044696632865212194e-01
2.166473517296161888e-01
2.631616328836473562e-01
2.737208607697586005e-01
3.458179524887615153e-01
3.771374161447876849e-01
4.296016587629066796e-01
4.716050923572138176e-01
5.427968185373370780e-01
5.989911588005244480e-01
6.990216371049511324e-01
7.335903219562177613e-01
8.295314270406182189e-01
8.486116569336393800e-01
9.746611113980403474e-01
9.957766580176065085e-01
1.036093920228337462e+00
1.069961545013268900e+00
1.096435706919101971e+00
1.134411365099672997e+00
1.196075101302052524e+00
1.120336554396423434e+00
1.048564797446816410e+00
1.088632275009022932e+00
9.960908254324399858e-01
9.966009586414019683e-01
8.949784972594512222e-01
8.298324429082982734e-01
8.015988337037818212e-01
7.111343191691470444e-01
5.833595337537627046e-01
5.188196828085358536e-01
4.336015368076877041e-01
5.058093175363920224e-01
3.484281435471255350e-01
3.623703205883989087e-01
2.707389215672042493e-01
2.200633371698848817e-01
2.248462184028990896e-01
1.916603073997518725e-01
2.077430023684298521e-01
1.947129652258240695e-01
1.429363059411120629e-01
1.109838226746450995e-01
1.144531392098969425e-01
8.023963863575453437e-02
1.405621054841746653e-01
1.499017027152356740e-01
1.185080461663928775e-01
1.182526619911626747e-01
1.596839863124087378e-01
1.456908328913120720e-01
1.631005277290837052e-01
1.635707728183310450e-01
1.873340377087963637e-01
1.683251909185561612e-01
1.761127385848470506e-01
1.398545892188756135e-01
2.003421013730704581e-01
2.100387020273566385e-01
2.075303639329463823e-01
2.756344033242506542e-01
2.284937785363772844e-01
2.241393481717272040e-01
2.489032609951643271e-01
3.022623355838856551e-01
2.512385810048818890e-01
1.815468964082642134e-01
2.656032908294844730e-01
2.304323754321646045e-01
2.030636324286001493e-01
3.153372400172554935e-01
3.122547359909261799e-01
2.437706762637209534e-01
2.467817873908455528e-01
2.810479794090428030e-01
2.518660432811704042e-01
2.762138228754527081e-01
2.603727131362090774e-01
2.709085303508292908e-01
2.415868987827590186e-01
3.089617523925268228e-01
3.203433289826640995e-01
2.809348843896607439e-01
2.822020275825780633e-01
3.011512998049831191e-01
2.809634930980077772e-01
3.310709552536125200e-01
2.376250717985733119e-01
3.005385447872850335e-01
2.685504198042102941e-01
2.352889864650691554e-01
3.329815972597343077e-01
3.334764240925908729e-01
2.517579701090933431e-01
2.671469085371599994e-01
2.352341823769951434e-01
2.353959697444845955e-01
2.058528382300930382e-01
1.963489695056513107e-01
2.848348687813343494e-01
2.229441768305944482e-01
2.200839013836204949e-01
1.885913081023178894e-01
2.128468531733396230e-01
1.561940944742588600e-01
1.721938589950837428e-01
1.534670943541844856e-01
2.222752659953911025e-01
1.279516251361300094e-01
1.361601085554641766e-01
1.041611177456980841e-01
1.329801937368999265e-01
1.400407698438759230e-01
1.773733890671857494e-01
1.356741507387164147e-01
1.244029818752247496e-01
1.402076500530209102e-01
1.125263991892936216e-01
1.928360668386839283e-01
9.766432481302209090e-02
1.227986724492731996e-01
1.303172562155855974e-01
8.221693449447395330e-02
1.012070223143834158e-01
7.681404011975585810e-02
9.581210391521803593e-02
8.653145748348670119e-02
7.536854262194986331e-02
4.114461183847268472e-02
1.281174821337342506e-01
8.635317511744983188e-02
1.781429185766444934e-02
4.972986679791058240e-02
1.227912504804388322e-02
7.939274886276265208e-02
5.319173001198498896e-02
5.142405831314332543e-02
2.362454948145703212e-02
3.715528520744048463e-02
6.809243236480244654e-02
7.412975484195041820e-02
6.594347425007882069e-02
-7.805030999406003395e-03
3.149358480018545764e-02
4.309638094740533831e-02
1.197133073126495709e-02
-1.714560055797533303e-02
-7.276097699394183660e-03
7.509681276930772753e-02
-6.781458914596527610e-03
2.932148692491135661e-02
2.220594939978217525e-02
2.134869992747234768e-02
1.549324875940084889e-02
4.794713302272178568e-02
2.457876091561020382e-02
4.028191503308976504e-03
2.367266549346853932e-02
-1.681515577519499677e-02
3.521016049738220910e-02
-3.684322447504440046e-05
1.189237050109929333e-03
3.481641047010714668e-02
6.775426460557910577e-03
8.068939348898488892e-03
5.326715752548133453e-02
-1.128410770482326381e-02
3.257139562505279029e-02
4.585001903313433436e-02
5.215339107655799639e-02
8.226410361718984599e-02
-2.431140204939556682e-03
-9.294642517222050440e-03
4.121992991392381400e-02
4.492488662840359026e-02
-6.930931716628299655e-03
3.147371586294318846e-02
9.886566625729426017e-02
2.056769118234636623e-02
4.550706115615898995e-02
6.557279207858238146e-02
9.395459177361416281e-02
2.689689739719700046e-02
5.792238085847401657e-02
-2.386308973576452275e-03
2.309386671688991310e-02
1.018475645961867092e-02
-3.158891296369483598e-02
-2.155476071441709413e-02
4.118362044658983867e-02
4.371002105016062039e-02
1.105589260910762317e-03
8.141652051119417643e-02
3.947226314041225176e-03
4.773195640664614631e-02
3.054199782076446462e-02
4.941163672776241467e-02
7.658041074370917911e-02
7.597921418479915145e-02
7.833566794896214269e-02
7.854430643532753220e-02
2.718240100711412366e-02
1.037967433512021337e-01
4.250156118826728391e-02
7.581107121943665705e-02
7.324306653203703499e-02
9.915985902539570240e-02
7.904147801450145394e-02
9.377646113664216132e-02
1.520351821004723991e-01
6.950205992400693145e-02
1.130925556566043100e-01
8.442818336061376494e-02
1.426081391056570336e-01
1.049032153315072047e-01
1.319524109983610527e-01
9.487443641544793249e-02
1.768700331044318619e-01
1.434750279827484154e-01
1.482191292861853305e-01
1.713527025510777069e-01
1.109094457382158172e-01
1.315287191359141017e-01
1.561512444483152129e-01
9.879419819912590994e-02
1.021513341966977240e-01
1.268263330881807260e-01
1.164608570346003097e-01
1.391794593903988575e-01
1.635893379009519255e-01
1.685045204326296731e-01
1.981265938221088985e-01
1.408436574028747723e-01
1.437998095340123905e-01
1.361994768231736541e-01
1.446642922849190882e-01
1.457028860598161835e-01
1.610029663761753660e-01
1.617321300746091817e-01
1.523024874484016078e-01
1.867454464600916131e-01
1.496968928451739844e-01
1.413364587063340450e-01
1.609970088642978803e-01
1.906181785605559897e-01
1.858437444551311046e-01
2.302493911865816367e-01
2.509050113424692308e-01
3.382638668970146534e-01
3.878200165946774081e-01
3.795631775535042718e-01
4.740384212082791593e-01
6.141579451632414033e-01
6.475147046305683718e-01
7.133918291432452818e-01
7.510586276393610428e-01
8.488611262805850766e-01
9.049175450375421814e-01
9.402166571606936918e-01
9.996274843788838238e-01
1.040298703531525870e+00
1.037890999783197321e+00
1.057951237058566196e+00
1.093142880492157687e+00
1.061424284743554880e+00
1.052292920720384606e+00
9.752906627308322030e-01
9.987405863410453444e-01
9.792378373728014562e-01
8.826876531664487047e-01
8.159197160682262195e-01
7.282162356540389236e-01
6.442244563071788388e-01
5.669908558231041562e-01
4.680704497846857048e-01
4.516413153249857482e-01
3.906321383651678580e-01
3.046099552489114903e-01
2.874517334547014302e-01
2.104887701981864312e-01
1.783448282153414222e-01
1.924210297082377674e-01
1.594957119582161575e-01
1.219724457356827774e-01
1.051919376013573104e-01
1.112932438766385396e-01
4.457325316940174281e-02
7.310775054916628102e-02
5.623237424991511801e-02
9.460582860623004131e-02
1.283362371613086805e-01
1.124855804069053722e-01
8.614197636155865312e-02
8.423306333370042531e-02
8.723244066012539322e-02
1.746065641504195853e-01
1.216870814654413546e-01
1.308486236392580326e-01
6.685880373854877212e-02
1.001805884409322500e-01
1.397412125773125624e-01
1.315894483087431954e-01
1.559763373128606467e-01
1.609890398955737545e-01
1.807492936428948260e-01
1.119173196166351886e-01
1.399843867795674823e-01
1.751744073983238226e-01
1.636149535826691703e-01
1.784364320761695766e-01
1.955378569708566272e-01
1.742374922787089941e-01
2.064503774743255138e-01
2.208597556473571588e-01
2.100952518797016555e-01
2.330964910462366702e-01
1.493326597060384564e-01
1.996869513314324662e-01
2.464734039755053507e-01
1.958854818096348871e-01
1.935940603754391920e-01
2.212461140741329990e-01
2.256043236850242273e-01
2.108184470119662257e-01
2.825435951561319214e-01
2.358470836215815769e-01
1.998197719719593257e-01
1.830133876650466562e-01
2.372988266916594702e-01
1.959113257114412643e-01
2.865138651842915607e-01
2.326563060591750332e-01
2.341641981194446387e-01
2.220464840783129834e-01
2.451384474552495973e-01
1.362331605209525232e-01
1.683077945864938640e-01
2.314666504312532236e-01
2.412361547799733441e-01
1.546923340699162541e-01
1.324966023993912889e-01
1.871761990911247897e-01
1.916162837739828206e-01
1.762056141039095580e-01
1.645711765307876218e-01
1.052449716583090389e-01
1.438746271083655714e-01
1.425749686962809459e-01
1.270535016384084226e-01
8.002753209212846996e-02
1.491793083363426309e-01
1.516340045242239309e-01
9.583941407422535974e-02
1.081276325096926783e-01
9.285390028345084923e-02
8.724166333315655497e-02
1.108047942080449544e-01
1.057516070751726711e-01
1.167799739561919820e-01
1.105539031725293192e-01
6.828631553349323591e-02
1.533232754650216967e-01
1.093024583209874084e-01
3.793553144503761937e-02
5.649258532215886697e-02
-1.171979264944484483e-02
4.398250559430445794e-02
8.884014628460223939e-02
1.176906069040305203e-01
2.639535885672154858e-02
3.602411333617363404e-02
4.024344984339178061e-02
7.774426567205539040e-02
-1.470496458713810642e-02
9.104157767099974041e-02
-1.385049529347363861e-03
-3.006994278592740877e-02
-7.361786478276965279e-03
-2.498020000096905224e-02
9.244379939223779097e-03
-5.540350407983832270e-02
-3.942313567472877089e-03
9.501731440317268129e-03
3.197113276834787077e-02
5.932119821487766287e-03
2.629935748604309009e-02
-3.624744892490480014e-02
-7.881110575172003974e-03
-8.810902145702906307e-02
-2.607834834961474113e-02
-1.238882957166249910e-02
-1.091818455405698524e-02
-7.361726975892522729e-02
-3.918046311738736243e-02
-3.600415420602168237e-02
-4.228918125375924486e-02
-8.536302000466074180e-03
-3.759882675585946021e-02
-2.886349311026431552e-02
-4.722651625101728645e-02
-1.236452202721172178e-03
4.009180036485052168e-04
-4.357569725670899091e-02
5.068602874925352136e-02
-5.829118645521629699e-02
-5.506952307759133136e-03
-6.464114082934201144e-02
-1.327198778608766616e-02
-1.592821267545231970e-02
-6.741039151028349607e-02
-4.122039014433491466e-02
1.852231206964287391e-02
-6.210889959106119518e-02
-2.575464911070129634e-02
-2.783553241581317866e-02
-3.921389171541818375e-02
-8.987731054127817698e-02
-1.303139154758200385e-02
-3.743263312949662858e-02
-4.495822742458271959e-03
-3.042183378268159544e-02
-3.513078155912037481e-02
-2.549876590451270741e-02
-6.582327014736157056e-02
1.111950213853105107e-02
-4.620769449986441429e-02
-4.502971069058853137e-02
5.532018470747905592e-03
-2.476709867662562140e-02
-3.808773229654460746e-02
-1.723268661627786955e-02
-9.356910878820248745e-03
-3.000198481549521540e-02
3.085973773960679067e-03
-6.064062583949279828e-02
-1.240968350231879541e-02
6.211192478719804178e-03
3.536808483572372042e-03
-7.945168404880470492e-02
-1.290165156261206814e-02
-4.218863811258155572e-02
3.636035252920091776e-02
-1.016389541762283827e-02
4.077439681582939457e-02
-2.680248588473858190e-02
2.579017565890381891e-02
1.884270720094935458e-02
1.062137702898831582e-01
6.344946333884049494e-02
6.645708320585004547e-02
9.888616156322191375e-02
5.162964139481642650e-02
4.521788719625612074e-02
4.687194681876079294e-02
6.813943771542543826e-02
-1.985563305101499532e-02
6.813892565319579209e-02
7.953358744166763583e-02
7.251621931366555862e-02
3.548965244107062794e-02
8.087325554051492948e-02
4.299982523820605751e-02
1.455237184054331279e-01
8.751784210566772304e-02
3.588444677920286929e-02
9.367381305393934765e-02
1.283919244368838530e-01
1.080163654543714602e-01
7.605735782260975020e-02
8.339797724488945407e-02
9.495187585284087239e-02
8.973395307768383677e-02
6.408416778318970497e-02
9.841038854812386716e-02
5.866846312261497082e-02
1.251437465690358741e-01
1.266460270370713959e-01
6.223434907480837608e-02
6.878795213968535993e-02
7.590022770817655973e-02
8.654759512944257271e-02
9.501086921450133116e-02
1.022886726077744390e-01
1.043932134961014085e-01
1.428314860869882019e-01
1.058047845101690032e-01
7.606420002309015327e-02
8.200545684550729353e-02
1.991280693645615663e-01
1.903512920777680750e-01
2.120246467070183716e-01
2.562401887125232425e-01
2.909194993448497302e-01
3.488596853116377461e-01
3.805853213933907409e-01
4.848885921420394984e-01
5.036169087823690882e-01
5.618052040323241458e-01
6.095592517183419101e-01
7.245240117499172072e-01
8.389819602082038141e-01
8.522858006696096833e-01
8.832517874031181604e-01
9.832151388099431566e-01
9.947910096037716476e-01
1.088479722096223457e+00
1.088929214578143956e+00
1.019569662567664681e+00
1.039763879523073919e+00
9.963619096593214763e-01
9.459874476019667355e-01
9.300873135022805771e-01
8.982515980858021276e-01
8.062161837036787571e-01
7.233486819178623906e-01
6.002084501285626095e-01
5.734774096256523013e-01
5.384638327782074185e-01
4.131556063100764176e-01
4.277749313235243434e-01
3.130525406297208213e-01
2.836803958995151032e-01
2.195949245850237208e-01
1.564425933175814520e-01
1.714022076201536793e-01
1.126649503505866012e-01
8.349862377872602215e-02
2.000083359658174492e-02
1.174735887068552032e-01
6.939432016271462889e-02
9.635477358475194598e-02
7.830799646704775241e-02
9.155820010378870610e-02
4.180590872619349002e-02
1.926968394973982424e-02
8.609090146495999851e-02
7.069623624040756449e-02
5.699994805848897228e-02
9.794073128962232921e-02
8.991953099743384137e-02
1.051144616847840829e-01
6.072661997245853982e-02
1.263031844164804185e-01
1.024903154637016311e-01
1.408707938324163245e-01
1.430771814863154856e-01
1.403054877416384794e-01
1.220272054433901576e-01
1.522272355498218988e-01
1.697560740638038301e-01
1.600192926624700862e-01
1.531523197771270106e-01
1.735395473409162004e-01
1.413559311685870790e-01
2.073041812727230981e-01
1.159831750874821543e-01
1.718018430373521310e-01
1.626838932146779104e-01
1.594734448414477368e-01
1.914227765669723191e-01
1.517838551827142002e-01
2.530882777586874188e-01
1.506378723396812058e-01
1.650110506972555791e-01
1.641940689256917996e-01
2.031939088249091196e-01
2.290014781828911827e-01
2.153177386263592785e-01
2.443223308225152268e-01
1.755879851647527690e-01
2.200602792171038047e-01
1.907243375888057479e-01
2.058458355370327009e-01
2.310823326970927738e-01
1.455224603362999525e-01
2.541466403264994178e-01
1.878502259825208520e-01
1.414748227559553262e-01
1.660401717150583045e-01
1.867446981341230328e-01
1.594445013069707151e-01
1.150868988621290417e-01
1.754555567405808869e-01
1.466841783934040855e-01
1.834300691220729362e-01
1.271951619212731699e-01
2.222533964806285012e-01
1.648054431610389836e-01
1.501366120684245742e-01
1.576288294741854112e-01
7.887730479648132065e-02
1.131056941452755482e-01
1.759199005078453670e-01
1.071818223253209745e-01
1.092174948309373173e-01
9.140150156065118825e-02
1.436209733561818469e-01
8.664764462878414564e-02
5.076023895859474444e-02
1.600512970796632850e-01
3.586504229622070050e-02
6.869418142887914747e-02
4.094523483356077298e-02
3.982990779442807661e-02
2.386806314136723922e-02
3.436444258015124154e-02
7.511133117948143312e-02
-1.631026588744945854e-02
7.387233228418961517e-02
6.414460593167214952e-02
4.235981413759524333e-02
2.662346082276483006e-02
2.704600469387238859e-02
5.751823974406369833e-02
-4.132651509471175350e-02
2.925979177779822887e-02
-1.838700851837073158e-02
2.548997567491462224e-02
-2.080997001430728507e-02
1.584387219667884872e-02
-5.462019563474642542e-02
-6.159226001579562459e-02
-1.670568391022601157e-02
2.740034883322015058e-02
-1.785813426810112237e-03
-4.071064585250486201e-03
3.925245789857395584e-03
-3.559660561696597475e-02
-7.047177208116511826e-03
-4.432277194767249295e-02
-3.780167938393350080e-02
-3.541621338654787898e-02
-4.732204620160143649e-02
-3.407432424508503865e-02
-4.077230985657619156e-02
-5.531941774883197827e-02
-3.917743156868466747e-02
-3.109205694646348037e-02
-6.946195913242131370e-02
-2.458807262928336401e-02
-5.250186834867905106e-02
-3.226303100776903299e-02
-5.862751124163163852e-02
-7.558503677844483071e-03
-1.074328548198148769e-02
-7.121345828574107695e-02
-2.424124908085273367e-02
3.180659564035265285e-03
-6.882807200499302391e-02
-6.658731811633393505e-02
-1.856507428041234697e-02
-7.989364538609358690e-02
-6.402905216719509407e-02
-7.113319560757441762e-02
-1.822231138615545976e-02
-6.133672527973653421e-02
-4.898119497843904380e-02
-6.273271441047692520e-02
-5.625940553268676814e-03
-6.561704604144812103e-02
-8.176995070619290373e-02
-8.260073550713134538e-02
-1.798615982043437825e-02
-1.535778140031087563e-02
-3.478838632216540994e-04
-7.503106621207948634e-02
-4.345507468038874166e-02
3.707159829015228836e-02
-4.394914621074044736e-02
-5.080899438322963868e-02
-3.344970516991735421e-02
-1.570953446558827349e-02
-1.486574753694211784e-02
-4.720629686212741982e-02
-4.468078992605388489e-02
-3.421556849252320454e-02
-4.524222246286657700e-02
-5.821677603807269563e-02
3.542279178488957903e-02
-2.846500723259969695e-02
-2.399880914536774504e-02
-2.008544883554510413e-02
-9.732447748874741705e-03
9.140781783105837721e-03
-1.422276495846114264e-02
3.776671156728210466e-02
2.558768843225346645e-02
6.200666762821459288e-03
-3.587085807867741727e-03
5.360577171796092333e-02
2.102529830484741596e-02
-6.414897383392716146e-03
6.661212219416345892e-02
1.941045070487239926e-02
7.255634849966700883e-02
-2.357405022484656415e-02
4.616674349056599375e-02
9.738454832260184935e-02
6.804899149758589227e-02
9.106249634809229776e-02
5.115978249660379368e-02
9.358562794859037748e-02
8.800289165050326212e-02
9.968737529415341858e-02
1.577870912204536735e-01
1.396567604395174411e-01
1.278451575285640129e-01
1.314157029865823667e-01
8.279255511846965454e-02
9.829547752846991282e-02
6.837616069926372164e-02
7.772967397283095381e-02
9.021924141653422935e-02
1.164726778676439950e-01
8.066697065159215974e-02
1.158682759776736015e-01
1.116305898527421292e-01
8.105448078039556581e-02
1.593565729431643541e-01
7.211435890595205289e-02
1.434846562590684216e-01
4.043471318493561950e-02
1.020427685204667173e-01
6.898414226872080779e-02
8.449551166056545881e-02
1.585754762269569462e-01
9.530187397128776772e-02
7.574941895056128138e-02
1.289245042575038191e-01
1.118245938294199493e-01
1.386159270874604277e-01
1.222862110151075044e-01
1.440496165743192225e-01
1.719226382060325131e-01
2.508376825968143264e-01
2.575959187336411826e-01
2.768774241476807396e-01
3.635085752677661985e-01
4.174926072171971092e-01
4.943046473022803533e-01
5.292382139699874921e-01
6.113023428359525280e-01
6.979730412068885226e-01
7.266298752866755528e-01
8.529110213034141186e-01
8.918726587884084900e-01
9.168515670197648904e-01
9.664951589776619167e-01
1.036139225694284960e+00
1.049979210788162032e+00
1.103398161915151388e+00
1.072760675113696438e+00
1.077346910933873803e+00
1.016479986909109012e+00
1.002734118090269355e+00
9.936343242771318307e-01
8.915384983137338848e-01
8.143335368203344915e-01
7.352573056606325208e-01
6.883574711262339108e-01
6.585396195465547109e-01
5.041786853831836668e-01
4.755327964559823983e-01
3.619933979749633268e-01
3.428943941693282094e-01
3.109545243034803064e-01
2.099264130245461213e-01
2.047186372056920556e-01
1.937883007250374157e-01
1.619462125947418174e-01
1.465661178652402086e-01
9.042719879510119352e-02
1.159179652358645618e-01
8.044391777800080634e-02
1.141977651320655457e-01
2.036156742116185248e-02
7.999321462213858369e-02
9.233094288264062643e-02
1.318624825996413674e-01
9.703841673224036790e-02
1.039403314744400120e-01
1.140251971399588865e-01
1.452822785853058463e-01
1.015040259054441202e-01
7.638867465640018783e-02
7.634367663047383901e-02
1.499251665745482132e-01
1.425902368372870266e-01
1.341369070550652021e-01
1.301846993018316856e-01
1.591128516732444043e-01
1.658553964043194828e-01
1.797672251390055875e-01
1.378322556926855069e-01
1.237736260293588603e-01
1.547779736227690162e-01
1.469816697258738425e-01
1.505910073596230248e-01
2.447467796268665841e-01
1.344148353703244203e-01
2.210627564036443671e-01
2.384876669817123651e-01
2.449507738645199384e-01
2.274203969401325520e-01
2.621902486370685237e-01
2.792838738195078663e-01
2.195909024660620545e-01
2.446338174188153192e-01
2.717013594285843103e-01
2.094441991191806074e-01
2.294817182756846430e-01
2.192252746254441664e-01
2.526411922474987026e-01
1.823193011358786864e-01
2.824491096790870404e-01
2.550904934918034606e-01
2.561416543750829611e-01
1.665551518625353056e-01
2.049112321574972917e-01
2.791468072621470786e-01
2.270926502901867705e-01
1.783494208877601239e-01
2.340618965958919384e-01
2.448274505570533499e-01
2.371478874750057586e-01
2.131667105902337322e-01
2.479622367488212298e-01
1.888083660242618755e-01
2.218186983620182851e-01
2.052053687119448078e-01
1.925106968647809780e-01
1.803099990818225751e-01
1.763957300118405291e-01
1.825606848961545681e-01
1.675860741879775517e-01
1.930384515026393466e-01
1.495683391411532226e-01
2.072396499090894406e-01
1.372735935129417439e-01
1.767762905492802350e-01
1.725453261058283727e-01
1.431110049278589424e-01
1.349515722941945772e-01
1.053359050573748207e-01
1.063058153877082107e-01
1.230949480848596289e-01
1.099139351364123440e-01
1.416218908952526778e-01
8.745860258028856360e-02
8.435666477502326566e-02
4.144318330581792803e-02
1.060294952823765680e-01
9.879772179291639034e-02
1.071359797645188294e-01
1.045988343016789751e-01
9.319029844703832777e-02
9.053865934609922617e-02
8.014998300902002881e-02
8.117444376058143007e-02
-4.417466942314108788e-04
1.855060249041197429e-02
1.053682118936089679e-02
8.358595515806423182e-02
1.919802699524908104e-02
2.136250987847307034e-02
3.776227054198854488e-02
-2.084368409294015418e-03
4.445139240243620865e-02
-3.292609930945246399e-02
-6.251336093398012980e-03
3.325820318751770283e-02
-1.160715906470285129e-02
6.308645731677339774e-02
2.409047686468167998e-02
5.536601455586577514e-02
3.095087156572604026e-02
1.876743908675353179e-02
-1.176219114781403702e-02
4.511072353141149655e-02
2.966298440379309606e-02
7.823627043807039605e-02
3.989807994206141795e-02
2.546382176674535924e-03
2.264228152759041601e-02
2.617948140003995700e-02
4.802033636267230565e-02
5.246068651463247495e-02
7.671540860852336594e-03
-2.415869649957713694e-02
-4.348518057483714144e-02
-2.218929004480661021e-02
-5.847141697698484200e-03
5.698479889738052029e-02
5.742633759156171719e-02
4.066883248723916766e-02
4.883422428789292030e-02
-9.206587689977977981e-03
-3.331687818770105031e-02
-1.789120280805078095e-02
-4.854253044028446207e-02
-2.068279970867083206e-02
-2.170605500290159057e-03
1.832116882874003372e-02
1.773909445615109298e-02
-6.611999993772007742e-03
3.159760522848956837e-02
-5.077045903036765673e-03
1.590456691817026397e-02
-1.706322507447198891e-02
4.960167912074500696e-02
1.835160782336025392e-02
3.896341414026781302e-02
-1.691959420749698795e-02
2.587071349449516361e-02
3.899326993409654024e-02
-3.818436352031107789e-02
5.961602444303738119e-02
-1.132498703716842275e-02
3.422274229223850467e-02
8.342823831844239924e-02
6.051891074621047750e-02
-1.056900379679288557e-02
3.123679542231027131e-02
7.622877403075023484e-02
1.757683831574559374e-02
3.434964771776692627e-02
3.679131411594630668e-02
6.902879589267980898e-02
9.536152748936797124e-03
7.836403452893789257e-02
4.504390239789991812e-02
6.774042229578140784e-02
6.588302575172025333e-02
9.535441831315023820e-02
8.163080116818866028e-02
1.305257539501079311e-01
1.221752694689383079e-01
7.391731851911306772e-02
1.440986598994729306e-01
1.181333759619588863e-01
1.190761249840719821e-01
1.448374606026919531e-01
9.351582073830240482e-02
8.863676962316520413e-02
1.359104219808988101e-01
1.219495920113469467e-01
2.071224796977523541e-01
1.265114477598901499e-01
1.548998933132655353e-01
1.633886939690424311e-01
1.981582064443216384e-01
1.345960287117287379e-01
1.188794469640834378e-01
2.114555601738299373e-01
1.739731029302654941e-01
1.973252241171831178e-01
1.997420102549710419e-01
2.054813142672656523e-01
1.633238619644954148e-01
1.548253248245346214e-01
1.136213765090477446e-01
1.425003854082949051e-01
1.727297775922247980e-01
1.480974986574036811e-01
1.330442046143643364e-01
1.669046893010099064e-01
2.039573408725876835e-01
1.606317611725661954e-01
1.275962493511653140e-01
1.999627259521812861e-01
1.400921273727886995e-01
2.109786280961966631e-01
1.642440531316097518e-01
1.835913283245998173e-01
2.391081257200895482e-01
1.675774313609165178e-01
1.971497390442535913e-01
2.446736411292299296e-01
2.818940053600485496e-01
4.031764105363953576e-01
3.415060403889856322e-01
3.796501046893180353e-01
4.474350302507044130e-01
5.447023529975119072e-01
6.192802359780215093e-01
6.533579991729113745e-01
7.469236744739560230e-01
8.761680345997070463e-01
8.881074205466454874e-01
9.614555516501144261e-01
1.066611026750879265e+00
1.038382189681685386e+00
1.075226483918608533e+00
1.110771194933609207e+00
1.122625018646857376e+00
1.083745960408120323e+00
1.128729658595699847e+00
1.104138448159550645e+00
1.052956375420733393e+00
1.016195703237295689e+00
9.579172496299176442e-01
8.453198270092319166e-01
8.235079301604464330e-01
7.592511812247522140e-01
6.219155369350749529e-01
6.426254302758730441e-01
4.937485363359538915e-01
4.332549596084622201e-01
4.154961721257086071e-01
3.736024641770553378e-01
3.354248335885086640e-01
2.899117595132774117e-01
2.247478850234793102e-01
2.167601284522242266e-01
1.825862706836353100e-01
1.807497891294707892e-01
1.652625535636400023e-01
1.393981961495748545e-01
1.385405618672484185e-01
9.034838395006292155e-02
1.698491705159989873e-01
1.545657111120751770e-01
7.844722881722128449e-02
1.744770975951673853e-01
1.529167308981570217e-01
1.308300946155367406e-01
1.330518129372645353e-01
1.483833175026095796e-01
1.465439737333024128e-01
1.562069248491823048e-01
2.368914183224410386e-01
2.028281416764584344e-01
2.586320494752087362e-01
2.101856798830219197e-01
2.266306250164475677e-01
1.886235938766908649e-01
2.157263407161047475e-01
2.239481230545946056e-01
2.505208599468176645e-01
2.358212465706868710e-01
2.530816886721681813e-01
2.570730008614759976e-01
2.433971095491112013e-01
2.449798330104636379e-01
2.415227914411846311e-01
2.982609182922147384e-01
2.606589483121033446e-01
2.832643023473365163e-01
2.720770787423427706e-01
3.117260237377185716e-01
2.229637399370212325e-01
2.941283478630422055e-01
2.494890603157542408e-01
3.006103858887648750e-01
2.858947927839661785e-01
