1.156579225501325858e+00
1.113471096695504148e+00
1.149950575009621501e+00
1.083325780394863935e+00
1.031770438771401732e+00
1.093412153628473327e+00
9.675455341424183953e-01
8.982075430592347809e-01
8.059837745828657418e-01
6.967847168361669397e-01
6.533752972789012015e-01
5.759223562411450725e-01
4.610968112614303172e-01
5.099799269234185362e-01
3.969597765960501956e-01
3.245260445780602243e-01
3.097163653902519354e-01
2.277367008755738220e-01
2.103044743988067844e-01
2.597037369913806071e-01
1.784624412355870771e-01
1.786229728598440758e-01
1.714324806810890722e-01
1.557037746928002786e-01
1.402354216823356037e-01
2.222930616790926295e-01
1.317162557817769253e-01
1.283703099156390526e-01
1.723345614032251449e-01
1.224169248322182491e-01
1.956535456114144866e-01
1.635693267320242617e-01
1.784548888967141811e-01
1.887237576017335994e-01
1.751548672861066858e-01
2.184408856431748758e-01
2.161858149188817246e-01
2.179632856088676296e-01
1.628369420595867367e-01
2.035931314644249257e-01
2.164650617456950199e-01
2.776267845843839455e-01
1.886872874276708800e-01
2.174716425208398918e-01
2.744518060481104249e-01
2.190858900891172467e-01
2.326018069939660426e-01
3.074537700601288059e-01
2.729107981281895245e-01
2.921619265527684584e-01
2.923500404967797062e-01
2.781856888223173674e-01
2.811487287624060416e-01
3.084540998807121515e-01
2.595980549908809554e-01
3.398717891740943853e-01
2.743521080751836760e-01
3.232581985700957450e-01
3.095935908707660444e-01
2.794986126351477473e-01
3.115751880094910220e-01
3.016818683217944441e-01
2.453177913772190133e-01
2.957466317878891804e-01
2.605872893011224045e-01
3.126115469310855599e-01
2.921200439331470555e-01
3.213134573370712288e-01
2.723638978423081891e-01
2.523263802318397864e-01
2.565217311510764597e-01
3.466947043085241709e-01
3.739358854809291532e-01
3.397835559495939739e-01
2.299354048023518615e-01
2.309589204938068963e-01
2.361900175693937010e-01
2.870090005777794495e-01
3.224442058484386919e-01
2.815760503579313179e-01
2.551736197526013883e-01
2.166206332014934677e-01
2.305213415266145482e-01
2.363617828468630999e-01
2.546888280691773643e-01
2.076562501503985969e-01
2.290152266617034305e-01
2.195340514362902617e-01
2.085620258638532787e-01
1.879445102373350218e-01
1.976961845614418345e-01
1.854688132563176717e-01
1.592033329168082711e-01
2.035565367083913002e-01
2.186869009212593362e-01
1.710520704553749605e-01
1.591594093210473293e-01
1.779924527262179978e-01
1.555884179872147888e-01
1.791594965826926178e-01
1.431862545247321594e-01
1.527624240615245432e-01
1.825045590173683674e-01
1.640001957962796963e-01
1.168846812149006847e-01
1.498069303593006496e-01
8.126226990406140716e-02
1.033592118750121525e-01
1.306463413832296694e-01
1.479448421671646363e-01
7.608063485447971730e-02
9.453557418209590502e-02
9.233538249188195934e-02
8.652281439166417676e-02
5.000014821089435180e-02
9.885444923455505295e-02
4.305701845566992092e-02
1.130936910368396109e-01
1.172267854049017510e-01
5.548393858763771974e-02
3.460110054734902296e-02
6.986662069063645508e-02
5.351240413692907871e-02
6.121105012906851578e-02
6.874829012755816204e-02
3.669715552716969198e-02
1.130780053061691270e-01
4.286596652663373502e-02
8.904673268251914187e-02
3.325417327471505424e-02
6.083489758570407441e-02
7.162078611250044524e-02
6.136683580492770934e-02
4.893028979285405505e-02
4.106894190702471692e-02
4.302152271791562926e-02
3.438867498276478030e-02
6.410080469559154004e-02
1.085584256280081872e-01
6.395147675822970834e-02
7.063601731620682000e-02
8.485469232221343194e-02
3.851263188077951038e-02
-2.400751694948147219e-03
5.153030329208906080e-02
7.682852598701048197e-02
1.112486207313773956e-01
2.131372935214481332e-02
8.351337752943174819e-02
5.816725434730446453e-02
3.850509422418758876e-02
1.863826267235110454e-02
3.236298430004201643e-02
6.695369632585509989e-02
8.632647230791945514e-02
-3.218309198432611068e-02
6.483131455890811523e-02
3.217642504752331323e-02
3.491554438840616115e-02
6.176867510332238742e-02
1.068734360362550706e-01
2.768803199788568564e-02
4.635563494583807426e-02
1.980389081197131418e-03
6.244230038937183952e-02
2.865492369327558853e-02
9.673262148781239245e-02
6.038883341210889155e-02
4.124675744746578859e-02
4.166134664382897118e-02
6.114425746904787740e-02
7.124064316094139149e-02
1.580705277686614979e-02
4.684470039563270322e-02
5.172764540292271868e-02
5.874510401573364293e-02
9.224674948997788060e-02
1.108352453352795530e-02
8.341443727096717331e-02
6.667559687842744554e-02
4.194678477718628840e-02
8.234694183859975203e-02
4.809299682192164777e-02
6.805229721959245304e-03
-4.007799569147754704e-02
2.838528858156282031e-02
5.068299786781554211e-02
7.448789259202820423e-02
8.978914492106489231e-02
6.687196051458299539e-02
3.526839123012714960e-02
6.933079599632641088e-02
7.759021669087433348e-02
1.398720982635888177e-01
1.082692780928834198e-01
4.589305557352509751e-02
9.035370062370771949e-02
1.251000110346605076e-01
1.094030495936109265e-01
6.477642454516327475e-02
1.428867441002208416e-01
1.341872336712435498e-01
1.235993170497972915e-01
1.091919414566428076e-01
1.688722408628106075e-01
8.912408729152333786e-02
1.019337523101803145e-01
1.314449003954789030e-01
1.673561590148963663e-01
1.219988839651004187e-01
1.510070669794722209e-01
1.612923461795602587e-01
1.857330944393195127e-01
1.707231366235621994e-01
1.740771060850830332e-01
1.639583224547649098e-01
2.202619690312419554e-01
2.094140189796872276e-01
2.099191371536217321e-01
1.689883760422012382e-01
1.776073647748337425e-01
2.074656678635752316e-01
1.752755066859202904e-01
1.643880835691393094e-01
1.997112717171788676e-01
1.503054117997979500e-01
1.814343815773984403e-01
2.124222395135965114e-01
1.878154502189290365e-01
1.498471412861328012e-01
1.934151441720038667e-01
1.595689206550430783e-01
2.019846911754167862e-01
1.918837190616835831e-01
1.675528619156842758e-01
1.586432878492957943e-01
1.611665011721271912e-01
2.727476352481258970e-01
1.382588589508992882e-01
1.703143036010593692e-01
2.771486699112497565e-01
2.970666929722017846e-01
3.136461964190822016e-01
2.818219303973292234e-01
4.030809597246624576e-01
4.094363501710380771e-01
4.940392706380962728e-01
5.730275682017940131e-01
6.445016053165504299e-01
6.816088280758353379e-01
8.131962889570183428e-01
8.723180317112745330e-01
8.900348453554530748e-01
9.707288344345772479e-01
1.021764996870378139e+00
1.093035475199948259e+00
1.153273648699777443e+00
1.105919650385019493e+00
1.115431083062569328e+00
1.149418147429439596e+00
1.200284383779480324e+00
1.138601273572219963e+00
1.138077630600224932e+00
1.034417353911569748e+00
9.530768457271207028e-01
8.603401193502645539e-01
8.133501752349836522e-01
7.447603285757935510e-01
6.154390184642792860e-01
5.894192009315246672e-01
5.188993026612478410e-01
4.794145660437409417e-01
4.174791991803741831e-01
3.745883614965567765e-01
2.691403385058865338e-01
2.432378213344013884e-01
2.709751354334843931e-01
2.074014640057468550e-01
2.181219924397611865e-01
1.709994486862203011e-01
1.677351419086471895e-01
1.686091136481698560e-01
1.298358443171957755e-01
1.229082780989365631e-01
1.210384663670505540e-01
1.393181374099117242e-01
1.604478611839418312e-01
1.336379651057132134e-01
1.839119594509202038e-01
2.057861856719045146e-01
1.314425081606881984e-01
1.982923590341637288e-01
1.671934440927132781e-01
1.844203080846389120e-01
1.743666227023718540e-01
2.204182871310262359e-01
1.997626280919686803e-01
1.844120564304649323e-01
1.878007183681763836e-01
1.697171970953225140e-01
1.939705897382418831e-01
2.530009964587819904e-01
2.540420450456502555e-01
2.073787127062511337e-01
1.985182738134143310e-01
2.647187521764098328e-01
2.535568774662879110e-01
1.857108634648922396e-01
3.354682114334812115e-01
2.532673311128229576e-01
3.075500402799415944e-01
2.650339932659505071e-01
2.316049207152487133e-01
2.713650720809321903e-01
2.239189677865348893e-01
2.662443543100354582e-01
2.391220974614138850e-01
2.670274823622830751e-01
2.816463839898151189e-01
2.837617210063310136e-01
2.314315273293724162e-01
2.558491539522317337e-01
2.155396944177750962e-01
2.926645472883231403e-01
2.790044948806429947e-01
2.361991391943087382e-01
3.117963563704059249e-01
2.814466367432021943e-01
2.617874490458453884e-01
2.479139594984776651e-01
2.398410095477724324e-01
2.318423555951906745e-01
2.870006286412360441e-01
2.560039697683695326e-01
2.120297872856767851e-01
2.778909504002179398e-01
2.315334069597762834e-01
2.017269668618940637e-01
2.834234333543614870e-01
1.860000657963544468e-01
1.886308070244246404e-01
2.077985187246529086e-01
2.117489460105949350e-01
1.736905075842102020e-01
1.240689522483058305e-01
1.854281172452978410e-01
1.470941205972271792e-01
1.616991726012915465e-01
1.421565842979646832e-01
1.279595810653576804e-01
1.465063634894930023e-01
1.296118929579071766e-01
1.175054612379590468e-01
1.658783073514281392e-01
1.013480517534949138e-01
1.180018115089880720e-01
1.189387001219092688e-01
6.394693577937790585e-02
7.586046230096185616e-02
1.030631435715326227e-01
9.693679328222506997e-02
7.074370105373298245e-02
8.889913154454920363e-02
9.315618585291922382e-02
9.833239804671327355e-02
9.648204598746486227e-02
1.086830904164128586e-01
7.172335893483564040e-02
2.307040103317496704e-02
5.227224868844605743e-02
1.963749122602471281e-02
7.978284414782568779e-02
9.250246220771848882e-02
4.815471655151173924e-02
8.038656843938048191e-02
7.566024255359461714e-02
4.941468262298240322e-02
5.370556048036408126e-02
6.410016046461516903e-02
-8.381225468779548993e-03
3.891642162592750392e-02
4.620456729854019451e-02
-1.524069320071836688e-02
8.348027590288870092e-02
5.731041835278908453e-02
5.607426500706171740e-02
3.392928719016218009e-02
-8.098756607640568428e-03
-1.891777871094441066e-02
1.501457757531096844e-02
3.782269965929131034e-02
3.218713848424922808e-02
6.627683071400726489e-02
4.765271451695458557e-03
2.457312472937550792e-03
1.271364880842819518e-02
-2.293548276346228307e-02
5.612066526020154100e-02
2.916961463326922001e-03
1.740717844428178035e-02
3.366557493884225760e-02
-1.388499454447726655e-02
1.650262119979158115e-02
7.464891867833257921e-03
3.649519975081173817e-02
7.047359008508531988e-03
-7.932962754801094196e-02
-2.205489938012204082e-02
-3.939450082214604465e-02
6.304981759354806592e-02
4.732289349990564942e-02
-5.995953426598589486e-02
-2.608372473999565760e-02
-3.762117367486293024e-02
1.012793916190511331e-02
-2.532074624220309947e-02
-4.872966274743850343e-03
-3.847441195079821796e-02
1.551608020205758227e-02
-4.798987078923051819e-02
7.728045678720334155e-02
4.713768184120665367e-02
7.629926899905967175e-02
1.990700552368545456e-02
4.831921315061407651e-02
2.831856836347198744e-02
-2.863843889511862723e-02
-9.670902225724097717e-03
1.426435784657383021e-02
3.620633136142718117e-02
1.595690038157233535e-03
1.864907126805792278e-02
-7.679779867122527720e-03
-9.704184886488333509e-03
-4.102281806112675899e-02
1.695646373890062272e-02
-1.043130923065795947e-02
-3.343882299578652961e-02
-1.177971920569861539e-02
1.560297783394641244e-02
2.827049417674904960e-02
4.034222359766778503e-03
4.312123478789127440e-02
5.746824190602448784e-02
6.029673883426899493e-03
4.591072205876225998e-02
-1.054146855686513562e-03
-1.756513559043519634e-02
-4.205869877083427688e-03
1.109455823919697735e-03
1.704151847787544957e-02
9.298673228884184183e-02
2.137158069214609157e-02
2.955644480438955959e-02
4.942947433122593659e-02
9.362263658770301339e-03
5.769910605092075373e-02
7.752176624030854279e-02
1.069375337889953703e-01
1.066321494255310642e-01
8.295920759795250010e-02
7.027869856103580171e-02
7.696087188866007622e-02
9.910078452746555466e-02
9.039095986450715325e-02
9.391188661254026848e-02
7.333457895314392239e-02
1.260813067761198392e-01
1.193001558032554810e-01
9.186275250238062906e-02
1.631459156266082677e-01
1.283594672762783939e-01
8.267863126707769572e-02
1.566842829696059869e-01
1.107034667542010770e-01
1.207194902400705178e-01
1.290994229041719787e-01
1.618448310468761087e-01
1.349945053860655553e-01
1.555879393277395106e-01
8.967628803207310095e-02
1.031780313741351152e-01
1.362005657064617459e-01
1.120535350580504075e-01
1.258979956296996106e-01
1.523458843902474324e-01
1.036261386587434136e-01
1.033419528613814808e-01
1.264563975746461899e-01
5.741118512091239467e-02
1.499773786784310836e-01
1.230104482703195667e-01
1.224152385403027427e-01
1.055404579614976496e-01
1.465518129116991641e-01
1.278072278033312303e-01
1.794143906289620005e-01
1.051330728912496237e-01
1.766916141604350787e-01
1.995380207648835835e-01
2.367962293425713016e-01
3.049522237424562854e-01
2.638235574459859567e-01
3.114131099525104251e-01
3.976333572140601791e-01
4.124274395812874139e-01
6.045820240218645614e-01
6.336292232527602764e-01
6.939561529147265651e-01
7.755130649553523270e-01
8.624778600133110595e-01
8.747547014317893499e-01
9.454697057185901254e-01
1.021722870623271273e+00
1.041500926784850733e+00
1.062263581656893052e+00
1.094630521240372856e+00
1.128522164950659823e+00
1.136804266533818497e+00
1.049828959769778303e+00
1.047666879107163274e+00
1.005362004666724873e+00
9.088148705989483878e-01
8.994988026965241579e-01
8.124682469808255370e-01
7.135850908365301004e-01
6.519564837763153209e-01
6.078449645185534100e-01
5.489677664761846154e-01
4.616523742158794574e-01
4.456379197189857533e-01
3.648833053256920200e-01
2.973921179028420902e-01
2.158446484298380263e-01
2.335038826287681446e-01
1.454312224307297008e-01
1.656484784669614019e-01
4.996428379840216205e-02
9.319177646367207690e-02
5.485214054439586928e-02
8.042457512920228591e-02
3.794574311879343742e-02
8.245068635462016182e-02
9.498978310094180477e-02
6.237894960606731737e-02
7.437976172288224275e-02
9.359000103877194998e-02
8.932628550673056556e-02
1.354470742041781750e-01
7.911884389754747504e-02
1.207634988778037571e-01
1.176319210078624056e-01
6.748936036219732593e-02
1.231935595953701501e-01
1.234490348879709182e-01
1.167847916858380519e-01
1.902809769376007099e-01
1.810624986975153949e-01
1.250382069111492522e-01
1.723025766576802009e-01
1.807858861676905904e-01
1.679522472381685949e-01
1.355989734791674395e-01
1.447784205546748526e-01
1.938138647055032693e-01
1.976142227120627481e-01
1.780639468641180279e-01
2.300820255291852467e-01
2.391457809956286373e-01
2.422609551364884317e-01
2.455777597514477162e-01
2.034215346878207875e-01
1.664389884386956453e-01
1.990815357294449250e-01
2.072489893648074843e-01
1.934034103796224979e-01
2.021267466095357512e-01
1.797912472671667483e-01
2.364352780840868196e-01
2.640379799343741118e-01
2.864741540779309759e-01
2.219250118318520926e-01
2.084333167780871021e-01
2.112197213474148461e-01
2.515585291597250972e-01
2.490999808515549918e-01
1.992633828579677413e-01
2.399650106065738808e-01
2.057715431610784296e-01
1.756114603151679998e-01
1.894980948522741737e-01
2.414084828090685975e-01
2.078802253330991057e-01
1.666903423653298688e-01
2.054438418706068248e-01
1.939566302964059741e-01
1.582574720498016729e-01
1.399955977202321789e-01
1.237327938732855626e-01
1.022781019066095337e-01
1.263911583318527154e-01
1.349972335792133937e-01
1.723568820707802318e-01
1.534385034470615861e-01
1.287162151379601660e-01
6.068779402155158320e-02
1.198290858350470334e-01
5.568147754881336980e-02
1.253357333105947491e-01
1.203156105232833228e-01
8.898156955364502907e-02
1.062085089893300693e-01
1.064561637708533459e-01
7.373458604611682343e-02
6.062016896394566839e-02
1.973591818224525868e-02
4.369894873662302781e-02
1.933554860143894827e-02
1.405284667041184488e-02
1.742752982015223495e-02
-2.411952330282260415e-02
5.957173873464793878e-02
3.238275223868428143e-02
5.642003221833476190e-02
4.159486333594932667e-02
2.860683397064183592e-02
3.373593098905131038e-02
1.086408322357206024e-02
4.208374454878886090e-02
-1.560888568991444791e-02
-4.010524331277021126e-03
-1.471723184101653148e-02
5.138686984769817723e-02
-3.071471326490977233e-02
2.438281401977628049e-02
-5.750007368513335160e-02
-1.580539054077481978e-02
-2.634436483605776327e-02
-5.347946764616400006e-02
-4.462222243051505721e-02
-1.131563165060279347e-02
-3.810963364694108790e-02
-5.847325057725922398e-02
-3.986057333253051338e-03
-3.286078934085676778e-02
-2.350409795852503869e-02
-1.774949177786644405e-03
1.075489942884710198e-02
-1.051749689044907260e-01
-4.071781276053137999e-02
-8.863772468895392276e-02
4.267876249843488567e-02
-3.529497793530862737e-02
-1.128287888482901180e-02
-5.990056201268428859e-02
-5.231295658920154940e-02
-9.188172284958238956e-03
-2.719501755781660729e-02
7.242063348244058563e-03
-6.852856492897696494e-02
-5.041383529277772280e-02
-2.882422125375013258e-02
-2.456674947360951503e-02
-3.225296498066955453e-02
-8.479578086089176181e-02
-7.363082697464706783e-02
-3.533285878993160101e-02
-9.209220315300740978e-02
-7.256696349288289938e-02
-4.504351902871546465e-02
-6.960739605743136715e-02
-3.959238323889806982e-02
-4.929041554391756785e-02
-7.036381467311431104e-02
-6.975513726641571766e-02
-8.569641738959889177e-03
-3.545261498038902725e-02
-3.960946678928943532e-02
-4.541783381310324219e-02
-7.430076411949963766e-02
-6.400129920020695973e-02
-1.190595048268659611e-01
-6.607322448745756027e-02
-6.547743287274268575e-02
-3.030436538722743392e-02
-6.469245512544546939e-02
-2.281399144895827208e-02
-5.392624424214229745e-02
-4.136666548138340227e-02
-4.638526106541812632e-02
-2.401448538211168118e-02
-8.304057789210603224e-03
-7.349833259596053048e-02
9.590280750658763953e-03
-6.809792360514405063e-02
-4.701291514709211861e-02
-5.632141288964225001e-02
5.943473518694709912e-03
-6.980853887219337639e-02
-1.499641301514472586e-02
-1.011504692516816406e-01
-8.687697471965231955e-03
-3.686211962325400271e-02
-4.018657861236395179e-02
-4.733167529990682521e-02
-2.599998578924329201e-02
-3.185983115721187364e-02
-6.293005621867446553e-02
-3.852211104810377568e-02
1.242315687531755919e-02
-1.994456654265330808e-02
-2.770379077263022266e-02
1.494084464256840994e-03
1.903980852544414487e-02
2.835401096107075664e-02
2.362451610643296479e-02
5.454620101102518326e-02
2.467308287444166387e-02
2.114193203717360664e-02
5.953557013341606585e-02
1.723400919968744172e-02
3.154099186659228143e-02
1.035220534334760356e-03
1.083553220127583538e-01
1.215241773651299650e-01
5.860970824282646374e-02
9.149859815360156245e-02
9.411342564313110448e-02
8.310076262096494082e-02
1.178983661887086087e-01
4.719226494949851913e-02
8.294976978682622182e-02
2.887200478213505783e-02
6.372725157346595393e-02
4.744277517564998714e-02
4.278945434670342052e-02
8.431566918670978239e-02
1.109126097747392126e-01
8.033111296578529514e-02
8.379948209914350743e-02
7.753225505274889684e-02
1.027929199384187420e-01
7.907916274268189660e-02
6.533654317195100591e-02
1.215843499233040803e-01
6.539260175138741915e-02
5.135588816880287677e-02
1.098278708623409705e-01
3.562241241535628322e-02
1.221740089312949862e-01
5.464495936576060225e-02
8.932124957405673804e-02
6.038017300731769038e-02
9.623361766610138979e-02
8.874323841380502009e-02
8.694828578822691445e-02
8.453803460690480220e-02
1.374682947174964420e-01
1.944228130537580257e-01
2.328516014182383520e-01
2.298850321504241623e-01
2.753722092407761002e-01
3.436229341311891061e-01
4.071650634178991535e-01
4.709507609284137586e-01
5.266420399562964372e-01
6.006702446230407499e-01
6.767194757709005248e-01
6.863798432183381149e-01
8.178268124942577044e-01
9.200292853619459477e-01
9.980899229478749080e-01
1.042332231490355587e+00
1.049611779771808528e+00
1.038693798576903582e+00
1.071868596588935629e+00
1.065298351720600945e+00
1.031633548879627771e+00
1.017831479394744942e+00
9.839156445007840590e-01
9.126427415799575060e-01
9.220646575325429639e-01
8.449648539444374329e-01
7.530922074568308089e-01
6.914108786559097775e-01
6.141897488898495627e-01
5.096617707149998511e-01
5.155538926273538491e-01
3.730549317053258873e-01
2.862057544913758078e-01
2.874739703137066948e-01
2.525405580804814809e-01
1.861708095526608542e-01
1.986310787794695887e-01
1.388487536879097484e-01
8.652509298017790895e-02
7.603799263126673202e-02
8.539032540580421271e-02
7.418285514694440697e-02
1.021710512128895798e-01
8.743182815638839145e-02
1.411165406804910233e-02
5.654423725178987781e-02
2.613669783319099577e-02
1.100544634239746522e-01
4.077871054285546470e-02
8.035226559246771982e-02
5.812676523992054561e-02
2.482327220042788302e-02
5.189084993560200143e-02
8.761799523722818561e-02
1.178289214658844453e-01
1.224494277663656788e-01
7.238448692808954754e-02
1.274997443215674375e-01
1.523687620116082608e-01
1.449860512260302270e-01
1.244162919046510885e-01
1.422841681730395158e-01
1.508793502353663607e-01
1.935523286297183010e-01
2.078670658644469205e-01
1.811909956106924902e-01
1.682767871706885854e-01
1.703663001159613222e-01
1.778777916960108951e-01
1.860209012315647281e-01
1.682753744574702337e-01
2.464377335096655242e-01
1.669796838201446088e-01
2.326482446078680377e-01
1.305762026826514932e-01
1.906594216202293079e-01
1.908290962892588705e-01
2.095874188699503593e-01
1.931791477444356198e-01
2.467174911883462107e-01
1.985385284855109012e-01
1.752386033022800826e-01
1.770863528495724148e-01
1.914641590668682558e-01
2.266112349312318364e-01
2.309204513294017547e-01
1.662112201104651299e-01
1.764590367351147049e-01
1.663445876629181808e-01
1.872717188599233862e-01
2.219058311020183361e-01
1.950987915730644784e-01
2.030825660189412019e-01
2.053341473578398080e-01
1.614159719539119409e-01
1.364406168144333131e-01
1.528734326192744408e-01
1.905540505874991630e-01
1.792292426189932841e-01
1.585760950015180359e-01
1.795778574024770591e-01
1.502568572168851702e-01
1.305951437945762628e-01
8.805511786334310753e-02
1.677517398135759952e-01
1.211668626041372543e-01
1.049046505287034581e-01
1.097436031411270496e-01
1.521593950326808331e-01
1.313627571232443836e-01
8.519836152225623849e-02
1.045503902976388511e-01
1.217880997650105934e-01
8.998788999294332625e-02
7.786094690031244991e-02
6.300567446270742555e-03
1.012595881366953054e-01
2.803124638583721212e-02
-2.121184340895990172e-03
-4.875935996018376795e-03
1.899274371363184749e-02
5.476393955569122673e-02
7.069395945137470216e-02
4.196964732712860080e-02
7.978852584872450637e-02
1.179252912193183567e-02
1.325036134595752868e-02
-3.930189440369696863e-02
-3.922157737932939481e-03
-5.109572535209482708e-02
-3.311280697753143931e-02
2.317517838298528005e-02
-4.905180810772823141e-02
-4.864295391907517974e-02
-5.613887461707164211e-02
1.762521585062096219e-02
4.138239533890427507e-02
-1.200761417399659123e-02
1.667339691432681570e-02
-4.825410775640379124e-02
2.196931199837263982e-02
-3.787472801634511610e-02
2.259801433653500780e-03
-1.983928841562199868e-02
-7.771363640505393744e-02
-4.778334394625798065e-02
-1.705688414473496839e-02
-7.855263423183991844e-02
-1.495709226388985957e-02
-6.705450776595661688e-02
-8.986815550082231929e-03
-6.659415701677355581e-02
-1.298700768238073705e-02
-2.230441768763836985e-03
-3.216083509217598779e-02
-2.986083918484428584e-02
1.681966597913307077e-02
-5.148777664178583180e-02
-4.422193704275089593e-02
-9.139793037295125544e-03
-1.581918297181289165e-02
-3.587012077771028346e-02
-6.510239164371396658e-02
5.186532046150445219e-04
-6.584915578596370334e-02
3.965378019139029903e-02
-6.452593985446489211e-02
-6.176434731884076351e-02
-1.828335683793105848e-02
-1.197303561187663262e-02
-5.755998705418088196e-02
2.255285413163399255e-02
-1.819196017487877820e-02
-3.537034955467960318e-02
-1.618799430933989467e-02
8.731653968622413858e-03
2.088237537917641759e-02
-2.139923149382414597e-02
-6.518215058318352351e-02
-6.447194276492360099e-02
-6.890334334509538861e-02
-4.544880908093439781e-02
-2.473551801744994921e-02
-1.912092840235060653e-02
8.619524976511000469e-03
-8.699030611997503326e-02
-2.468630614868000048e-02
-1.007208730430374059e-02
-1.076235514498863483e-01
-9.213121578916409066e-03
5.970446371973558986e-02
1.688714432862215703e-03
-1.151804152634544436e-02
-2.812546962716882745e-02
-1.200851674228266969e-02
2.814389374560569840e-02
-2.724370693719310385e-02
2.021088817310165431e-02
-3.014459317050542653e-04
3.608053883691318686e-02
2.160945432902401653e-02
-3.563259774326643647e-03
-3.517071351045879951e-03
-1.450933552141150246e-02
2.654106840216326202e-02
-1.793283678092305947e-02
5.928657272800355593e-03
-3.341821968642980090e-04
-3.160211823849489593e-02
1.863068075014872801e-02
-3.013903734367456150e-02
5.996205311617999745e-03
4.349305493676382250e-02
3.279241886739585332e-02
3.676214238982756372e-02
1.087145418290590485e-02
7.309566456570515403e-02
2.002234512934367508e-02
7.291589400202957982e-02
9.592776259092353208e-02
1.637536121530432445e-02
5.549221166825100970e-02
5.816345219962599372e-02
8.673350650780686788e-02
5.564153313121894540e-02
5.431043107564137440e-02
9.288661281882321097e-02
8.273701141872864817e-02
1.000846921828750097e-01
1.359154003577995595e-01
6.502431469247685336e-02
1.142495386217607378e-01
1.037205551953544469e-01
1.255853599315771008e-01
1.103011200181243795e-01
9.512663627200640404e-02
1.445085146040848700e-01
2.175922929261582262e-01
1.327011680919158998e-01
1.147368360251635466e-01
1.149833002889264072e-01
1.647852346433455184e-01
1.098891013230206548e-01
1.742437863472403037e-01
8.485987738695498217e-02
1.381622125175592797e-01
1.505309599817980237e-01
1.516690559212158507e-01
1.478076672956887827e-01
1.335342322182222208e-01
1.591841630343130143e-01
9.467252967773442940e-02
1.060574955968023453e-01
1.158425250100129783e-01
1.770469013285249082e-01
1.537360693471742090e-01
1.706176976204195894e-01
1.590359896217345692e-01
2.076551779794890695e-01
1.604626908075690306e-01
2.243381368318453084e-01
2.658527346747983078e-01
3.004204049113494701e-01
3.539052792970528993e-01
4.353092389480124891e-01
4.874259798558422951e-01
5.826768515945761617e-01
5.549477018227657599e-01
7.354486223815784873e-01
7.453796039452308397e-01
8.771859606096317208e-01
8.945760790809873519e-01
9.818765910405183872e-01
9.942559947955227351e-01
1.035893162139963630e+00
1.123939774685890125e+00
1.047693429518960606e+00
1.098405871390420563e+00
1.150942572344222814e+00
1.094685693212593902e+00
1.046723090863671990e+00
1.073138348010607146e+00
1.027851086001130509e+00
9.077105745987925634e-01
8.761021580674247522e-01
8.099720197570655644e-01
6.891332854587054468e-01
6.000635203061877032e-01
5.463564864023139345e-01
4.322927465077668341e-01
4.303397063175397608e-01
3.467579937835007509e-01
3.081333920737740484e-01
2.641406375741238155e-01
2.004651767461027578e-01
1.941103513812957593e-01
1.295383982056103889e-01
1.362785549273831665e-01
1.024679258954910577e-01
9.875292925259886168e-02
4.996729015468422130e-02
1.003481027315533264e-01
1.256940366642067264e-01
1.162797854219030647e-01
1.448068441618789171e-01
8.625054090243339244e-02
1.039413287525153828e-01
1.499981812982677520e-01
1.246060253204137047e-01
1.378754721404857886e-01
2.011681613245780154e-01
1.357466534816594850e-01
1.346267658405248813e-01
1.252368298868936913e-01
1.522804005839145658e-01
1.975620757386802040e-01
1.900608545158410378e-01
2.217416627845083255e-01
1.954435219814690261e-01
1.231678142031293333e-01
2.149395963780130203e-01
2.047482362035049908e-01
2.070847604070567560e-01
2.488330749910725725e-01
2.091288262332151038e-01
2.396255712652192449e-01
1.945931076790974601e-01
1.857740277473328150e-01
2.175344968616652608e-01
2.299988553729592766e-01
2.594798453631974033e-01
2.134499691361281815e-01
2.946090643801622666e-01
2.231393739471162763e-01
2.518403344118115839e-01
2.568708919790422818e-01
2.671903408890618503e-01
2.730740145976736644e-01
3.283925925135299240e-01
2.430696644333575074e-01
2.707867020706021810e-01
2.587911384377842849e-01
2.903169108963259970e-01
2.734692384827087652e-01
2.654159623678165048e-01
2.124812149585775523e-01
2.418347679549416318e-01
2.239332253153070995e-01
2.372967866042821894e-01
2.231082259320905370e-01
2.292163452556467973e-01
2.290268433637492052e-01
2.258780490287975729e-01
2.249333688712670809e-01
2.017610828218475150e-01
2.263379760013581876e-01
1.935955981398766457e-01
1.979305766701033864e-01
2.094722644432237268e-01
1.284686763788394637e-01
2.754767813882919580e-01
2.111815565325548816e-01
1.996558269173964728e-01
1.689601197983170433e-01
1.819396819500254392e-01
1.372980194403091714e-01
1.827614852148330415e-01
1.120043557179024873e-01
1.189341177686669970e-01
1.302206261448222713e-01
1.913832038960696091e-01
1.076612418354108563e-01
1.454357760762071128e-01
6.833828100638601744e-02
1.258635561249623613e-01
1.721820206376760143e-01
1.302614240311196214e-01
4.831628251718013412e-02
1.072045950130424141e-01
8.751091462042376312e-02
1.339018796666950895e-01
8.993623904662691182e-02
4.572358652066095541e-02
8.098119678206464056e-02
6.048945356497953396e-02
1.303334511414437277e-02
6.923835899537929273e-02
7.138638937178704014e-02
7.963939465454725197e-02
9.582995759610743458e-02
5.414363746150537005e-02
1.494275654257204780e-02
3.244541083282671823e-02
5.469948769090044599e-02
8.956946571204962848e-02
5.122491099540730369e-02
4.526807154033687941e-02
4.039908784189444324e-02
4.562745341459969323e-02
1.016879890237678274e-01
4.045942054901693896e-02
3.380857736922806417e-02
4.169364480040283621e-02
1.918406403101291513e-02
-8.341806011408336302e-03
-1.459178816848738514e-02
1.500000745895960219e-02
7.151442323236481546e-02
7.043851649245864988e-02
1.363949984306729590e-03
2.958141120097145318e-02
3.781549153122638895e-02
1.172162899694539212e-02
7.238254486338736859e-02
5.568403432033606354e-02
4.339523990032005674e-02
3.441291528270331440e-02
-1.470668140447044248e-02
7.275498392657014923e-02
4.935585196391266416e-02
4.414268438587160698e-02
9.678253868515122177e-03
1.225746406061515789e-02
4.663067106570775028e-02
6.488259745483451746e-02
8.360150834903291861e-02
9.854073701111128875e-03
2.722415028784296032e-02
-3.074868281754197102e-02
-4.164706630353252198e-02
4.803743246718469861e-02
6.839051937774977968e-03
-2.661341609977197625e-02
-2.147366208365371343e-03
4.319732729092380652e-02
4.461429780870895812e-02
-1.582208386836980729e-02
7.060174221971318720e-02
1.286819440193515476e-02
4.223447997290427636e-02
3.538409248574275051e-02
3.419909792321934594e-02
6.753577374160230767e-03
3.447671326000677910e-02
4.366422427207294205e-02
3.001723905961106373e-02
3.947951664528448479e-02
7.000820890628745019e-02
2.337071360882801707e-02
5.772307885927858984e-02
3.249029232290014807e-02
8.229318790100653702e-02
-1.785974074774848708e-03
8.043484939022450819e-02
2.639882309293853715e-02
1.068389406172057798e-01
5.780060064434737466e-02
7.163651386420373524e-02
4.282867550586278577e-02
6.975564146058732540e-02
7.158237470931158586e-02
4.891064356860039264e-02
7.830267699743864718e-02
-4.307220895035102082e-02
4.100779820353452759e-02
6.375674157370772588e-02
8.116448669209773426e-02
9.847570380998707518e-02
6.515895874618694850e-02
6.466843342363755298e-02
1.063852489290148251e-01
1.188552255275500402e-01
1.107787807987947321e-01
8.846123088691390524e-02
1.741621427514629117e-01
1.049063635853655918e-01
1.139892322079106429e-01
1.615837570090933040e-01
1.636412888573971214e-01
1.443072405514792544e-01
1.013626970113160053e-01
1.371407591690177175e-01
1.546154670630782713e-01
2.029333011128732767e-01
2.380538500940961033e-01
1.366535421050199539e-01
1.851010958834659048e-01
1.397649104755151195e-01
1.649200659278327041e-01
1.468140075830997038e-01
2.267751014409709609e-01
1.873452657603518479e-01
1.921485168387300491e-01
1.875537484904793994e-01
1.996682536544849285e-01
2.025505451359760900e-01
1.710780925583627599e-01
1.419297571797816515e-01
1.532035122274558459e-01
1.447056827566310933e-01
1.984299199537334080e-01
1.672266021456526586e-01
2.198859903497042689e-01
1.961461555161569392e-01
1.320661952370319470e-01
1.728791549796919735e-01
1.195687913587616391e-01
1.471547889064263592e-01
1.653796174211683012e-01
1.509781869692885803e-01
2.361046189418652408e-01
2.035898123462434595e-01
1.746607101139469043e-01
2.329865720501319015e-01
1.695198180515772313e-01
2.008725542045156076e-01
2.526990517743102904e-01
2.146667408875796157e-01
2.951643510200867015e-01
3.158341409341174355e-01
3.634960369806155556e-01
4.451684899337439161e-01
4.568826619240752285e-01
5.052497729130260851e-01
5.204634582228612194e-01
6.403082737448511086e-01
6.916049999696408657e-01
7.760611154050517380e-01
8.391294410906086076e-01
9.393482830139162632e-01
9.615980841291990044e-01
1.057579760324717899e+00
1.070921018189062934e+00
1.088303408667307792e+00
1.159709460034269668e+00
1.198072992842049489e+00
1.160958201576936188e+00
1.174368874595087764e+00
1.131807481996587539e+00
1.071536910400858522e+00
1.068208120175496934e+00
9.716978881783820965e-01
9.352042647561991107e-01
8.081151556553691773e-01
7.814605471670923453e-01
7.211342048025890517e-01
6.396048785857469943e-01
5.857018472331095849e-01
5.127517563202705908e-01
4.424138960236897455e-01
4.051155399662006995e-01
3.214039551887437618e-01
3.077719693144137514e-01
2.587542052188787078e-01
2.856672640841835253e-01
2.159822588439256896e-01
1.518415402514192158e-01
1.850055039654991684e-01
1.396494639328874354e-01
1.839826194317960573e-01
1.810897891188034681e-01
1.391276969044289435e-01
1.266843537204800363e-01
1.635773564850350748e-01
1.353079400978755564e-01
1.409201144160945052e-01
1.551583446177821068e-01
1.938018097521156391e-01
1.356317012925402077e-01
1.628437104994089890e-01
2.629466126158157002e-01
2.552251859294287772e-01
2.386060305781394497e-01
2.093637635682517040e-01
2.363533416361578154e-01
2.079736262773931033e-01
1.440474845997933850e-01
2.136895420802576162e-01
2.220915120107014584e-01
2.425612102144684701e-01
2.614753197602492363e-01
3.016343380427258247e-01
2.580096791450579574e-01
2.317109271457555020e-01
2.604912092557548076e-01
2.900191126556993515e-01
2.714136521282681236e-01
2.544997715326692278e-01
2.978932285822072368e-01
2.511337050723471132e-01
2.620195532508028946e-01
3.035036991920621596e-01
2.697827952724461964e-01
2.847450865628512462e-01
2.974370116223367111e-01
2.969893009641755843e-01
2.701468603808176439e-01
3.096133493390302860e-01
2.724268553131235504e-01
3.493155543133772412e-01
2.872337327037495225e-01
3.166309695506336341e-01
3.191499648680113377e-01
2.849192267597530082e-01
2.646179607874104556e-01
3.132487790233033365e-01
2.460827796817160740e-01
2.477530582435101547e-01
3.008385279142510860e-01
2.730978508248321224e-01
2.541310967098656670e-01
2.563339516394267936e-01
2.431413771097757359e-01
3.279256493844171505e-01
2.883187046997442993e-01
2.281218967227598982e-01
2.383834777381819425e-01
2.604251144617182878e-01
2.078692664047949168e-01
2.148886287457446032e-01
2.171169090633048582e-01
1.939510763373470392e-01
2.475573931255690419e-01
1.874659774746332830e-01
1.996118088424909676e-01
2.008072168191273599e-01
2.391035790678765760e-01
1.831690711537475591e-01
2.441470265392961247e-01
1.634938811399611336e-01
1.621568521074836788e-01
1.913773343646286984e-01
2.154522786100909193e-01
1.446011021482220271e-01
1.844214050955491624e-01
1.676828720558665164e-01
1.144916013463938564e-01
1.319644495106898630e-01
1.266231956710858197e-01
9.238286932476888480e-02
1.238915673910393200e-01
1.171601304221910611e-01
1.219536020073821725e-01
1.089184540787266342e-01
8.307749624938923216e-02
1.729130678758561135e-01
1.026295137818915015e-01
1.318688974976428008e-01
1.029217287801709735e-01
1.320511812451127531e-01
6.077424517498308809e-02
7.874898586831277636e-02
6.547990683983700988e-02
5.940888145297672229e-02
8.237500081910179017e-02
6.487615064185472957e-02
2.748752538683165575e-02
5.938157088739337564e-02
5.516108697579954340e-02
9.155232044749588016e-02
2.021784836491967094e-02
4.683516164156039524e-02
3.840275343255883378e-02
8.204650875628421991e-02
4.220314268207103758e-02
8.889849569427761555e-02
5.513010731368625517e-02
7.033296538819017174e-02
8.797475938168161647e-02
1.796584074618588767e-02
4.589904965545758830e-02
6.528575388871939167e-02
5.797785106937748678e-02
1.256653908810184683e-02
7.184985147012701301e-02
5.190370408934583124e-02
5.387293807456165762e-02
4.297314118649729620e-02
-4.622152788099508774e-02
6.524266009696108592e-02
6.619221448210094172e-02
3.560473568935026978e-02
3.430214806386534809e-03
3.164133977258382774e-02
7.730982641768993635e-02
3.499768552513161241e-02
4.769741786821547064e-02
3.681816074713428061e-02
5.610370167133768571e-02
6.966990290266233954e-03
4.024771001698364270e-02
7.905893562464395841e-02
1.852634147967806288e-02
3.767493671829116181e-02
7.740104760800756156e-02
6.812251904718318041e-02
5.921673719137909853e-02
5.725114671814968831e-02
5.673535087683835576e-02
3.861082962880479919e-02
7.859216769216176290e-02
3.150284671325164626e-02
1.579041380741649098e-02
4.196296785080058656e-03
2.734786737528961328e-02
2.714276756207702548e-02
2.490894910381230218e-02
1.126455414392670690e-02
5.809832489904696862e-02
1.889757280608713244e-02
6.423796164168928124e-02
6.999292631287784561e-02
1.262264718760180982e-01
3.617667420158193758e-02
4.591707900113371765e-02
2.933468366584183334e-02
1.773006473959939239e-02
4.156668922120742432e-02
3.234714062077838348e-02
2.172533522135460665e-02
6.614118433264702668e-02
2.886022865355120093e-02
8.017076111171131392e-02
9.124373396665114155e-02
4.220921966243582069e-02
1.129009611183539041e-01
8.599177456219461724e-02
7.499756321695630334e-02
2.726971209956652320e-02
3.289180520172460542e-02
1.353346230467707412e-01
1.318115444366225464e-01
1.444685768076381660e-01
1.566317273577315927e-01
1.467473517684644846e-01
1.173901141680965127e-01
1.318829150629073910e-01
9.950085969495739424e-02
1.321946161130467534e-01
1.524443411768234835e-01
1.580611063202653210e-01
1.363588927194168410e-01
8.416975365659445929e-02
1.044890807646456921e-01
1.688487506475798705e-01
1.439056473200556185e-01
1.832983011527453687e-01
1.308400573107048048e-01
2.119236547493220379e-01
1.463362470940249016e-01
2.217871647393778733e-01
1.335823133537268337e-01
2.004474982756492274e-01
1.561857278103680469e-01
1.851932022897509744e-01
2.186146331340869109e-01
2.137741633427858168e-01
1.619590542790720344e-01
1.677516923485211364e-01
1.379894845566816963e-01
1.300581943630110815e-01
1.570969616074874287e-01
1.544829385190056581e-01
1.327546292775773629e-01
1.695273069626709317e-01
1.725316286893241180e-01
1.711887966433454367e-01
1.462052378740177072e-01
1.521856238290658914e-01
1.605843693715988396e-01
1.966955403695180848e-01
1.560224293824856723e-01
1.326977149387069677e-01
1.833471915540465513e-01
1.936480005642691737e-01
1.765156690443130671e-01
2.363423434659520928e-01
2.508279514342093286e-01
3.102718024952393350e-01
3.669389194332151050e-01
3.866003629290493682e-01
4.728522381592275003e-01
5.091802149157717006e-01
5.765038681884231409e-01
6.453387857667719496e-01
7.215883212840458194e-01
7.597376410437999272e-01
8.185845935955369246e-01
9.760118482062820622e-01
1.012163976411075250e+00
1.044994712821475602e+00
1.138703203140184916e+00
1.226604092325346507e+00
1.116533306140533366e+00
1.167374348122646177e+00
1.181399379483795142e+00
1.091407480783378903e+00
1.060322226800871181e+00
1.088680874507196306e+00
1.002318126042330393e+00
9.188612785330382282e-01
8.202567906479379944e-01
8.054158164471486581e-01
6.782887131971816475e-01
6.150873044270968037e-01
5.447370615697315621e-01
4.949430996946191930e-01
4.089006041518416512e-01
3.562172783912095353e-01
3.622957075428604456e-01
2.948573313185542388e-01
2.527279590594044278e-01
2.340869893383356604e-01
1.638134686411520657e-01
1.863726350938442744e-01
1.728555402065594659e-01
1.179987729280672915e-01
1.587344052237347203e-01
1.429244955329346811e-01
1.411220395516374071e-01
1.825598524266896783e-01
1.370945074417782017e-01
1.077744206265055515e-01
1.423708523712921559e-01
1.425585023950123875e-01
1.131367510898874940e-01
9.032134792886270525e-02
1.540243167768142740e-01
1.894239476903710750e-01
1.950067033821424323e-01
1.803036029941318119e-01
2.243826575433147397e-01
1.879911809275735535e-01
1.823070855104459986e-01
1.997787820146369742e-01
1.770419252020075940e-01
1.663114546705357077e-01
1.801649323471847808e-01
2.002214031298292229e-01
2.455226883485749079e-01
1.809008339430541734e-01
1.996863048643454930e-01
2.574653594779206522e-01
2.267836366582320073e-01
2.354577280753793467e-01
2.338930292541130940e-01
3.065476321916133506e-01
2.685301606196657809e-01
2.621367866426235760e-01
2.630505854225470563e-01
2.716406154783354010e-01
3.167017341558002186e-01
2.515973362705031802e-01
2.690894837975574272e-01
2.657616354921217283e-01
2.924918132405397442e-01
3.166759718077568064e-01
2.476597136862774551e-01
2.783156201842400534e-01
2.690617935004449568e-01
2.206884678596408855e-01
2.899163053242405086e-01
3.057074658394792199e-01
2.810501986171093369e-01
2.348188632964537392e-01
2.100816592284762419e-01
2.667099502426570901e-01
2.114911355522554048e-01
2.105947981003981340e-01
2.421162922897645842e-01
2.535074782932145721e-01
2.167091210575184668e-01
2.157375085971336981e-01
2.135241284084256896e-01
1.841623300922934359e-01
1.948408845989379468e-01
1.521768031918900588e-01
2.170968399050495767e-01
2.729076660534832666e-01
1.852027678399087163e-01
2.132044762674748795e-01
1.636464063697209426e-01
1.250940146593267632e-01
2.270009962689048533e-01
1.280766146425489638e-01
1.758589392301751209e-01
1.479638555554545487e-01
1.711825954145906326e-01
1.277038932068930988e-01
8.902683698713224902e-02
9.831604222306518370e-02
1.832390791502306604e-01
1.167882115688131661e-01
1.671657813933937753e-01
8.559023897348459753e-02
1.129411198514748554e-01
4.806040683596905089e-02
8.266967078494984189e-02
1.438200443126907424e-01
4.911877364006171642e-02
4.758642127627548540e-02
8.895023242594819746e-02
6.354689149448067287e-02
1.131401746907814837e-01
4.533742104841389370e-02
5.109896891261264673e-02
5.516930878969072277e-02
1.017600014669863169e-02
4.296873852047931874e-04
-5.214698470036589761e-03
-6.551974619779225850e-02
2.854584202987659955e-02
-1.040398717749758603e-02
1.010191118803887428e-02
5.465986834897282320e-02
-6.408607063084912486e-03
4.069345369425077935e-02
-2.926073594244017403e-02
-4.148589158504173598e-03
6.699462902961267341e-02
3.889061321343634074e-04
5.041357919160836115e-02
8.108667738537264635e-02
-3.411473035338594834e-03
-1.200840337157527485e-02
-5.795984046302749687e-02
1.455652606843827260e-02
1.620069239415659890e-02
2.702674279121143608e-02
4.478449102826808498e-02
-2.854083565263842645e-02
5.761190328547841771e-02
-7.686377790218475170e-03
1.100770641914648740e-02
-2.554394441094563414e-03
-2.426664153311595615e-02
-3.765103094280822932e-02
4.093616119654451720e-03
-3.164160041455742894e-02
-9.803880972579153558e-03
-1.600683593692499296e-02
-1.493885120001683942e-02
-5.845909886161736180e-02
-9.988233126410964169e-02
1.993035597557012845e-02
2.816827702630240321e-02
-8.278727592602885821e-02
6.283670032800461880e-03
-5.589040152973075160e-05
-4.659214784687910893e-02
1.978208789976065168e-02
2.672272866401081623e-02
2.410305246195364182e-02
4.442707935396666280e-02
2.186094475557284061e-02
-3.329206900972036393e-02
-8.014441681227184658e-03
2.861305971510760479e-03
3.672425666115641113e-02
-1.649396738947105784e-02
-2.801717791755567108e-02
-5.871911725428733547e-02
1.707663307390660384e-02
-2.814203395102250760e-03
-3.501011880990894526e-02
1.423068915626507502e-02
-1.890113646763304928e-02
-4.818187911838844872e-02
3.181622532459828928e-02
-6.958608009291664120e-02
-2.872424498077398927e-03
-9.902908523778905861e-03
-5.502214348317635562e-02
4.742653474254645424e-03
-2.485307108849430652e-02
4.757044912141063231e-02
2.844772689046553421e-02
6.387755998615556735e-03
-7.339943573770293939e-02
-1.353865899516599330e-02
-1.387997950790250540e-02
4.358352905683415823e-02
1.498761056817909075e-02
2.174282935110886938e-02
4.556032873519813564e-02
6.698118085461178539e-02
6.506608886663310665e-02
4.114498876335298538e-02
2.027478382765180928e-02
4.535489283506913272e-02
3.539106634710929844e-02
6.421969535151539343e-02
2.803481326428321554e-02
7.675213463342787923e-02
5.575439769382366240e-02
7.075776599972670444e-02
2.818562390923511421e-02
6.081332709067362868e-02
8.738485385307219466e-02
7.347276351956365248e-02
1.344002175917287725e-02
5.163791555372937436e-02
1.036037643413278697e-01
1.430045682559097087e-01
9.522353286221646451e-02
9.161863092255501106e-02
1.416631923689609385e-01
1.139195313509230867e-01
1.390376358630214249e-01
1.106506787555598670e-01
1.097112885320471604e-01
1.485053729922967969e-01
1.455266711489286713e-01
1.167745656609988913e-01
9.325439701002179171e-02
7.702054347164963288e-02
8.062757453007295128e-02
1.069660526620426211e-01
1.342564983533677259e-01
7.320971493702319033e-02
7.326963532360805664e-02
1.304694743054377326e-01
1.639283831474714903e-01
1.472491411769774050e-01
5.722060912263507437e-02
1.224838962418842714e-01
1.383100672984999280e-01
9.464548845616663209e-02
1.036104588185443043e-01
1.237303124611990879e-01
1.336764495719768298e-01
1.385548550669487566e-01
1.606709128509506979e-01
1.612650330930159026e-01
1.566755820455572601e-01
1.881340408974019329e-01
2.101725920092011035e-01
2.581044443390635434e-01
3.337660590924245163e-01
3.452911608010570954e-01
4.584230158360310670e-01
4.602023770833454930e-01
5.641961081919910637e-01
6.548329867140353366e-01
7.166588542428597997e-01
7.210659142720802217e-01
8.515120259611719256e-01
8.918842806320039784e-01
9.340788223942761981e-01
1.031241031559989141e+00
1.027071610638968346e+00
1.099489652207841006e+00
1.149944263018087387e+00
1.115375662083189390e+00
1.085257054534780163e+00
1.059765583190917626e+00
1.051810833857972138e+00
9.639909040837705279e-01
8.987955222876884420e-01
8.173623619134812168e-01
7.462197662295203537e-01
7.250277986588478107e-01
6.084371795055140142e-01
5.660044609226582146e-01
4.979785901590751962e-01
3.843402504238790374e-01
3.288692463920384612e-01
3.159823093637098568e-01
2.554037295380880424e-01
2.049889516815558976e-01
1.898266324948489348e-01
1.780590155589716894e-01
1.238192035813186070e-01
9.023313202898919361e-02
9.752177818637761120e-02
6.034204373240537045e-02
8.242543924810499800e-02
7.449620347896890316e-02
4.840523546119711307e-02
6.090292782539304117e-02
6.484673380303118684e-02
9.916030432412477336e-02
5.432234189718883333e-02
6.032841648692023606e-02
7.790905756791975667e-02
1.108903647735405978e-01
1.209002047610324981e-01
1.122270162510686925e-01
1.312291231496244270e-01
1.501416452125902690e-01
1.255300080623741044e-01
1.022941420196669948e-01
1.295397498963049565e-01
9.648643059740796835e-02
1.545874264924728403e-01
1.333160041907200943e-01
1.566392945426789696e-01
1.558112000075612680e-01
1.518020009036088469e-01
1.748191044732233523e-01
1.688910889929954307e-01
1.580939144704595900e-01
1.482206637969973317e-01
1.957465411910617736e-01
1.525295833525305567e-01
2.459463934457982170e-01
2.338111221124907213e-01
1.502959646456611953e-01
2.192982825480644382e-01
2.367810844566163586e-01
1.868736577675303712e-01
2.164733950790469208e-01
2.033193311895102884e-01
2.283103887824668443e-01
1.948858880319805365e-01
2.387569365146661460e-01
2.037356264414156848e-01
1.978639450806769784e-01
2.258104970265406575e-01
2.320029842813028931e-01
1.331678027663730501e-01
1.140687366562900679e-01
2.090396518263159809e-01
1.762036630341580479e-01
1.533939424193588030e-01
1.784648517543347412e-01
2.733886188084767022e-01
1.422505117618158565e-01
2.045618226566235931e-01
1.507473791147255215e-01
1.253967377220581159e-01
1.457690025339856421e-01
1.164620542255644098e-01
1.068671211034946111e-01
1.268151672589686307e-01
1.103756903730644667e-01
1.331088541894832611e-01
1.368602101381513614e-01
1.023669759657838130e-01
1.391044722662278521e-01
9.443283912803196456e-02
1.038693753644298196e-01
3.751297568540804678e-02
9.918136302200619703e-02
1.584357230564482077e-01
1.089225975030714555e-01
7.415403756655322698e-02
3.891776674123369889e-02
1.170366648865398956e-01
5.775348965412860358e-02
3.699634170487366841e-02
3.248124806433304312e-02
1.089809290636590960e-01
3.823793655804944014e-02
5.043196206228715145e-02
2.609934334873421913e-02
2.566524626409816962e-02
1.045880451589992904e-02
6.161811677333183662e-02
1.617315374301263320e-02
-3.131813284691516153e-02
1.896871724073296434e-02
9.358735600775713870e-05
1.152357823100793460e-02
-1.314343464887132024e-02
-2.255389522390209567e-02
1.753268843856823495e-02
4.366654350355544945e-02
-7.053961110552260660e-02
-1.483038686147714752e-02
-3.587200443223190205e-02
-4.926137235659486246e-02
-8.870423904542723559e-02
-1.515960490239341707e-02
-4.233744540400843914e-02
-4.585546224547439043e-02
4.898229600483292034e-03
-4.587392605084643360e-02
-4.855144639634775133e-02
-7.548289923297102355e-02
-6.385314881628385841e-02
6.250562505254950163e-03
-2.043616964964647259e-02
-1.118550756155606285e-03
-6.585379333994612061e-02
-3.062121107112226667e-02
-1.077721483885333426e-02
-2.552708496809283356e-02
3.864991473018108969e-03
-3.206987858131585267e-02
-4.472190331222535009e-02
-1.157898780418826767e-01
-3.310311910093560045e-02
-2.808809988779460698e-02
-1.196484044123898027e-02
-7.056924280590351484e-02
-4.804965400241943685e-02
-9.502419906745901423e-02
-9.597557242752610684e-02
-3.242213596174968460e-02
-1.002418915838915875e-02
-9.160370998195971337e-03
-3.522353336957233239e-02
1.285048252271398656e-02
-6.043762017469188341e-02
-2.183282996099529527e-02
-8.841829189844097048e-02
-1.432740479728611405e-01
-6.348271485071721454e-02
-5.271837993493655450e-02
-4.210450278632334870e-02
-5.475245107876964418e-02
-3.833621936342235248e-02
3.039782338480352675e-03
-2.700592034865677976e-02
-7.206281680303841530e-02
-1.243995063386832967e-01
-8.118421121806934648e-02
-8.508427380812269569e-03
-6.374728051472884627e-02
-2.808478848068170913e-02
-2.899908287643069779e-02
-4.959591836763257988e-02
-5.019522026236628021e-02
-6.712849387381195077e-02
2.007389215945741545e-02
-7.489253822810765238e-02
-1.197594453510725937e-02
-1.998359184493305601e-02
-2.565840967358003558e-02
-4.680704859869969786e-02
-8.658611101868478321e-02
-7.548921427045061916e-02
-6.300880639147177220e-02
-2.724341686221650946e-02
-1.003006964419252828e-02
-2.557307993526314327e-02
-2.526857858280739250e-02
3.341470028436488438e-04
-9.132145378303975491e-02
-9.231083976877194064e-02
-6.980474537162076332e-02
7.337017533846766637e-03
-7.754710229473382732e-02
-1.417994046144166465e-02
-3.759472334508705965e-02
-1.809877203370162391e-03
-6.686840409358019155e-03
9.304286826335092520e-03
-5.756836867671082103e-03
3.204180500420639177e-02
5.948887199544344861e-02
5.843282421889949008e-02
1.464539821566720329e-02
4.687139282526453510e-03
4.169476070350010277e-02
1.003124080418229813e-01
4.468256890887552235e-02
7.663666279349298782e-02
8.011675975822712958e-02
8.478841575976170386e-02
1.046934627159918640e-01
3.170285809615851907e-02
4.678985345760394710e-02
8.133552172996871832e-02
1.207485550574014244e-01
1.242808698047830340e-01
8.930034074549188239e-02
1.234794480914092329e-01
8.332688323969945909e-02
7.318711273018473074e-02
5.966412156928233013e-02
9.650913401181081264e-02
9.085491731505127011e-02
1.315178654633284150e-01
1.180098518489531290e-01
1.020318231662843134e-01
1.010350898609456705e-01
8.524514108113724620e-02
4.269634697137000140e-02
5.865691073395690180e-02
1.157119633258760216e-01
8.601426684356128227e-02
4.913385344423537582e-02
1.283251611839699435e-01
1.378748892894572364e-01
1.238255357567412118e-01
1.027300279818035011e-01
1.029571746096190621e-01
1.005788379331126331e-01
1.163478846943325762e-01
1.442549336002948990e-01
1.650394269608398412e-01
1.809752118013235322e-01
9.827198150732108228e-02
2.665221273564274962e-01
2.798772752009397458e-01
2.816934012582556490e-01
3.833595482741727345e-01
4.475261154278262210e-01
4.576095162990664877e-01
5.558585712219592523e-01
6.150074975864566751e-01
6.928917447640752236e-01
8.119529537726116741e-01
8.455508145378974882e-01
9.307523404891206997e-01
1.005967411902260134e+00
1.016813603081529793e+00
1.087508136034739392e+00
1.126203331815475828e+00
1.118459038424159502e+00
1.104429229974713822e+00
1.091504841375588786e+00
1.044024438185173986e+00
1.012094563650949963e+00
8.957136522692952241e-01
8.648372760873327403e-01
8.090287146640644522e-01
7.215195978068082994e-01
7.238694391659044047e-01
5.686718743295215983e-01
4.489638474269147528e-01
4.360451607024194987e-01
3.963046106268153235e-01
2.882804057292692734e-01
2.628248106249055360e-01
2.178324279152997478e-01
1.809194018001812065e-01
1.337346713973528445e-01
1.594223312567237816e-01
1.716819574263827031e-01
6.632784723302885543e-02
4.124578033570808905e-02
5.974644056511844298e-02
1.104061681355203439e-01
5.816612166731371936e-02
7.653520404891427098e-02
3.935716537950318533e-02
1.226283436003657579e-01
6.357689916195433111e-02
8.396378216073285827e-02
5.718936732636048514e-02
5.929631817953125161e-02
9.124620347397063846e-02
9.998632946704552604e-02
1.284077493842321338e-01
5.765223499749986408e-02
8.557324492366030766e-02
9.932625696485233857e-02
1.293821556059136235e-01
9.769669990350171584e-02
1.344689439586138902e-01
1.236924332161244977e-01
1.445094573988418007e-01
1.307903313885733221e-01
1.289982807948674148e-01
1.730544472248653765e-01
2.028710132286623280e-01
1.986677689138282299e-01
2.122151202035972573e-01
2.200729182170138021e-01
1.824444386096531479e-01
2.472139705272032861e-01
2.173159829889913519e-01
1.693887140209213438e-01
1.807708176297359026e-01
2.079856268522405072e-01
2.321743086284078772e-01
2.008543674338530705e-01
1.802037783973458873e-01
2.343150698078498295e-01
1.780020671658829878e-01
2.211731521174795101e-01
2.135376407639227592e-01
1.717946221754432790e-01
2.648520242656698387e-01
2.111429507430669927e-01
1.738173234127023681e-01
2.092619887695697511e-01
1.539720967703981369e-01
2.144488318910680869e-01
2.268697897975155420e-01
2.792064996581862246e-01
1.979035778921577338e-01
1.717366787526236893e-01
1.939760630516431938e-01
2.270050734605208453e-01
1.946077274370054122e-01
2.001303047992434581e-01
1.933222758527340102e-01
1.809008992041245267e-01
1.186844038641940713e-01
1.119364101661389221e-01
1.030085221416312258e-01
1.091207999830891562e-01
1.071465172408309768e-01
1.899141727847487582e-01
1.073732416285885505e-01
1.260005691580982912e-01
1.101008704379832781e-01
1.176395549793500667e-01
1.083734540071809443e-01
6.306518459224280670e-02
1.132001613808653884e-01
6.946115911884123695e-02
6.312051895873099783e-02
7.008327944830308742e-02
9.840293379923838180e-02
5.036522833773243724e-02
6.694421779994144672e-02
7.149398299289495828e-02
6.246765937422286974e-02
5.632197872394011096e-02
3.797778467057911361e-03
4.550906150851385945e-02
1.021580239576128438e-02
-1.902824578713339584e-02
1.616613808714115544e-02
1.091709333206681426e-02
1.118877886256997162e-01
4.912970226222982545e-02
4.029577428104316739e-02
1.617543582507728617e-03
5.531720242628393458e-03
8.563176507959571748e-02
-1.304634186403088800e-02
1.137431013406648914e-02
5.680506104381906340e-02
-2.216531168162182847e-02
2.154216271874308253e-03
-4.637834581669764838e-03
-3.238473941910972181e-02
1.602058323893934544e-02
-4.207832389608348600e-02
1.337726464511570026e-02
1.813619963937900675e-03
1.479164729002177200e-02
-1.895098893970125625e-02
-2.329426974324814298e-03
1.596955748845618056e-02
-5.780545778905217535e-02
-5.243885120817443762e-02
6.914499140350076345e-04
7.418848590988708080e-03
-1.365292512892414198e-02
9.491158713425928983e-03
-2.930905258205618660e-02
1.928586062089972242e-02
-2.114578242373314418e-02
-4.252482808750254056e-02
2.342744748849159842e-02
5.368419985145603257e-03
-3.303142683895623349e-02
-3.248455885546203126e-02
-1.574946494678826359e-03
-4.961606072921867505e-02
-9.957612047807517727e-03
-2.458654638791519034e-02
-1.301250471988660284e-02
-8.000615014190309848e-02
-4.647064944490890415e-02
-1.152629153794010666e-02
1.258142755346596670e-02
-2.277724272522131665e-02
3.002942847061706999e-03
-6.293761547470722029e-02
-3.175115128161558331e-02
-9.686127431916356084e-03
-1.972660763090601163e-02
5.264399964891620931e-03
-2.506243124212367834e-02
-2.449443531315480954e-02
2.822742132197027243e-03
-3.259186639023575749e-02
-4.336025226397194343e-02
-1.818637845224123015e-03
-4.427939299372503357e-02
2.761748893878079175e-02
-6.973408853640218619e-02
-2.290897246329568621e-02
3.539529986338989243e-02
4.648339706817139483e-02
-1.485709050672692245e-02
2.173899226433004261e-02
1.268775990729549205e-02
-2.441423103257022581e-02
5.337724622156382256e-03
-3.343542960602045172e-02
-5.324716431190402999e-02
1.006344455135316750e-02
1.328279011539585872e-02
-3.758180083336756100e-02
-4.553793070040166799e-03
-3.394734644324061412e-02
-1.012366689387715971e-02
-7.116814267157742929e-03
3.065519632514652343e-02
-3.922641910316963451e-03
-2.391721356057264353e-02
6.847628511396554318e-02
3.513528920435277092e-02
5.067064068419180334e-02
4.575606728666868628e-02
5.967923993862796206e-02
4.869465902244874550e-02
5.390882263541147551e-02
4.832844361255078658e-02
3.607417670000646198e-02
8.075563750139180819e-02
5.127730757810700091e-02
6.793804438670272838e-02
8.080581356367869117e-02
8.871728824465559271e-02
5.007907003595162693e-02
9.199310541399016716e-02
6.076660208733212359e-02
1.021314418253228551e-01
1.254636922564230650e-01
1.612379014306814518e-01
1.295813464240509749e-01
1.429763101106495404e-01
8.899255079845205807e-02
1.420615718361808721e-01
9.643288630760296631e-02
1.696042099735230457e-01
1.048038034136368479e-01
1.103339131463285799e-01
1.647218189602807081e-01
1.944603301484017777e-01
1.773319048571424528e-01
1.360401028311730987e-01
1.175750030208720098e-01
1.345557234756434017e-01
1.508538004954265155e-01
1.440341062769970593e-01
1.143870035921617095e-01
1.824156910254214337e-01
1.814037038089767462e-01
1.969095273221423692e-01
8.873403360823049757e-02
1.126383455689494717e-01
1.431454209764749519e-01
1.351247944821962199e-01
1.218096177993361895e-01
1.112664420411893229e-01
1.104634517654282944e-01
2.069224257729985472e-01
1.119427884452863231e-01
1.201337644019383616e-01
1.474608736669602571e-01
2.099115383232390830e-01
2.224005416857621209e-01
2.753926150214662250e-01
2.805325460514166980e-01
3.497111605390427758e-01
4.015308321653076051e-01
5.044468725260662367e-01
5.744778102100022155e-01
5.852190099145281321e-01
6.874693126919116937e-01
7.405697554950759764e-01
8.325879464707525157e-01
8.925388948816755930e-01
9.701124161790453115e-01
1.033924914188024458e+00
1.072479932470086661e+00
1.104457538768700120e+00
1.159891118930284737e+00
1.139345318134772578e+00
1.126807842466581056e+00
1.084055521971371006e+00
1.116430741272341987e+00
1.084869643546762630e+00
9.617482138001457459e-01
9.352154533272354353e-01
9.092356116675562872e-01
8.106306919337836758e-01
7.422476567467582997e-01
6.931834312706440793e-01
5.892909020621216465e-01
5.339895487644995553e-01
4.245113009600036125e-01
4.075279356734440306e-01
3.030922575180853840e-01
2.572095718541043685e-01
2.405026652725822112e-01
2.380237541405717250e-01
1.951818060407169431e-01
1.475760540975558088e-01
1.802440382099528560e-01
1.505487167176522145e-01
1.631863623769256866e-01
9.914982998006348358e-02
1.655797615168453640e-01
1.688406068632200552e-01
1.492912675026571434e-01
1.385042857852020748e-01
1.417535801274518170e-01
1.405948158761769484e-01
9.392025907415482711e-02
1.220662993230403892e-01
1.421651647528948681e-01
1.198893918418811044e-01
1.995421958936962614e-01
1.773248813812804692e-01
2.216794301208991347e-01
1.978467343809985346e-01
1.381819223247787443e-01
2.252130779039453468e-01
1.783597448679138664e-01
2.386231302855670311e-01
2.486482193436222732e-01
2.495647447460819790e-01
2.466940450818270736e-01
2.328218792063533327e-01
2.246695604670519986e-01
2.865030494910281167e-01
2.428858811652679917e-01
2.276961872741450343e-01
2.568107649480054211e-01
2.820592962397427406e-01
2.847223765170837639e-01
2.222589096496083716e-01
2.904296283340688234e-01
2.815652692468864071e-01
2.530608981534298030e-01
2.408969895120555982e-01
3.103945381906522138e-01
3.148686155729570890e-01
3.172524927379869464e-01
2.317176882209101008e-01
2.651004781754613959e-01
2.731681977287210294e-01
3.162416566215442426e-01
2.947425343727168023e-01
2.627907622236368979e-01
2.730057373190933334e-01
2.878554397851651458e-01
2.868316615041833773e-01
3.124498256351229131e-01
3.030476404242137267e-01
2.937783833775848841e-01
2.301647258226857118e-01
2.284533131784644289e-01
2.160062078113491602e-01
2.543682809887591323e-01
2.233044619391038044e-01
2.507706558034358268e-01
2.504187714599119263e-01
2.307556083273096248e-01
2.455646355818271731e-01
1.947381358902350590e-01
1.645055733286641952e-01
1.823155717519086283e-01
2.231948386848310317e-01
2.477852356057777816e-01
2.314469551795604318e-01
1.755589118105047586e-01
2.048363287719593695e-01
1.288807493217535571e-01
2.114552748172450480e-01
1.753400037739456796e-01
1.779122861204004424e-01
9.149626022461894437e-02
1.575146856219631630e-01
1.938277689810194160e-01
1.423328516658194931e-01
1.258004452637462023e-01
1.160556100916571021e-01
9.741058046484168953e-02
1.171691245017492944e-01
7.356344720146720806e-02
1.193022220168333258e-01
1.349733503240393984e-01
8.482032541229392320e-02
1.054130484838158716e-01
8.833813731255174551e-02
9.861328798944019036e-02
1.107479155378163771e-01
9.270855804627356478e-02
1.030720495898765077e-01
9.006177153597494378e-02
9.760848555641687962e-02
7.865442425690075123e-02
7.670811457778051179e-02
8.526806129868724771e-02
6.023428337946862277e-02
7.392763955602157933e-02
3.184637040770551403e-02
2.492592562515352078e-03
5.803555039334827581e-02
2.981923069232456439e-02
1.103218920109795831e-01
2.710932319063982104e-02
7.286452570971482801e-02
2.751946607336364092e-02
4.713394290278753729e-02
1.343838121798233975e-02
9.848223139921209734e-03
5.397965831539341952e-02
3.283691206285417608e-02
6.643442902563510832e-02
8.106791984426592323e-02
-4.661065509438025445e-03
7.423106072059826310e-02
1.224987677918253429e-02
3.078442138286366370e-02
-1.549571914615043011e-03
-8.830721934010438146e-04
-1.827226193515705394e-02
2.778948508528588171e-02
4.163215125516866316e-02
2.855038667501574867e-02
-1.409935998011993541e-02
-1.914040050787324532e-02
3.984152295981325392e-02
6.319783872809224545e-02
4.696693772087028734e-02
9.559243104288374371e-02
3.844770676383676977e-02
4.910281202136066586e-02
3.906937008635295167e-02
1.632379043925235099e-02
3.492125996809154753e-02
6.509034692278557743e-02
6.635587849952021000e-02
5.085551981268890409e-02
8.770174831466170939e-02
5.406804016592769990e-02
5.025981219876680256e-02
8.564039238027892909e-02
1.924359002793849319e-02
8.365803653396788886e-02
1.172336664151381325e-02
3.308741379011995859e-02
-1.389667123572373153e-02
4.886178406100486621e-02
8.122232199637899330e-02
1.344998140965260325e-02
3.323026410265828012e-02
3.519588787580383432e-02
3.552344650271897775e-02
