1.149510470780822358e+00
1.104554954535499789e+00
1.122404507892130088e+00
1.056857876422326870e+00
1.032567115815761660e+00
1.017517798490680025e+00
9.349161004788761886e-01
8.147039894990112385e-01
8.131428214499587526e-01
7.145127112334723751e-01
6.262781570370280493e-01
5.952070028947147318e-01
5.019574640065660454e-01
4.112051148746421747e-01
4.466377352358233965e-01
3.420084184761340573e-01
2.978770027539430210e-01
2.523448524944253979e-01
2.701811862213511217e-01
1.949905781992364862e-01
1.454779632179707405e-01
1.571035239691587482e-01
2.068440196769762984e-01
1.849312890614776550e-01
1.480395942728268133e-01
1.949054654641955708e-01
1.760179131837346644e-01
1.469297394337636953e-01
1.524567651942650981e-01
1.707185065797663936e-01
1.399750859417593918e-01
1.696798634371963488e-01
1.838016117325589893e-01
1.292242230733781638e-01
1.796458030028663111e-01
1.818682413095813466e-01
2.275289363602969461e-01
1.471310823731078465e-01
1.968185126236811078e-01
1.995985816591131501e-01
2.486051617851220419e-01
2.241893499968686532e-01
2.849902473140643044e-01
2.564834054576542455e-01
2.296974835777706447e-01
2.544388041993185245e-01
2.417100989770872288e-01
2.830163858507475094e-01
2.219715626548636189e-01
2.417122178294325296e-01
2.843445868409488209e-01
3.114458521074307540e-01
2.123459463065099362e-01
3.230885724698189798e-01
2.808034194321091248e-01
2.313349895296132885e-01
2.003222095808112335e-01
2.466838965775969006e-01
2.938253252676056859e-01
2.939424220011044864e-01
3.160639736059754346e-01
2.813729620365034712e-01
2.650438536650900900e-01
2.859562685960027051e-01
2.990572544669275468e-01
3.043100851857001854e-01
2.726909249960444703e-01
3.220339222955405090e-01
2.746251540238949795e-01
2.651116065344285566e-01
2.725360494852189785e-01
3.183366718302467757e-01
2.790819273260308209e-01
2.589083197354861143e-01
3.039223771025406085e-01
3.365495057430419878e-01
2.744337891256368733e-01
3.007998647421280536e-01
2.902905788904299178e-01
2.362629846505648057e-01
2.502738008434458594e-01
2.058784097296507409e-01
2.329427664121890007e-01
2.149169692250339492e-01
2.161221530759199483e-01
2.001312725837256501e-01
2.083666702419865180e-01
2.272484685342482935e-01
2.019670995353604614e-01
1.438769793860527335e-01
1.716837398460506481e-01
1.427636786830362714e-01
1.899804247576971361e-01
1.921205068840421970e-01
1.791431290841280222e-01
1.423266175175442738e-01
1.679449337864129810e-01
1.411261438426179571e-01
1.158829825263600205e-01
1.672069957873563439e-01
1.645367440389964020e-01
1.636443609602916127e-01
1.122497432967663050e-01
1.613502957406505456e-01
1.067821792750654197e-01
1.369694788587484391e-01
9.796913345831584352e-02
1.026682831710157562e-01
3.300389569089901692e-02
9.299390649547331633e-02
1.013562984255697852e-01
8.305361378903147740e-02
1.449298286464842378e-01
5.441468833536303173e-02
6.957843074924224824e-02
5.668645655565640595e-02
6.441211476190211727e-02
1.099027242546690986e-01
1.210741029117169687e-01
5.361562536950395530e-02
5.098418464349437074e-02
3.611945483872493201e-02
1.082996892178429427e-01
1.011329064647520232e-01
6.282367006154898625e-02
2.272405210758681252e-02
2.410947337973347315e-02
6.722388205391013893e-02
7.746908827866752500e-02
-2.028063138484623162e-03
4.936288538131653608e-02
1.066708661591307394e-01
5.078591866072437733e-02
1.012546127844898974e-01
7.535206430857947779e-02
2.272451285910089686e-02
4.589829149742067488e-02
5.029297834238880688e-02
2.510046774493540980e-02
2.414547078791305645e-02
9.805128537309783232e-02
2.317276964304568199e-02
8.452860860039865254e-02
3.879776426691947111e-02
5.087332289132992513e-02
6.828042810720416633e-02
3.328265222845781801e-02
6.812231796287573915e-02
-1.043030978631415140e-02
6.406341466030403276e-02
-2.324080727973709681e-02
4.398745695130901884e-02
7.643485638918127989e-02
6.953071104195862606e-02
1.200659814589950108e-02
1.601260425514310082e-02
3.063695562866133523e-02
5.713414524760518365e-02
-9.098158081304159872e-03
5.184318894791016541e-02
6.203762534589996047e-02
4.474077300568212595e-02
6.961904611291197531e-02
6.129768373987965618e-02
3.917100248405967766e-02
-1.712715799592846866e-03
6.145522234815308654e-02
3.007806058326158855e-02
4.268536725052149428e-02
7.593270693984080499e-02
1.057703182637846351e-01
6.397748497652304411e-02
8.379692727266044305e-02
2.609135212544072546e-02
7.924461565624017767e-02
7.274351044704999159e-02
1.142926598663343007e-01
6.429369385177081953e-02
7.656763682398746995e-02
1.191073494470973743e-01
8.832171134718913574e-02
6.176528766548311511e-02
1.757270056336825981e-01
7.115627024611004270e-02
1.060836732326669307e-01
1.230935898542107471e-01
1.255275074807346292e-01
1.167276857711020133e-01
1.218875691828964491e-01
1.254538943695880926e-01
1.041256372806971114e-01
2.072093950073058688e-01
1.411647436105918363e-01
1.706601188895186527e-01
1.475888259834756966e-01
1.517119768022605619e-01
1.532298445454243208e-01
1.247096822886967354e-01
1.704346329878270172e-01
1.667916135120155186e-01
2.175625064662819741e-01
1.495655249755308558e-01
1.708082273168901599e-01
1.634070458767394873e-01
2.354346440676659824e-01
1.674199902754891223e-01
2.112495019927322359e-01
2.238944208317959483e-01
1.903491573949896154e-01
1.529179608071860597e-01
1.523554775760874724e-01
2.177336299654232532e-01
1.524357144212117876e-01
2.000470867111088791e-01
1.895596338125384306e-01
1.952137985289648658e-01
1.958967798445196695e-01
1.518579654770832732e-01
1.492277621286708378e-01
1.993639905168861637e-01
1.596047597689826125e-01
9.810807108230007456e-02
2.042370941446936539e-01
1.604195017401588430e-01
2.154135017894834858e-01
2.568595158456627447e-01
2.336732337957495020e-01
2.861765181603388442e-01
2.896472878555881869e-01
3.674366144934902989e-01
3.290794430951698990e-01
4.082634004120486715e-01
4.825421167002191258e-01
5.162748383986652811e-01
6.211996242176429650e-01
6.421867134248394615e-01
7.881456170647038739e-01
8.612855950969944274e-01
8.762759666080498500e-01
9.510714672558503446e-01
1.031203445863848600e+00
1.012935496556863324e+00
1.052468916155466783e+00
1.161318180567398883e+00
1.150901402783289340e+00
1.141422121887314178e+00
1.140315476019896579e+00
1.046689253234307504e+00
1.078188316441057948e+00
1.015589955520265431e+00
1.010328912907428434e+00
9.495491073173528696e-01
8.683657287902567523e-01
7.909550200891154459e-01
6.609982302017168854e-01
6.512487638022181891e-01
5.825467815569249641e-01
5.351238380505977110e-01
5.004991348676610663e-01
3.312187357314881897e-01
3.216944075044679274e-01
2.689035622479538645e-01
2.605480941191956057e-01
2.260628617437693000e-01
1.945725172040710382e-01
2.134649963627916480e-01
1.351527688587496057e-01
1.264307718555339743e-01
1.197283427582369331e-01
1.352063050395742316e-01
1.069914626917478628e-01
1.420592358868367489e-01
1.396780060542473778e-01
1.233185621045495284e-01
1.762853293041273250e-01
1.521245088754958619e-01
1.901394167058980678e-01
1.571420325499453818e-01
1.672825586070838255e-01
1.563418418413708710e-01
1.783707133090902397e-01
2.053964275900504177e-01
1.771874979349144230e-01
2.105953399609184762e-01
1.761648687895889520e-01
2.287865245548124649e-01
1.940257071211206330e-01
2.422994044032098782e-01
2.238017160235650782e-01
2.727014008442495974e-01
1.974082397277455991e-01
1.925401415913980119e-01
2.229527897656617963e-01
2.043149927028064250e-01
2.085674364209484932e-01
2.726569330973661609e-01
2.575940712786784492e-01
2.467702770085270225e-01
2.527104107096416752e-01
2.492641306796831713e-01
3.192448834198944874e-01
2.499001422595754085e-01
2.342014166864198055e-01
2.993066939103274926e-01
2.701642892687092790e-01
3.386578779899576119e-01
2.622075308409924088e-01
3.035105217137988864e-01
3.103709823701293335e-01
2.616759062820439574e-01
2.540777885938667602e-01
2.972975725170151073e-01
2.906409974191867529e-01
2.290663686725259995e-01
2.351825344905544291e-01
1.902632730039207909e-01
2.812184646894403950e-01
2.521945911729757683e-01
2.515822344317442116e-01
2.018195813148288553e-01
2.154698309513053689e-01
2.296738904696638550e-01
2.192091129120090909e-01
2.380640389195786133e-01
2.469848794538624104e-01
2.923412951636227275e-01
2.182634270024327028e-01
2.467949273324796799e-01
1.827795200016587018e-01
1.516721651729037723e-01
1.855082849416910262e-01
1.422361031707370105e-01
1.846504024172330449e-01
1.548090455242560337e-01
1.135944724608830003e-01
2.183076854048940640e-01
1.441249990096601374e-01
1.051842974709654294e-01
1.753698825896615743e-01
1.207428596936734322e-01
1.695605466452793919e-01
1.091978138062160153e-01
1.094177431268370526e-01
1.305457953292697704e-01
1.326739528234928411e-01
1.327370095151772789e-01
1.019312570826332032e-01
1.155651614237042102e-01
1.173062217670361590e-01
9.633711298571404069e-02
8.157848131524021718e-02
3.819574676659782952e-02
9.538622010740499535e-02
7.469369227184213811e-02
5.719888724998604262e-02
1.042802402510982079e-01
1.961208824030612197e-02
1.084263483224571362e-01
5.525133431904698245e-02
6.241275903379801815e-02
3.815382057218244527e-02
-2.742424211181610644e-03
4.048886050842896017e-02
5.226545560910283300e-02
6.018990303547395310e-02
3.177156636030650100e-02
-3.012967680224123285e-02
-1.254981806007012327e-02
9.342858823216246278e-02
-2.630755430794745608e-03
7.133833636495066910e-02
-1.015145521994999592e-03
2.010837476685731900e-02
4.300187477713175027e-02
-1.612566849352263174e-03
6.958663020896002638e-02
2.299355327019516476e-02
3.351887861272064006e-02
1.070260398199222862e-02
3.759157505657019505e-02
6.435068324441536869e-02
1.225935574869650713e-02
6.735100306467045606e-02
-3.579110270872442462e-03
3.704532116301803568e-02
2.819142904037705982e-02
-1.910437601128452470e-02
1.883994671204793081e-02
1.215496385231729093e-02
-1.411906844832351050e-02
2.179284223678904647e-02
1.505024919996049600e-02
8.125229993163151851e-03
7.919455797590395363e-03
6.983709903032586479e-03
-1.605335332182638436e-03
1.339830705081211312e-02
-1.029839765181701783e-02
8.857983536052643769e-02
-3.350391514016242550e-02
-8.817636822253890200e-03
-6.447193222750457337e-03
6.999780857930887334e-02
-3.070010530115457534e-02
2.187183364296006044e-02
1.681245396238147116e-02
1.971894664633159697e-02
4.724331662380052560e-02
4.717060472025943335e-02
-2.180577480157412477e-03
1.794031282781057349e-02
-4.290246563513350903e-02
1.703344520166871420e-02
-8.569501941558196195e-03
1.100787682148253802e-02
-3.244301177075649412e-02
3.196234890400628109e-02
-2.919454453576261072e-02
2.823398748419509927e-02
-1.072286863806572177e-02
3.079953416252284235e-03
6.592275562307019221e-02
5.184768693231493752e-02
7.183448208766364529e-02
8.751635126774641449e-02
2.112014744192920040e-02
9.306406332671388060e-02
8.119731416498871673e-03
7.864703835630028339e-02
4.581803301233814546e-02
3.722123361511064238e-02
8.821432422667509210e-02
1.028937534608760085e-01
1.068574871690175510e-01
9.076030310111483923e-02
9.321827336282043075e-02
1.100075091310107056e-01
1.082183432867708239e-01
1.201754739726173943e-01
1.147720268301508084e-01
1.385023983498734068e-01
6.878063254977576091e-02
1.178096623652319097e-01
8.411922313983789812e-02
1.375223223932534600e-01
1.817318046465574155e-01
1.211386053700055920e-01
1.416722677128124663e-01
1.626245184245165842e-01
7.953467062076238769e-02
1.270851606179675408e-01
1.544017455384011639e-01
5.680631498655869943e-02
1.141976503575046487e-01
1.758617061639111967e-01
1.718309844951098342e-01
1.514819131276242403e-01
1.648859856570322191e-01
1.427659985170983692e-01
1.506840876987179390e-01
1.221977301982489494e-01
1.328753225854776843e-01
1.084447662406923529e-01
1.638563505484762761e-01
1.709488170139983054e-01
1.672161533034823566e-01
1.156741081227855017e-01
1.034637061957161680e-01
1.771459783415131328e-01
1.651045046300000374e-01
1.724114275686516318e-01
1.617642171651152150e-01
2.168307636995303322e-01
2.004134621825995610e-01
2.869753649152556041e-01
3.506614381881405507e-01
4.060053121150520306e-01
4.323645896822436163e-01
4.294555482734620511e-01
5.416025566426135862e-01
6.684449881801228788e-01
6.490906196398720240e-01
7.448140853153640828e-01
8.589725874226659119e-01
9.014364091730076023e-01
1.017855934474835244e+00
9.740315677262521010e-01
1.008982192539704892e+00
1.106504025721803952e+00
1.052219782251235358e+00
1.086964683591922887e+00
1.081902062904948059e+00
1.092509045513589294e+00
1.044816124937317348e+00
9.937766047586338303e-01
9.120907513417614298e-01
8.971233871137672677e-01
9.125232847899223954e-01
7.403307199776000269e-01
6.493314219068146986e-01
5.350315036581232420e-01
4.850737099595519575e-01
4.320497993932518321e-01
3.618152932699746915e-01
3.226522897162496517e-01
3.280827404614859999e-01
2.702370015728901009e-01
1.925065060664455652e-01
1.315419215354019511e-01
1.840531535736884827e-01
1.236831187387647801e-01
5.907036182571924476e-02
1.218315104503384372e-01
1.241170574587442399e-01
1.620288423983030565e-02
6.212752398826355826e-02
8.325017671652328033e-02
1.097423932940664454e-01
7.451033173266571885e-02
6.817120171027682418e-02
1.187744440928807793e-01
8.724112870393352370e-02
1.222627366769023227e-01
7.764431701299856492e-02
7.560852931618346207e-02
1.441639565564261649e-01
1.344987051518395926e-01
1.600643328018467315e-01
1.218977864967507457e-01
1.194963050614598898e-01
1.896086103925863631e-01
1.084763477356936179e-01
1.970056493271485354e-01
2.042714082114425733e-01
1.955308123993966807e-01
1.540233607372863411e-01
1.549295276476542194e-01
1.777104438996020552e-01
1.495485065420761595e-01
1.637191874541280012e-01
2.158477278058981152e-01
2.196706163394411826e-01
1.721202860557694281e-01
2.270266336852207745e-01
2.232117077731564925e-01
2.574102607924302344e-01
2.313987054522746445e-01
2.479625801730169776e-01
2.320586850152794867e-01
2.483386022027034290e-01
1.811687083856466374e-01
2.166139781956595844e-01
2.192205295336762116e-01
2.128394105069389974e-01
2.328687605138513028e-01
2.376238966846032086e-01
2.290439571058479895e-01
2.102998972373401609e-01
1.915228545427177798e-01
2.441592588946446263e-01
2.190561624842574939e-01
1.750083878052341446e-01
1.964527328630434055e-01
1.463678403226282010e-01
1.958524126307998325e-01
1.847004206582099073e-01
1.690303561829082368e-01
2.291836804409632944e-01
1.421285413351937865e-01
1.929765985934038808e-01
2.321802735846991428e-01
1.935326048559416479e-01
1.547642228822694865e-01
1.160634833807427241e-01
1.034972161072228725e-01
1.262033755853031458e-01
1.120667533748931910e-01
1.051715933751525833e-01
1.110221514888942995e-01
1.117874718254003030e-01
1.234612046892313575e-01
6.584374826259192792e-02
7.662140222277152857e-02
8.646260553986846731e-02
7.961907427127778991e-02
1.348869717642978139e-01
8.116409973038185566e-02
2.029436014576104647e-02
7.586589830920803523e-02
7.443098983195559071e-02
4.917826757106270180e-02
1.153886791686060953e-02
9.583495630458543912e-02
6.298545658706945771e-03
5.367356682385839017e-02
3.546433795973375630e-02
4.325927438446766637e-02
7.237434923773423956e-02
3.411396541159135432e-02
-3.236133259960617681e-03
4.312493682761364688e-02
-1.240513569001409910e-02
8.176893545779578831e-03
-3.862265305057133863e-02
-3.377421357865968699e-02
-4.028323455322703472e-03
2.826434873679853355e-03
-6.179015583019346891e-02
1.837650736659965367e-03
-3.989112517792720025e-02
2.098564618149120070e-02
-2.993498585157398223e-02
-5.493509331482654412e-02
-2.068705428521087214e-02
-5.207253044472128639e-02
1.196391514620222946e-02
-2.750729024121024296e-02
-3.339713467967564409e-02
-1.232633732093249904e-02
-6.137712726852241618e-02
-7.097124487854444830e-02
-2.103826216916732800e-02
-6.719983501478271615e-02
-6.806395987160185346e-02
-1.075206477567327776e-02
-2.083496260932185540e-02
-7.487863754279228123e-02
-5.646285929661294667e-02
-6.557709626037319661e-02
1.429379578678838247e-02
-1.230300299130295677e-02
-5.255543568718151759e-02
-2.305229927755484201e-02
-8.139475829394920980e-02
-6.122393853355063975e-02
-3.819939030482203540e-02
-2.804507688367115226e-02
-4.476868296509280837e-02
-3.460341024497112783e-02
-3.985797465270358997e-02
-4.724386771303005356e-02
-5.131199558932192373e-02
-5.526711967042983314e-02
-3.553036937682810259e-02
-3.012786592679120648e-02
-3.641606715749228645e-02
-7.758547536107808507e-02
-7.199725600036901985e-02
-2.980025008881970194e-02
2.717121955377072018e-03
-3.644911372440394481e-02
-5.287469096817162817e-02
-3.320390183099901360e-02
-7.334597005542134451e-02
8.311822847025598926e-04
-3.191407414361817352e-02
-5.653950672191673799e-02
-4.026253793112356122e-02
-4.972142576921129847e-02
6.949481290881583118e-03
-3.678674892524112783e-02
-2.419656225815434297e-02
-9.593767804335330551e-03
-4.677837499407723476e-02
-1.628843480128444599e-02
-1.119947091790128579e-02
-6.317159259677157523e-02
-5.865960997366706509e-03
-1.149725082000446069e-02
-2.683926101351527538e-03
-1.756953676007130816e-03
8.915995904992680965e-03
4.542902629105691897e-02
-2.571896633306106073e-02
3.934629816685179804e-03
3.888889811645117323e-02
3.814728031864449143e-02
4.244578788624182863e-02
1.163041258881678114e-01
5.721459777974225586e-02
7.784193733150196470e-02
3.982128852605493208e-02
2.432705538161612779e-02
4.969065581783985164e-02
8.537186140119049083e-02
8.095959958133894241e-02
8.540438830887675525e-02
7.120087386638750127e-02
7.047654683849376156e-02
8.005360985438833565e-02
1.106077818715521938e-01
1.171537742771658897e-01
6.440923541123530494e-02
1.197129296533171738e-01
7.912861793698840185e-02
1.140716368102611400e-01
9.513517722555436817e-02
1.482911291004435639e-01
8.873589540740917103e-02
1.061473974289762340e-01
1.180712800073444035e-01
7.234849961407607832e-02
9.473571591135879211e-02
8.700816093844190857e-02
7.749837014830740500e-02
7.757162844655654532e-02
1.220723629845337221e-01
6.899705785799824242e-02
1.027227073044036654e-01
9.477641913110232408e-02
4.422384616800428825e-02
1.041080701836154809e-01
5.061456800594005268e-02
1.189790516850195434e-01
9.525879229431044593e-02
1.249122994821079136e-01
1.045044874721627048e-01
1.707745260568639400e-01
2.243310310005101615e-01
2.078231450511547063e-01
2.556965280104145366e-01
3.358658163636728533e-01
3.911716250166299980e-01
3.640546550083206823e-01
5.627502345055379607e-01
5.870932739490397623e-01
6.633350408831574230e-01
7.097647086756497803e-01
7.284874910399394832e-01
8.707372728257185557e-01
8.939535599741433858e-01
9.795775695679066475e-01
9.990484922262643508e-01
1.043484257177960339e+00
1.030985929613720042e+00
1.084493026389500292e+00
1.013471671489212689e+00
1.093636666660289247e+00
1.058010867013495337e+00
9.932508240819957201e-01
9.264474283201834526e-01
8.220747892559974179e-01
7.907110552086535904e-01
6.808100131478691530e-01
5.640786094475926937e-01
5.837386100968375846e-01
5.031490978942709802e-01
4.030810962258662977e-01
3.071781070086520016e-01
2.721788794791600297e-01
1.873026170644324639e-01
2.289347484883069717e-01
1.174882960694407508e-01
1.452487774991524094e-01
8.798812790134460937e-02
5.220602083039820734e-02
8.832481983336397391e-02
6.118089274545303324e-02
8.962841737425827904e-02
2.246318618939499578e-02
3.600862328376325944e-02
-1.286802090726423681e-02
-5.308409762196417137e-03
1.167477177344240780e-01
1.287563265590550565e-01
7.313944290749008204e-02
5.025315279316611150e-02
7.099886808323373211e-02
1.114185936510315722e-01
7.523603646329435346e-02
1.033896670745663993e-01
1.015592765045214285e-01
9.060808539404757722e-02
9.763368838848165976e-02
1.279543866412282127e-01
9.554652786480605231e-02
1.440434559990592667e-01
1.219008132457522486e-01
1.453231110283258742e-01
1.883519012803777093e-01
1.469754109439802559e-01
1.846412777233263081e-01
1.081309999062084193e-01
1.524263016534341542e-01
1.717954729489047372e-01
2.328574495158442781e-01
1.203001765660632327e-01
1.798863764621770611e-01
2.298651484223711572e-01
1.657097359582806184e-01
1.856623974696036683e-01
2.044667909085430280e-01
2.021865646011257456e-01
2.454218726269517536e-01
2.133537418317079937e-01
2.408308288915453066e-01
1.909383919874155511e-01
1.799038544833376774e-01
1.953675232167205178e-01
1.670245881771541263e-01
2.156021606758836973e-01
1.884636313300888655e-01
1.784784158365717854e-01
2.118392959304992995e-01
1.604787495785071627e-01
2.154884528745787398e-01
1.752895124758004075e-01
2.213737182648936319e-01
1.714878665281794334e-01
1.986185512767113526e-01
1.811766069349718400e-01
1.939884674201841352e-01
1.706214665447436940e-01
1.128601980906054347e-01
1.882703917816292150e-01
1.504443979863521186e-01
1.716712557065529776e-01
1.634656028216007195e-01
1.142123494293033198e-01
1.045200516253973200e-01
1.460957789759185499e-01
1.117460862162197865e-01
1.433004322807562847e-01
1.041990107603201765e-01
1.345757171375371597e-01
1.109086617041734057e-01
1.012087519640021971e-01
7.574843368224673523e-02
8.839478852727740421e-02
1.117284446209683563e-01
6.891792163017028405e-02
8.117374934186705193e-02
6.142710323530461980e-02
5.868594558945838813e-02
1.016845207101270826e-01
8.119945938172505595e-02
4.283318490329188211e-02
4.233256031185726742e-02
1.044030432155985955e-02
2.205870671411604145e-02
3.243861552168904316e-02
4.474389492581153788e-02
3.793265229039698844e-02
-2.142850408145986763e-02
3.771492533306151224e-02
2.460876012289121839e-03
-2.760565883216181682e-02
3.913525806433046372e-02
4.013909578563389091e-02
1.504759847843234466e-03
1.235918828445996265e-02
1.176968474185353941e-02
2.841404437856309695e-02
6.317194452234019264e-03
-5.728617196292998259e-02
4.103840828243274230e-02
1.103906177815694445e-02
-3.777071772671802830e-02
-5.481270700265380297e-02
-1.010827071718303077e-02
-3.482410207376786943e-02
-1.770011122275650869e-02
-6.326568952133938828e-03
-4.656097788616583161e-02
-6.390496657303805506e-02
-1.962102819272808218e-02
-4.789557128489618093e-02
-2.813839897011823771e-02
-7.338169149507989264e-02
-4.114540385691839441e-02
-1.257068432115717588e-02
-1.622555119528711065e-02
-5.838694873371020472e-02
-7.006839962007896383e-02
-3.478630350472613347e-02
-1.862409287473042185e-02
-2.345513722084200184e-02
-5.109197840971020643e-02
-2.687241721111554432e-02
9.219015158059555570e-03
-2.970733139219271929e-02
-8.483226939471763539e-02
-2.968432561316375340e-02
2.562974032767287302e-02
-7.418478940223893758e-02
-3.450974560923006362e-02
-4.199265588692379508e-02
-3.208773788871187305e-02
-2.885611382030235997e-02
-1.585094569711564816e-04
-3.143882932449384993e-02
4.764611352842555714e-03
-3.659477923357203066e-02
-4.301650178351931059e-02
-5.196417014284258895e-02
-8.569958212446240897e-02
-2.212623874062742343e-02
3.210136345070538355e-02
-1.478810038676191957e-02
-6.837642286457487617e-03
-3.861469651329396680e-02
-3.220634653282402476e-02
6.151532244758971257e-03
3.851315425383920049e-02
2.469241923618585577e-02
6.184478636146642505e-03
-1.476410356028120749e-02
-7.182752135483888578e-03
-3.353697655664850119e-02
-5.162875854981295587e-02
-3.902822187955908018e-02
-5.548484895212882351e-04
-7.414398612163822233e-03
-3.912394059758997344e-02
7.672068510682403253e-03
3.286299158364348882e-03
-1.808989429207746857e-02
1.044675439810837866e-02
1.656874256791562514e-02
1.251764983383533286e-02
6.379314918953600533e-02
-1.598119543981518786e-02
-1.324200630721675265e-02
5.174393068722488165e-02
5.990117838022341462e-02
7.454332671159279167e-02
5.164140109118661726e-02
4.562571324788948501e-02
7.821922702344556722e-02
7.035141305314737692e-02
1.351373860624715539e-01
8.369289774550739414e-02
9.640854025975222064e-02
1.765837644887114366e-01
1.004925833944914360e-01
1.266976237934730465e-01
1.327119721287364218e-01
1.381787732154947101e-01
1.274153640928716025e-01
1.265999990450522028e-01
1.253937889415464579e-01
1.062384739418021917e-01
1.339509981393738058e-01
1.852491340623702298e-01
1.604650946682505408e-01
1.325914560614149251e-01
1.480889654740599748e-01
9.494170402694832034e-02
1.115380349412582045e-01
1.459527431436709599e-01
1.602457555049086602e-01
9.072430898755630413e-02
9.786541294670549063e-02
1.768850065657050497e-01
1.142489228625142850e-01
1.671843993308557430e-01
1.214384490267151617e-01
1.274793303208592854e-01
1.184472672405374599e-01
1.666582785265914857e-01
1.937638362566020678e-01
1.411446546232204002e-01
1.859123348573203938e-01
2.539026922173742151e-01
2.586358115407026981e-01
2.901704754982177281e-01
3.841404115575725031e-01
4.420621037866048209e-01
4.562808477969320098e-01
5.418131636642325999e-01
5.685333014055187206e-01
6.494279207379716201e-01
7.518789860415782123e-01
8.192865812633361999e-01
8.556891284339241954e-01
9.235245572618814291e-01
9.651957054820351489e-01
1.052855331033024644e+00
1.010537289879106515e+00
1.056695492902629319e+00
1.035040409863491107e+00
1.093624915521868690e+00
1.003713076861840081e+00
1.022998948601019142e+00
1.024355397968608639e+00
9.691034357170734692e-01
8.010719857441119807e-01
7.953334698134161274e-01
6.848282333663046062e-01
6.059284202832326827e-01
5.666033073400859044e-01
5.379007230966319497e-01
4.542418643463826400e-01
3.552171474327104894e-01
3.441878694442201958e-01
2.084440116342318738e-01
2.123574197637828065e-01
1.757674694719555675e-01
1.744029766334310450e-01
1.431103578908032303e-01
1.271165266528012094e-01
1.127125203159594913e-01
1.090428624521732476e-01
1.182292417072513813e-01
1.028539969070255689e-01
8.839662747179276303e-02
1.093085459873980037e-01
1.237786831521067998e-01
8.515756580739558546e-02
1.037539652739601775e-01
1.447438881433871227e-01
8.164756618390107967e-02
1.740826040044921308e-01
8.524745619886077430e-02
1.207346795200179707e-01
1.083963749525687498e-01
2.084315609091060006e-01
1.336313526763655002e-01
1.396587031257434386e-01
1.494995037710324104e-01
1.693889756955143100e-01
1.625044064595109472e-01
1.741239252108139901e-01
7.788233279298946432e-02
1.909965010103144845e-01
1.951941610439945629e-01
2.310310917531380182e-01
2.441767832224194801e-01
2.041030269335874503e-01
2.388309136803831445e-01
1.856699141873813241e-01
2.458567842823709826e-01
2.095126432647581860e-01
1.947124607612407965e-01
2.279544819300202696e-01
2.784947096050996995e-01
2.445472870077606831e-01
2.863163826820679936e-01
2.209236075227754836e-01
2.764368280638077602e-01
2.266981509478754042e-01
2.539260325228145931e-01
2.542086004795602316e-01
2.677322617242556824e-01
2.552268784377166866e-01
2.249859100802645562e-01
2.726705188884848141e-01
2.969589278505360697e-01
2.258975808742889613e-01
1.864196406253438854e-01
2.541929042322025878e-01
2.266970741423112168e-01
2.298129384717565449e-01
2.472523509907181283e-01
2.134178628964540081e-01
2.153234680402100198e-01
2.164176378582128302e-01
2.593156460192314050e-01
2.117139938273571997e-01
1.691356620925754395e-01
1.655470099720513510e-01
2.006600497303777930e-01
1.575213555651959196e-01
1.393364408944539334e-01
1.999723082868734847e-01
1.960600916443948627e-01
1.590368414203588709e-01
1.734017249645601610e-01
1.647197109539578208e-01
1.716232453253041523e-01
1.661750337474436068e-01
6.436413731755913359e-02
1.298668494555798303e-01
1.472163184964957183e-01
1.140299644951435626e-01
1.221741639342028424e-01
1.384453995932411474e-01
1.132913606097950693e-01
1.511533105550014466e-01
1.348994212906784729e-01
9.283708096384131470e-02
8.589397207204631235e-02
1.910318756007049756e-03
7.335820369845727495e-02
3.844126276623562738e-02
8.171850461054322445e-02
7.586879393852725972e-02
8.851987834112050313e-02
1.060672621450838293e-01
6.006360767243577176e-02
1.261098200975927230e-01
6.167646340012163109e-02
1.256022157311205770e-02
3.232426293076929441e-02
3.547684892180177213e-02
6.204578726459403226e-02
1.363346241685171704e-02
3.102295943074886986e-02
3.318032192424855836e-02
2.275069562105343571e-02
5.884833702838202646e-02
5.218094749575884900e-02
6.649261120269299441e-02
2.023289758580535530e-02
6.501615750585947040e-02
-1.309943839626489387e-02
-1.485258085005412322e-02
-1.054338531474040969e-02
2.530696486992878302e-02
6.034522750020222120e-02
5.531425435676095431e-03
8.690580700408703091e-03
1.597595098508254596e-02
3.917155361515507056e-02
7.249183487292167744e-03
5.223790287462514587e-03
-1.943374053781461372e-02
3.528342995474213761e-03
5.580256137598230137e-02
2.304919552318813319e-02
-1.990157504696742075e-03
5.721289344721601500e-02
2.532288439073795278e-03
6.268281880919644722e-02
6.222181761747942741e-02
2.185643597019079620e-02
-2.468549183104595118e-02
8.908315705191086065e-02
3.217603908658872580e-02
1.103392627034052893e-02
4.966147615980604640e-02
4.230980706888044784e-02
6.087012729790530763e-02
2.013699586168128663e-03
3.182470153998558093e-02
-1.287113350355428495e-02
4.318209659317230609e-02
2.304854352956399108e-02
3.277553227185747708e-02
2.063301466478275822e-02
1.824900890336859580e-02
5.714380556558658342e-04
5.126370333938577023e-02
7.327578822618915910e-02
1.302913062769506941e-02
4.760015475571396926e-02
4.535436404669691141e-02
3.416698389573971650e-02
-1.018814506405728640e-02
-1.591886928134410295e-03
1.604343911462958322e-02
-2.250028914652232176e-02
8.629676699694505126e-02
5.767012629078427377e-02
4.852771840260584196e-02
-1.328275909547778355e-02
9.206442567528498599e-04
5.899641890252228793e-02
1.218295109433127910e-01
4.562058252439914197e-02
9.657223105765153082e-02
6.054670093670444508e-02
8.108466490385965453e-02
1.205382699471069102e-01
7.856145029575066496e-02
7.323355293330269244e-02
1.416095070463134764e-01
1.056754409510802656e-01
1.423706423882370453e-01
9.445847769591732279e-02
1.626220754256016143e-01
1.340276415414491384e-01
1.442152766231564742e-01
1.403925140192797683e-01
1.264327926100265731e-01
1.465430455583227043e-01
1.381169412972889921e-01
1.847487359370539595e-01
1.541678287682508586e-01
1.193553859119692584e-01
1.175192464260734204e-01
1.193810941577767570e-01
1.926039558561549181e-01
1.419793347168337161e-01
1.875443527509889907e-01
1.841992255929065236e-01
1.792547273031819821e-01
1.949733325896565173e-01
1.867316420303448410e-01
1.004020181841152604e-01
1.712709584642858607e-01
1.926302152238427434e-01
2.276473322217378303e-01
2.273304170385933576e-01
1.339713206768203824e-01
1.624582913163303000e-01
1.241641619875137603e-01
2.152543973100702335e-01
1.991136659722051172e-01
1.791772562801493551e-01
1.747970922876147248e-01
2.140355922039290371e-01
2.138949654533132960e-01
2.199188604288120352e-01
2.097807519956400579e-01
2.004156281071731716e-01
2.532633287420542612e-01
2.792423225307040235e-01
2.792498383975391407e-01
3.107630414201402735e-01
3.980160375335757283e-01
4.630833634239773788e-01
4.460240632446842990e-01
5.216226031737454250e-01
6.058782013175854075e-01
6.793790299872496385e-01
7.206162073174470217e-01
8.645588661481068415e-01
8.907047587777109365e-01
9.600223527649059951e-01
1.056734468175571262e+00
1.042116022161093003e+00
1.094378977381072149e+00
1.089111949197334894e+00
1.138286012896062127e+00
1.101920539668327814e+00
1.158399874786142814e+00
1.124586455273056895e+00
1.067263319644860875e+00
1.025098522307533955e+00
9.941916448782234239e-01
8.732311750367329761e-01
8.442781557387055713e-01
7.870769561874925158e-01
6.397707314102448750e-01
6.420831973621738964e-01
5.024440211699223724e-01
4.844835267162345138e-01
3.937166500792752544e-01
4.181350265231852381e-01
2.934271180256800005e-01
2.380480957034715461e-01
2.573023435960889449e-01
2.126482727931564010e-01
1.572247337601617168e-01
2.004344513309015141e-01
1.116088005978311537e-01
1.307524711438807774e-01
1.382778643714377420e-01
1.759629689007613240e-01
1.893025946801205894e-01
1.838191600614093313e-01
1.478267618877437961e-01
8.238453987722610394e-02
1.705501455298868985e-01
2.072053174577425383e-01
2.048501269978635353e-01
1.868338762130247743e-01
1.426331575879014324e-01
1.681201669663522358e-01
2.475839478679823791e-01
1.528395618400923972e-01
1.667215151394769168e-01
2.352597918029647739e-01
1.998582929041317624e-01
1.831086488538190560e-01
2.701041047776205350e-01
2.437140636236255486e-01
2.239386819181536925e-01
2.064024910012234315e-01
3.074338729267921955e-01
2.503476329736182837e-01
2.978851905118835575e-01
2.874547197691901812e-01
2.494773391278987673e-01
2.539358756138826445e-01
3.166778079916260369e-01
3.208569759822252898e-01
2.240811642956401506e-01
2.999896141000822913e-01
2.826551078641697523e-01
2.577636057950111192e-01
2.987537462674354494e-01
2.522091098452122204e-01
2.801492879515267154e-01
2.712791301986599013e-01
2.809701481612537077e-01
2.941874662612138924e-01
2.658689569602805669e-01
3.431720513429658004e-01
3.100544508156629631e-01
3.480141898076922202e-01
2.879433738215420036e-01
2.745042321159144039e-01
3.416042482687207116e-01
2.690649278211748041e-01
2.782947185657018707e-01
3.021754588021434151e-01
2.400797639786018678e-01
2.949090475190062066e-01
2.871656555966795588e-01
3.035924836383356862e-01
2.878308267440394252e-01
2.955323960020221907e-01
2.484287695569141752e-01
2.208929934717366317e-01
3.049464160643726718e-01
1.905807844772101911e-01
1.882011651082724502e-01
2.424644357437802100e-01
2.686922357039284726e-01
2.199979113437580402e-01
2.386142103168543693e-01
1.430575894108980506e-01
1.822321100388193393e-01
1.352937854928854822e-01
2.092413669844780388e-01
1.337673211257381367e-01
1.362578730819823669e-01
1.844880324093750579e-01
1.954763235105831665e-01
1.534982437663623411e-01
1.701204865404425948e-01
1.640093011267455547e-01
1.363945324432782602e-01
1.051272350093973851e-01
1.501626530813228722e-01
1.469988543621482957e-01
1.509645188072756827e-01
1.291955624172825556e-01
8.062369363937993416e-02
1.323918557964518516e-01
1.078026959168105758e-01
8.968489793657027920e-02
9.181141553225766194e-02
7.658629070176832532e-02
1.207617070341785864e-01
4.851244354288253291e-02
5.836559173840632359e-02
7.557325450410043444e-02
1.312639765914805079e-01
1.120399755867073632e-01
2.888755638173395174e-02
1.164912480404604322e-01
1.144038017330248624e-01
3.679887787829777546e-02
-5.404008531627826906e-03
6.641136942769000628e-02
1.007016014589824648e-01
1.133250131855340348e-01
3.812290544530731740e-02
1.155648216265773576e-01
-4.982720822477963718e-03
4.975061143028831900e-02
4.729486547085948178e-02
9.347775418162286576e-02
9.702594811589199120e-02
8.594112233502851361e-02
1.609947445732012872e-02
8.185604976994492743e-02
7.066630852860611434e-02
4.728011931559999992e-03
-7.626357099232358716e-03
8.508862270641363856e-02
4.815384326480186272e-02
1.464963214836302596e-02
4.664630291504626852e-02
6.353516293816813265e-02
4.988530887152192728e-02
5.601296481133312410e-03
1.085498004587439613e-01
8.196345000684709947e-02
4.166084682794991834e-02
4.278629624662838582e-02
6.237314506261223274e-02
1.768288197685452534e-02
6.127012340036369631e-02
1.172368783832878486e-02
4.962575774891624797e-02
1.682439668719363374e-02
1.852634868045131139e-02
1.016799876176076312e-01
5.438181053766551198e-02
5.918703526759117040e-02
-6.947236577997992213e-03
3.598998691129895455e-02
6.832649830985021433e-02
6.099675752230086789e-02
-8.664496505326635400e-03
6.306468363478952288e-02
6.886150173856833701e-02
9.752176549984123421e-02
4.063625108328325353e-02
-5.534274978872433248e-03
3.341973472923383259e-02
3.217636488554034835e-02
8.913494496736099060e-02
-1.233423350069271646e-02
5.804829483734063461e-02
1.168080115824478987e-01
7.699556295753029467e-02
1.066279900654534957e-01
3.366075123084903004e-02
3.824888115104475850e-02
1.330359349725410700e-01
9.677767307579537848e-02
1.008681421079667406e-01
6.845117551183506344e-02
1.094303986087077352e-01
7.661062929915439523e-02
1.513296423762222620e-01
2.024255808178266058e-01
1.400848820511734205e-01
1.115768242592736631e-01
5.972769130891988909e-02
9.033807503284452256e-02
1.926412702127765220e-01
1.201966424695376234e-01
1.449411561195221854e-01
1.805988335104282139e-01
2.101212964884927037e-01
1.641808046831247647e-01
1.623084746469490303e-01
1.806044032170536495e-01
1.633256326635187938e-01
1.682974389004199267e-01
2.008530971466510884e-01
1.966399161145806485e-01
2.571897340210548277e-01
2.081238556129405559e-01
2.307514665677798116e-01
1.648703440941400866e-01
2.130862737314931366e-01
1.755010105217001959e-01
2.084635179541201588e-01
2.162403973650180444e-01
1.956795082789665741e-01
2.646687236747202743e-01
2.332937273404709633e-01
2.236134331609487824e-01
2.090280813554831474e-01
2.369255799639215787e-01
1.391643271254111303e-01
2.222037014713441061e-01
1.510572904366043745e-01
1.648060260236811903e-01
2.011896935749294402e-01
2.261178177483750273e-01
1.619991268871907031e-01
1.920260333035184175e-01
2.250647996286594399e-01
2.358600758485796811e-01
2.915670890575521312e-01
3.992394134635877667e-01
3.450973038662547565e-01
3.532098883727980976e-01
3.855410672550390050e-01
4.700330761370165034e-01
5.125745553708587199e-01
6.205565176158729379e-01
6.893748472211380651e-01
7.331950084463561002e-01
8.780782017086248281e-01
8.660230849752220683e-01
9.500016120745631287e-01
1.031997895729661607e+00
1.090455667724043787e+00
1.142629415793115610e+00
1.145932223881449330e+00
1.180399453566359336e+00
1.131080525022202909e+00
1.166989143259560269e+00
1.141681159672418788e+00
1.122643089931584459e+00
9.789462009678656651e-01
9.443215811149401340e-01
9.315946971199657867e-01
7.577224656371120970e-01
7.795843842401841695e-01
7.234885872419652975e-01
6.025120156812100447e-01
5.379167762213022952e-01
4.538918212392721308e-01
4.110674683839589116e-01
3.585335968433366327e-01
3.057976612229722502e-01
2.635933074076876048e-01
2.433571713895356092e-01
2.147473651533850503e-01
2.567379916673120377e-01
1.709268344286126728e-01
1.796819881323517831e-01
1.424187480090483293e-01
1.355860673146481177e-01
9.833333145481025495e-02
1.006718932321786220e-01
1.116869427874333243e-01
1.548676815409999741e-01
1.841780045924866771e-01
1.016600010335126647e-01
1.427889377044747887e-01
1.227338160624857899e-01
1.606469387468053844e-01
2.059428232347884635e-01
1.655429054718424442e-01
1.829300549696684375e-01
2.334984535386720184e-01
2.091064666799241356e-01
1.781043980815264216e-01
2.111945288455790437e-01
1.870779173895817937e-01
2.299306780881472667e-01
2.381011361988112363e-01
1.868429498045830472e-01
2.382009294728147930e-01
2.343601146966008131e-01
2.590013378145274436e-01
2.721890762328235680e-01
2.659553336164512949e-01
2.466968983611404487e-01
2.877139097890540342e-01
2.371874173342126690e-01
2.271572787213774758e-01
1.740216279903044616e-01
2.705832852684385559e-01
2.505358742617737611e-01
2.892858127902981913e-01
2.200534092140362663e-01
2.612694180204013783e-01
2.959376826622389101e-01
2.517238344543295536e-01
2.953262518853272955e-01
2.664051244514991645e-01
2.818353228465014793e-01
3.000150713840115668e-01
3.097240365744395874e-01
2.825373343270272120e-01
2.536124697492032620e-01
2.622162451954279661e-01
2.926532042965920843e-01
2.401660429834675536e-01
2.624035328639088283e-01
2.528057070897507530e-01
2.576261036715613018e-01
2.265155165360095979e-01
1.970402588208422789e-01
2.637791500294038860e-01
2.724096668904332774e-01
1.848374341753010741e-01
2.445936045001056158e-01
2.607691149158390953e-01
2.407422358733613543e-01
2.048185335138501539e-01
1.833490042112226326e-01
2.083190460863358073e-01
2.074785034124474736e-01
1.970125061613966777e-01
1.827839496603910763e-01
1.497323832194668303e-01
1.889081049640882193e-01
1.843769198754788285e-01
1.703241415916323387e-01
1.617171591516821660e-01
2.029069024302068702e-01
1.280079875771305276e-01
1.794729833409207387e-01
1.133922806910251380e-01
1.631680338390255613e-01
1.615004113652822593e-01
1.104300589377528730e-01
1.639030391423746402e-01
1.231351488158289181e-01
7.787926682217269359e-02
8.825468279826327589e-02
1.288969746254003679e-01
1.181968774315079462e-01
5.451312671910631819e-02
7.798623917106142778e-02
8.434035241854889731e-02
5.923844646440378642e-02
1.415931570517012794e-01
7.442112107944572064e-02
6.226655920651649051e-02
9.671151416645126786e-02
4.704715454588984103e-02
8.539322420957157211e-02
2.450864233183077528e-03
3.632726607925703538e-02
7.900037572323687085e-02
9.235836153829282691e-02
1.990578141105933674e-02
1.438538912976631765e-02
5.619696761750322955e-02
1.868915469145653388e-02
2.763735744093881452e-02
6.040415289542346022e-02
1.630390716439032023e-02
-2.772823511650414352e-02
-9.102826987800294312e-03
2.900625867097920280e-02
-2.833926378925343340e-02
1.757779675344264825e-02
-1.627221881147161361e-02
7.375153551333989144e-02
8.863088424411767752e-02
-8.889368000355505478e-03
2.979231499440378877e-02
-7.439861771700400500e-03
1.142203447510792974e-02
7.417853118440237425e-02
5.487862775668586254e-03
1.036030214998338167e-02
-9.844673834409969904e-03
5.234189616318509625e-02
-8.038283587575552336e-02
3.823207637932308015e-03
1.535497505980592745e-02
-3.443999919545298952e-03
4.198407059451599033e-02
5.186127693620880275e-02
-2.680338473748288680e-02
7.815605531451749743e-02
-2.751409045458879862e-02
5.371617879832172454e-02
1.947041486426346474e-02
-1.684115821798982948e-04
2.681944451951070660e-03
1.403639870712578529e-02
2.143748327693330985e-02
-1.220571762358377971e-02
8.672566330579358634e-03
-7.051993435038544575e-03
-1.991203652249533967e-02
-7.406027586090978623e-03
-1.670017254916976446e-02
6.001677744113188134e-03
3.251929768044934527e-02
2.424670021993218655e-02
8.108790294171482060e-02
-4.306188591077245165e-02
3.889796221617244920e-02
2.675774911696642694e-02
5.297293058819867173e-02
5.213280042144800147e-02
2.803050559681110471e-02
4.071238660890585948e-02
1.597883579379891228e-02
5.969742897736770443e-02
-1.187444695927097026e-02
7.121859347470341217e-02
5.085383404720161121e-02
4.077925221323679128e-02
5.245490248080447032e-02
5.888055627039331247e-02
1.069720066631469207e-01
1.696072586536011562e-01
1.138804881262829721e-01
6.511523061696752879e-02
1.058414107284754019e-01
1.120740593600067780e-01
6.906743150246678897e-02
6.393461790679524914e-02
1.047494174930725802e-01
1.356844270223563353e-01
6.778259930759966689e-02
9.903349280865822446e-02
1.421650733678637979e-01
1.303258721991135127e-01
1.753775936203180175e-01
9.405473576015788151e-02
2.101249059897704052e-01
9.621153406399139685e-02
8.386744024551404109e-02
1.449420422505718897e-01
1.141994814332358693e-01
1.481369025256192851e-01
1.476880938356484041e-01
1.441591263791651700e-01
1.244303954322007327e-01
1.619055259898767030e-01
1.382071652206177115e-01
1.792555664670318905e-01
1.388241463848801649e-01
1.131308469541192352e-01
8.911695453410999057e-02
1.322329407839290261e-01
9.710003603124114924e-02
9.279304333946675198e-02
1.478194406669207095e-01
7.826485692555687490e-02
1.748230517875445922e-01
1.398052316862427036e-01
1.384436450971172350e-01
1.162028706237754061e-01
1.810065105689215581e-01
1.727909580495999020e-01
1.717059686751831182e-01
2.229070581910510274e-01
1.967977968071000783e-01
2.347493259486354011e-01
2.931317296220078972e-01
3.865699177859306945e-01
4.314987547323059780e-01
5.241810257833985354e-01
5.309326482542284786e-01
6.450616333188118334e-01
6.956036071876960936e-01
7.419948132399581953e-01
8.511253151029342101e-01
9.026989394707949366e-01
9.445533495764123488e-01
1.014968756659191840e+00
1.049757046772353375e+00
1.077067590548345999e+00
1.084312224751284859e+00
1.058903103954279334e+00
1.087917092426505361e+00
1.035931225152573187e+00
9.914263974772026256e-01
9.659454004127793203e-01
9.372088181467531642e-01
8.557100442943296192e-01
7.642708917531306767e-01
6.904347530142325162e-01
6.534306373563583126e-01
4.905643622973184237e-01
5.174842635998410101e-01
3.727741964187444301e-01
3.273117535599678329e-01
3.011513841500828570e-01
3.348762237042255396e-01
2.797561071236122632e-01
2.166009772684868440e-01
1.780459137744777876e-01
8.892056309779440559e-02
1.318681576553649704e-01
9.740345677762213272e-02
7.982929378895495254e-02
1.025773019972610889e-01
8.002165640344220676e-02
1.185926681676807842e-01
3.451150098367466307e-02
9.627803720655025987e-02
7.015652035201394576e-02
8.756382824780790941e-02
1.129421145083433081e-01
7.470711362704973713e-02
1.179278616001453311e-01
1.116623458934316859e-01
1.034298104719215960e-01
1.144705707122298938e-01
1.293707243329040579e-01
1.164332351497864154e-01
1.451520572560897615e-01
1.420471556786405132e-01
1.374648636883729624e-01
2.088443349788768888e-01
1.788652591954709992e-01
1.600782003681616716e-01
1.809592263771221399e-01
1.506552807134016458e-01
1.730665338012306598e-01
1.810916125090937800e-01
1.576104430462233474e-01
2.107334480271297328e-01
1.878040732789766909e-01
1.959127085859211359e-01
1.928484041032643148e-01
3.017304017432040353e-01
1.958277045746274481e-01
1.560826486966839233e-01
1.722588719645248845e-01
2.448169100501724760e-01
2.635709585492598817e-01
2.041144039712924629e-01
2.636734773306472213e-01
2.479309320491202007e-01
2.200160533361283643e-01
2.175422477008177313e-01
2.300754266805082326e-01
2.499073076074872501e-01
2.340810952959402336e-01
2.000861616337952509e-01
2.130485873867830060e-01
2.752614810588029925e-01
2.205827029591774513e-01
2.360335589316284455e-01
2.227547540947549809e-01
2.110735108616171862e-01
2.021728164332902145e-01
2.216124353541175651e-01
2.117848110910841575e-01
1.934500564415888024e-01
1.598185300995165203e-01
1.871048652129912448e-01
1.682616105027589515e-01
1.556037815867613028e-01
2.396592060274537750e-01
1.074527784882002013e-01
1.766110429688159678e-01
1.161286946949085241e-01
1.400383067923045843e-01
2.072124178108167847e-01
9.531263962682222368e-02
9.649032227051231037e-02
1.117144581355761640e-01
8.088332679401383229e-02
1.269233650521115475e-01
7.852397992459286824e-02
1.084083161240680521e-01
4.322322777808949856e-02
2.329935478342520100e-02
6.514553666104722085e-02
1.958592552875321191e-02
1.069395180696246506e-01
1.037980303024309964e-02
2.016491282724931083e-02
5.887088772237603768e-02
2.418840530759609059e-02
-8.300861543069915083e-03
9.407885519978922972e-02
-1.379808584725437937e-03
1.873247433465379669e-02
1.445799296004229850e-02
3.831925623472395154e-02
2.731883119407985117e-02
-1.475666463294804040e-02
-2.969325888434987126e-03
-3.087400680515883789e-03
2.325765060570223614e-02
-3.704167066752190457e-02
5.591728060524450705e-02
-2.989271511682369681e-02
-9.732328598506811979e-03
-4.648816443983562474e-02
-5.272263252872523565e-02
-4.197574344071468289e-02
-4.670428236476435041e-02
-3.174775198471053994e-02
-5.031134470174432327e-02
-1.594214866765267247e-03
-4.736985920337876549e-02
-5.202059035356400296e-02
-3.823219061163673355e-02
2.188943223651942938e-03
-2.222389239474300421e-02
-3.266028343185047034e-02
-7.359026936472623515e-02
-6.574367745501341620e-02
-7.061644824748591898e-02
6.197585517307035996e-03
-1.778055034889144612e-02
-6.018461823438290420e-02
-5.185789555300951426e-02
-6.023122775367370507e-02
-6.255173320470436282e-02
-2.263010510508740858e-02
-4.549028088490804367e-02
2.518233666301532281e-02
-9.512285607840564872e-05
1.359638532275754541e-03
-1.806907454373372565e-02
-5.114084466155239400e-02
-2.074460009102778099e-02
-4.932576181911946245e-02
9.901089286893170749e-03
-2.698743217294963942e-02
-3.131355955384777789e-02
-3.539785494046755743e-02
1.301858806711524152e-02
-8.213099245643265545e-02
1.615597669145203696e-02
-4.439131213222939631e-02
-8.073920662247908997e-02
-6.079657452037760812e-02
-8.735043776109686908e-02
-1.772513322510566730e-02
-6.789663603118288593e-02
-3.099641953226768901e-02
-1.224859573558965964e-03
-5.448345683836715303e-02
-4.130433540982814122e-02
-7.115704505779088529e-02
-4.234791447001583914e-02
4.804615398364985024e-02
-4.140222623070372032e-03
-3.354063432647377829e-02
-4.187785722157969653e-02
-2.253467547088848499e-02
-1.487558734237212285e-02
-2.865790126959416595e-02
2.724217055973518486e-03
-3.865329587866823957e-02
-3.545384820604464277e-02
7.969622170830643892e-03
-3.441520887619183011e-02
2.650258970428186894e-02
8.390155299859494709e-03
-4.164582291376245360e-02
2.102068328002023451e-02
-2.812100826621759947e-02
4.806446416119906223e-02
2.474114223220379161e-02
9.275626922530263996e-02
7.443733871807503566e-02
1.557287698639618634e-02
-8.145023336827865446e-03
3.486002334034118272e-02
2.582669572431205152e-02
1.220656411046773665e-01
7.165237503735634450e-02
1.044335519470698803e-01
7.211215932777534365e-02
7.923117720544906040e-02
8.729118287501705375e-02
1.247724264775060821e-01
1.038581729004187104e-01
6.532224209668233139e-02
1.478266852687324662e-01
9.203292563669265847e-02
8.836105414102488065e-02
1.788571002559569828e-02
1.220804804239968150e-01
1.058961114153770255e-01
1.052356606344116430e-01
8.910639043393975278e-02
8.250820485808368909e-02
8.692662056008931826e-02
1.099088115284673067e-01
1.130372176070739976e-01
8.476067305503667826e-02
1.181298640981420789e-01
8.561082868457357831e-02
7.177466027689807793e-02
9.268858523684123107e-02
4.707317742478336897e-02
9.767326404479817481e-02
4.947903051842090366e-02
7.273700832349422329e-02
5.420672485489988479e-02
1.247185071394739386e-01
1.981055777513578975e-01
1.713909972964480499e-01
2.250679213360147757e-01
3.133630681133533491e-01
2.983566619446927914e-01
3.131338878104839019e-01
3.732648767550684754e-01
4.536808229692780303e-01
5.008968089346611530e-01
5.727634950441512496e-01
6.905113043887118884e-01
7.631581760251914259e-01
7.522954274411387532e-01
8.422110156486130039e-01
9.114182392886561734e-01
9.933294806162091817e-01
1.049235574752470646e+00
1.123624673641936633e+00
1.043152167057419311e+00
1.045540789975545337e+00
1.062831885411511745e+00
9.986235696398840789e-01
9.765228247745120216e-01
9.191501492103273385e-01
7.947895365262827028e-01
8.120123618195640436e-01
7.329406779522806836e-01
7.040590152196279927e-01
5.931093180953602717e-01
4.837432797632081893e-01
4.451456448641215591e-01
3.260524849387017587e-01
2.937440002112791104e-01
2.964753331959381066e-01
2.237274931946608980e-01
2.190267438619584173e-01
9.884828116520466557e-02
1.230354078812216090e-01
9.396889930766194610e-02
1.197439825064506441e-01
9.839471659322074348e-02
8.832876683482998592e-02
1.092806511628246491e-01
4.856652571837451193e-02
9.834800956096811930e-02
2.735536334990816554e-02
2.798708638348319094e-02
8.577952249561449083e-02
2.165049325525311708e-02
8.819055092651810479e-02
7.872857993618237460e-02
1.128734743780046013e-01
8.421706479738452766e-02
9.314529259123893734e-02
1.123289000503141510e-01
8.283656114159476669e-02
8.723557802952314200e-02
1.283695603025983845e-01
1.189547998588743327e-01
1.132680418111407239e-01
1.285924858747267141e-01
1.844143332076700059e-01
1.286807983506750852e-01
1.330766746346207230e-01
1.011322583195250202e-01
1.560364432943991408e-01
1.817792545672860527e-01
1.917203146859814411e-01
1.742206205252364581e-01
2.037497679317462618e-01
2.008568860389586264e-01
2.158826875982719495e-01
2.153118592628961159e-01
2.358715620465354768e-01
1.863592795329355178e-01
1.539934216991534210e-01
2.157391542975255760e-01
2.209254396888484240e-01
2.459416956854472147e-01
2.382596701887221280e-01
2.588063156916149965e-01
2.192984746013431352e-01
2.074664613996849982e-01
1.585911360442981421e-01
2.085634048296270970e-01
1.815704329675520423e-01
2.029662875049336734e-01
1.963890394299291076e-01
2.067037296401763036e-01
1.871049028917440016e-01
2.152344752116288895e-01
1.023463868935559629e-01
1.863093844168589863e-01
2.129786200627881154e-01
2.290408579704136804e-01
1.906910425548204446e-01
2.148457644733468563e-01
1.647262839210744401e-01
1.549129825565371543e-01
1.657069684009517818e-01
1.445733723860370412e-01
1.159094805555815483e-01
1.185193622265801605e-01
9.511272229580272630e-02
1.387525981095063254e-01
1.176088562812950683e-01
1.007844270346179016e-01
8.889630345389029631e-02
1.153474820900710629e-01
1.179200443483230110e-01
5.492979668021203549e-02
4.459633602566261124e-02
1.063013040616390265e-01
3.092218305949016866e-02
8.319468912320979181e-02
1.099667520881847244e-01
1.048322107549783389e-01
7.330317879229697464e-02
6.746813648528889040e-02
1.089308364892665471e-01
-3.334865609844117618e-02
1.820855245771924036e-02
5.319962526400463798e-02
1.338745913270007054e-02
5.661879855188959448e-02
1.432476248798893875e-02
1.569974935231230329e-02
-8.785829688019719530e-05
-1.095504624003475203e-02
-1.496279306013782034e-02
6.476773846109389055e-03
-2.784468254896068501e-02
2.119570682199593825e-02
9.557568420408696364e-03
2.045513934950687202e-02
-4.873630092281944909e-02
-6.805118803831533558e-02
-1.925221238319924436e-02
6.591164025822407457e-02
1.513739541220222168e-02
-4.115441390614504868e-02
-1.333851385599467768e-02
-5.684925626883850780e-03
-6.989378155631120748e-02
1.102094299225515189e-02
-3.621747828997170376e-02
-3.494839503708421780e-02
-3.245892918947091560e-02
3.030669587976708712e-04
-5.747019637339371989e-02
-8.673096129860839720e-02
-2.647030897359571242e-02
-9.804005170053611828e-02
-4.627305044937701090e-02
-2.085481598452162966e-03
-2.071640769295270135e-02
-7.165173479722647398e-03
-2.012417388122812734e-02
3.332138946330862050e-02
-5.684739337073257265e-02
-2.742770182105398399e-02
-5.264854734933361452e-02
-1.089762458261815323e-02
-4.151035385849000808e-02
1.187517808773673467e-02
-5.560783707536041953e-02
2.571012588842867819e-03
-2.177393084805223644e-02
-4.043241045980359993e-02
-2.303963758513587201e-02
-3.129140823493212209e-02
-2.822694003523625039e-02
-4.484491372984637791e-02
-5.937317432489296054e-02
-4.801390648418855933e-02
-8.803725923006619491e-02
-1.180522247570253702e-02
-7.357309146477365724e-02
-4.242930360446006688e-02
-1.576034357825019383e-02
-9.233944126150119003e-03
-8.677360058689104205e-02
-3.530290430063909302e-02
-1.765447838337998523e-02
-2.866196001280827549e-02
1.145788010541201607e-02
-5.201665278602550513e-02
-8.717770225729110090e-02
4.234619804833264500e-04
-3.800471378880260209e-02
-7.247068663754685502e-02
-2.209989753727235884e-02
2.214241120792462963e-02
-4.989453438955997189e-02
6.107310847854527380e-02
-3.093609092247937703e-02
2.371372606690749785e-04
-3.530095894451736743e-02
6.385510932129079276e-03
5.202793964594526477e-03
-3.118442231860795583e-02
1.027580936972944947e-01
7.791539121283753977e-03
1.265647184205376252e-02
6.155234016335813657e-02
9.203100215412313156e-02
7.662580523799250587e-02
1.210719775661964204e-02
5.992103942402186856e-02
2.443357299435726382e-03
9.130227165569193559e-02
2.051234764813915368e-02
5.070217978451642404e-02
7.980786040900647582e-02
9.819684575099732471e-02
8.176000041182107658e-02
1.396626861867684144e-01
1.200133945606106783e-01
1.215726204401968574e-01
6.891905844455059604e-02
1.599774753478282741e-01
8.769786416175423538e-02
1.662842282086832157e-01
1.767478768915543841e-01
1.329279975387200885e-01
1.495092838823380288e-01
2.659501676615852461e-02
1.133059965522102974e-01
1.518500259630633509e-01
1.457316263593125272e-01
8.023815357360347678e-02
1.065301883926571686e-01
3.751738874601168172e-02
1.241195550524593072e-01
5.333633282281050048e-02
1.420077923576759382e-01
1.421915950930008332e-01
9.171182531112506697e-02
1.217437339749170011e-01
1.010585732176201013e-01
1.180357836025998641e-01
8.180923598530515095e-02
1.431501194118092735e-01
8.689263116771414608e-02
9.692003067155842422e-02
1.685201284600630900e-01
1.914705762767912600e-01
2.373999566748044299e-01
2.473603639987858593e-01
3.674445217466867364e-01
3.661270290011686690e-01
4.248552585050980879e-01
4.858754497858400745e-01
5.767341801617207331e-01
6.339446273222111294e-01
7.016809035688603702e-01
7.821300945098802471e-01
7.747447391236890191e-01
8.409257382611670106e-01
9.507183105955469005e-01
9.968757633570670684e-01
1.059489133900280100e+00
1.069954164216306181e+00
1.100960277851061653e+00
1.046604156853477630e+00
1.070399694867345541e+00
1.004030282652354611e+00
1.017214671084153865e+00
8.998760174060818073e-01
9.083734522713401427e-01
7.886971025793126921e-01
7.514325002455753966e-01
7.174779113774426564e-01
6.247538420468069509e-01
4.973707327298456660e-01
4.585113115836260134e-01
3.700342842836134571e-01
3.060553427849952435e-01
3.083260585654569730e-01
2.759109078049662434e-01
2.330882651405899453e-01
2.050026256464259067e-01
1.595490465855135265e-01
1.301310494734042866e-01
8.944642544646438931e-02
9.602014152702512129e-02
6.084202269452475276e-02
6.948686929913101828e-02
9.443682612199347237e-02
8.725482438744978919e-02
1.834306017558900159e-01
5.314383354693519301e-02
9.283160641307543204e-02
5.773994489640965622e-02
9.329568471252158712e-02
9.945307486755454451e-02
1.404899512970007869e-01
1.071801178587575010e-01
1.206340108147445217e-01
1.192878543970667532e-01
9.606470658794184769e-02
1.244701139671601925e-01
1.385188730459671058e-01
1.581152187214329152e-01
1.785475317964224928e-01
1.605524148228709980e-01
1.657472524078605625e-01
1.273007099762941685e-01
2.005999039987715893e-01
1.688642098226180444e-01
2.173193655192436347e-01
2.393757966862123665e-01
1.990161383156577313e-01
1.785015221171402933e-01
2.130063310663627973e-01
2.280175679497505881e-01
2.118674037992242243e-01
2.079010673763473094e-01
2.449166160206582010e-01
2.458132794600077498e-01
2.230482404730412815e-01
1.860318315048037630e-01
2.512194836532159470e-01
2.160330604833700929e-01
2.466527303299823892e-01
2.455677124009432999e-01
1.848134914459644007e-01
2.440008223185644587e-01
2.567290388736883644e-01
2.597728284321964565e-01
2.431887468105051742e-01
1.790113890942962027e-01
2.749551184789346681e-01
2.469538858203803589e-01
1.961786124509647955e-01
2.059857321863425572e-01
2.335934377494808256e-01
2.437993447414793236e-01
2.052414797204954178e-01
2.408614910146796850e-01
1.582851361969341009e-01
1.765408093555911606e-01
1.414217353412163536e-01
1.717783449251506223e-01
2.391189600512536317e-01
2.506339807362477079e-01
1.908270160015056727e-01
1.594109880065546492e-01
1.665934075274286830e-01
1.820445656818931446e-01
1.154983170817804744e-01
1.397159769521601203e-01
1.944185661493021133e-01
1.144761456470550220e-01
1.178638518604452623e-01
1.352449757578067513e-01
1.379006058579249072e-01
1.052703758648688148e-01
1.210141033728212301e-01
1.317111821802657845e-01
1.671792332354194444e-01
9.951664632708602520e-02
9.714876745818860904e-02
1.394191957626397249e-01
7.246066156884829745e-02
4.468400679810886900e-02
8.754589434931681069e-02
1.080973500060478376e-01
8.257110021476705974e-02
6.491389690872542695e-02
2.061666902704443680e-02
5.872243551229936603e-02
9.403488590238567868e-02
1.674514865975578609e-02
4.331569981204894115e-02
3.608275730217169741e-02
2.398319180285930774e-02
4.971447519524356540e-02
5.309092255645443681e-02
5.044074153180128084e-02
5.961281056097577670e-03
-1.616287900586953208e-02
3.917642276898510717e-02
1.434783824865462631e-02
8.302314952181016894e-02
8.288024080704066432e-02
8.465458104321074706e-02
-4.567848471439857859e-03
3.952564730553870254e-02
4.748459758781745088e-02
4.311532094726155256e-02
8.833580928713006403e-03
5.702845622237726758e-02
1.793803081649308906e-02
2.111476574516741797e-02
-2.944269641609907617e-02
3.552446934748762497e-02
7.922618711552245271e-03
2.929197241922491118e-02
2.207200644502109108e-02
2.016943020988266194e-02
1.314205181315338325e-02
3.792986323786388253e-02
8.226962001607995845e-03
-2.955940932300007290e-02
3.110661788814881798e-02
-1.025405044407931218e-02
-2.569844609695485366e-02
-1.659072080097952206e-02
2.265671233983137384e-02
1.137383371508236471e-02
-4.956602824767383786e-02
3.082602325141932734e-03
4.988058980131349768e-02
1.510991966385931071e-03
1.036839913341242037e-02
4.694421579930014438e-02
3.988274413050883066e-02
4.707946014919037192e-02
-6.629150440645903419e-02
6.940294798201238069e-02
3.706068583927470128e-02
9.244956136588738937e-02
-4.156189407691864013e-03
-3.280271313525612298e-02
2.119122520013970792e-02
1.368234776167816247e-02
4.262610858323041818e-02
5.644984000691458115e-02
2.289178108361163144e-02
1.973077003795584844e-02
4.421795580306245310e-02
2.258399859264002482e-02
2.197514788731938506e-02
6.536251374142287851e-02
7.429816490001259210e-02
7.147145928631774836e-02
3.655242742177117199e-02
-1.974143992363330824e-02
4.307059024228867411e-02
2.805759335877575089e-02
5.040343465343369300e-02
3.787893566055060279e-02
6.132235278503285481e-02
3.491130674857856331e-02
3.201838551250821979e-02
1.116667389226477097e-01
5.062571703858474020e-02
8.462290895593342632e-02
1.182957329806016422e-01
1.222653617518543179e-01
1.239621914319097851e-01
1.145609779478036216e-01
1.326016313423484527e-01
1.574972556655153677e-01
1.344610323311629108e-01
7.194707145855995523e-02
1.164699884597381468e-01
1.583520512268501435e-01
1.236167428997328871e-01
1.957967857432059144e-01
1.498196341344812943e-01
1.585145793264868819e-01
1.936270267315451377e-01
1.579793033212355535e-01
1.719554817462488616e-01
1.964385743497821246e-01
1.276667134872768172e-01
1.651995242290050514e-01
2.000969227731213829e-01
1.781868164738366622e-01
2.207671212794525828e-01
1.295365368895112224e-01
1.257364343378442606e-01
1.987317929512974757e-01
2.004433093249182729e-01
1.671797483762493819e-01
1.832546353077387224e-01
1.917237042892994403e-01
1.430671336546631700e-01
1.445517510216258739e-01
1.700923327798815887e-01
1.907958056448119388e-01
1.289122150528984601e-01
1.594923837711886561e-01
1.614063381846641276e-01
1.868411664756589874e-01
1.824376890766271075e-01
1.781522302746176012e-01
2.478827788783931063e-01
2.148447266829307534e-01
2.481526285414330790e-01
2.408783747975885015e-01
3.051280526748323951e-01
3.863501318098350179e-01
4.312152827437630842e-01
4.964136688260101793e-01
5.572788092626295153e-01
6.702444541821021007e-01
6.552969661995442507e-01
7.009211389909445478e-01
7.895326914623962411e-01
8.691799191453577489e-01
9.258045844150928350e-01
1.015902039407723167e+00
1.099967257393405617e+00
1.147270652668787694e+00
1.142807753823051664e+00
1.205364027575412056e+00
1.130183037472960228e+00
1.077940390369439783e+00
1.131380230331733072e+00
1.005363974421640050e+00
9.879581126750607289e-01
9.674774532306975594e-01
8.833164454471943428e-01
8.106090886309702537e-01
7.084893279128394727e-01
6.708723971625544236e-01
6.301813082135810928e-01
5.327511311125791016e-01
4.438308536373823387e-01
3.733651842849506908e-01
3.346549182207256834e-01
3.252793545318461432e-01
2.848411957838603015e-01
2.178120465180640730e-01
1.487046291305048062e-01
2.062439522123743485e-01
1.501772845495679409e-01
1.854921844694028821e-01
1.334940402757666122e-01
1.209678910751257608e-01
1.521691780364408664e-01
2.173436166095091271e-01
1.697817375345285484e-01
1.534076456390959797e-01
1.631204157624737139e-01
1.036438098586543455e-01
1.269297785560100089e-01
9.014613540188758101e-02
2.225787870475896824e-01
2.219562195632203139e-01
1.935436681411586979e-01
1.915534831217864109e-01
1.467649293527142629e-01
1.925812418232242251e-01
2.587836608888341994e-01
2.147830794646414521e-01
1.996825662972464277e-01
1.695912629852044384e-01
2.693625954339111117e-01
2.313589042306876398e-01
1.861352429442667544e-01
2.163333121625969357e-01
2.107881029600310874e-01
2.500250245494377577e-01
2.648523939418584439e-01
2.479646676552821338e-01
