1.137349987879066271e+00
1.153234862838512065e+00
1.123911851094810288e+00
1.122583215143319268e+00
1.072518451769008063e+00
1.027486690486842935e+00
9.347699848047579252e-01
8.516509197761322758e-01
8.115662130553088494e-01
7.003816828219540103e-01
6.895095211380471989e-01
5.821114364873094527e-01
5.081531371463660074e-01
4.693522639941375418e-01
3.967192037749702749e-01
2.992452616344251082e-01
2.737515390412220695e-01
3.004823118309581376e-01
2.406827609617537556e-01
1.629475185110208502e-01
2.044507844345908043e-01
1.622622337403543114e-01
1.419960354519443912e-01
1.265083181815422897e-01
1.863406393125929539e-01
9.521681122864272817e-02
1.287933773625898892e-01
1.587715311279405128e-01
2.049527469016660386e-01
1.775703616851477817e-01
1.396296199910785907e-01
2.154781313284712674e-01
1.339275102716548926e-01
1.878161897728526097e-01
1.999737331505168636e-01
1.645358784502188310e-01
2.176206116237906218e-01
1.870529661708837110e-01
2.291202196492137799e-01
1.588647192855408008e-01
2.298531292099791901e-01
2.131330262959209298e-01
2.655988002328478204e-01
2.352977421419592818e-01
2.794811500850952757e-01
2.624774769574217403e-01
2.485069374730717318e-01
2.808645976712659809e-01
2.857592561879930271e-01
2.805804016126854927e-01
2.019048503250582272e-01
2.451963451014403106e-01
3.199281801873909425e-01
2.441760606300561187e-01
3.114813079375769456e-01
3.090448181650502502e-01
2.686014740258412248e-01
2.327085297554642718e-01
2.773490930126089049e-01
3.582598144481242142e-01
2.711696418001453002e-01
2.740298570261391342e-01
2.683575977495318288e-01
3.347923945224702824e-01
2.907614745108945131e-01
2.786097144685963922e-01
3.387700864900887177e-01
3.123753439235496532e-01
2.656883499243082314e-01
2.544956100723198555e-01
3.235528937156619822e-01
2.865951114714119785e-01
2.365939003185545397e-01
2.262502542207530942e-01
2.426579831330610837e-01
2.350825119014417486e-01
2.067610009692533168e-01
2.307993813165999386e-01
2.316358235237025720e-01
2.405517385485222426e-01
3.002620767826033044e-01
2.363494504572380417e-01
2.340637892698326783e-01
2.489803412114557912e-01
2.210891896572218240e-01
2.346327124388015439e-01
2.253980207920465717e-01
2.149591449078269156e-01
2.885458393716128223e-01
2.271419506260539400e-01
1.616156972313018414e-01
1.994523248155165573e-01
1.589065137348673051e-01
1.904085088209780396e-01
1.301910598238181505e-01
1.327153657422273647e-01
1.708565425978902097e-01
1.851596446526281303e-01
1.651090760947750979e-01
1.705726176822248974e-01
1.512104674107320745e-01
1.403523783976025618e-01
1.153894015195628953e-01
1.503594784456357969e-01
1.523360207566598068e-01
1.154709642307754913e-01
1.097887261645505430e-01
1.571299142745293809e-01
1.050265667560328631e-01
1.043218635485131524e-01
1.131503554194116246e-01
9.242088561825213822e-02
6.763393741451402541e-02
1.006275845440752492e-01
8.532314503998124355e-02
1.391000297859003587e-01
1.049787492916122861e-01
6.109568789355970114e-02
9.860472094156289002e-02
8.387506655730783689e-02
1.119567861666488084e-01
5.509914121803111131e-02
7.477069227014573882e-02
6.452902025462291247e-02
6.775627151956856165e-02
3.804944957723406518e-02
8.058460914050079305e-02
7.464121960318144400e-02
9.954216648696496972e-02
5.965101453273694704e-02
4.664124270629099733e-02
8.179347165606126735e-02
3.347571004922265947e-02
8.910314254577149373e-02
8.835094426876687057e-02
9.295237694578376009e-02
6.595340381926370621e-02
3.952924259216895886e-02
5.691445165572085046e-02
6.459761087172045946e-02
3.598705875608451676e-02
9.241683901030270376e-02
6.949167812898850161e-02
2.501976234743299304e-02
1.079994499525440133e-01
5.418946361909302012e-02
1.822554477189947814e-02
2.594700993396411443e-02
9.531843566038347704e-02
1.052885390385958631e-01
8.070119049563814762e-02
8.989730294866131455e-02
8.674222356792879451e-02
6.690223002474482428e-02
6.004363859770640161e-02
6.637441051247151835e-02
7.229591131277973703e-02
2.803806071484459678e-02
7.235227832952441374e-02
9.430039347368415759e-02
4.454440728868477861e-02
4.158221166345667241e-02
6.557612555919278829e-02
3.215238649622928491e-02
1.256908210884452592e-02
8.701335085618815135e-02
3.964602771130652098e-02
5.441403321438128410e-02
3.634513356072993640e-02
9.385164678024160434e-02
8.216608267070030225e-02
5.050222087234790269e-02
2.362319966793383075e-02
5.006036127777779149e-02
7.918358891274540623e-02
6.952136053871521559e-02
6.910048656085975016e-02
7.433452128908525636e-02
9.310212805160390792e-02
7.164263788049429760e-02
8.916998399183426183e-02
4.904811967612819623e-02
1.584744617236077679e-01
7.676370560450854197e-02
9.502308987439023191e-02
1.097559006484584293e-01
8.448864388275867388e-02
1.012915529959051153e-01
1.053529338534828774e-01
8.265328604309341021e-02
1.279712691661238355e-01
7.020207390223934252e-02
1.772268205674598640e-01
1.534761883428727991e-01
1.539472694004665465e-01
8.777395678650201649e-02
1.211760493791844556e-01
1.916542820097158484e-01
2.794394436833736450e-01
1.955395219884725477e-01
1.954334482544107798e-01
1.844922602917112853e-01
1.474897147450738299e-01
2.066585022506935432e-01
1.473377761109964379e-01
1.472764701970620815e-01
1.482275221293008483e-01
2.181371977105444060e-01
1.891452813502488284e-01
1.954475746309171091e-01
1.930528765137099478e-01
1.603687659158076761e-01
1.741756756128793604e-01
1.753822432664129405e-01
1.510919211271633256e-01
1.769653300531408291e-01
1.581233087787415337e-01
2.060526630339373222e-01
2.064810009789941336e-01
1.456478902041700996e-01
1.733763277784966250e-01
2.359631311399640330e-01
1.492715360996590968e-01
1.905842322357771124e-01
1.810473708431252771e-01
2.121621136995735235e-01
1.915871039893416727e-01
1.755066878802951646e-01
1.991248733757177147e-01
2.118179381171750031e-01
2.231091535966048256e-01
2.076446516969371603e-01
3.113498851930640576e-01
3.388925368341350053e-01
3.148060642395351660e-01
3.829304388715754626e-01
4.375655407042666756e-01
4.682025333798440769e-01
5.110317075867190084e-01
6.156100989497217402e-01
6.969334838901308782e-01
7.378189278387686789e-01
8.593812640378286627e-01
9.594117846341827516e-01
1.015430076187811892e+00
1.044949343926332208e+00
1.042950318593561132e+00
1.158014511374619193e+00
1.166786763653742121e+00
1.187408022361958970e+00
1.230957621441236549e+00
1.132282065805552129e+00
1.041482835445756150e+00
1.054483350252033880e+00
1.048241557703983862e+00
9.731580381671427471e-01
8.678257879283529652e-01
7.891524479835179129e-01
7.463007689888101481e-01
6.446200211617640896e-01
6.244658810270825589e-01
5.267584324853400446e-01
4.552565488643844915e-01
3.919639417133479187e-01
3.695389159960092984e-01
3.164473987201394944e-01
2.813638164308551737e-01
2.472477930306353489e-01
2.122329383104358536e-01
1.614645886332285452e-01
1.535251227235716887e-01
1.508739346265061398e-01
2.156316038043822325e-01
1.072700654533080000e-01
1.317851676971833197e-01
1.460028942601983015e-01
1.343215921769717602e-01
1.773226396155584694e-01
1.385551289265664621e-01
1.442684655656036041e-01
1.798371614728017653e-01
2.142627945271195211e-01
2.070421452790674188e-01
1.658348537223983121e-01
1.737368051495560006e-01
1.820261792377537990e-01
1.905068915892793036e-01
1.661821214025841487e-01
2.252084893841322932e-01
2.087925443469536568e-01
2.066833376478946493e-01
1.752579980966607887e-01
2.205314463052099605e-01
1.670235151336740276e-01
2.113938685756376890e-01
2.168206904021907633e-01
2.470213465015945187e-01
2.993136889178503734e-01
2.643726705866557558e-01
2.947376403869724770e-01
2.744679313725393865e-01
2.924287676033994754e-01
3.176808107036515061e-01
2.430115330017937614e-01
2.437496279216354311e-01
2.901074955055608084e-01
2.719865556360029357e-01
2.804249626751103008e-01
2.677272253158423654e-01
2.583209917622809049e-01
3.254965334905490781e-01
2.441821308258474432e-01
2.977114020642406822e-01
2.924247937240963546e-01
2.285434172711013623e-01
2.498463280089057714e-01
2.533890370471727493e-01
2.883569550083480149e-01
2.582147692834563246e-01
2.641297168756727154e-01
2.201146341352736291e-01
3.304542655296608955e-01
2.593442417185360394e-01
2.684219814762479617e-01
2.332034601573962918e-01
2.255558752588497917e-01
2.979862557841725934e-01
1.783507211672334669e-01
2.392517664805107191e-01
1.893987579829943535e-01
2.082754872430461757e-01
1.958133259931360559e-01
1.797754804340811197e-01
2.047037929490834463e-01
1.207914768555615886e-01
1.824844158708712194e-01
1.833005534003536441e-01
1.392527850453511851e-01
2.194288390526085708e-01
1.501962629502228141e-01
1.549163132075880855e-01
1.383140346477464144e-01
1.477174329210794446e-01
1.835508661578428014e-01
2.127108860982735994e-01
1.551877217012344601e-01
1.598523508727647813e-01
1.732058547103527135e-01
1.237958294249833224e-01
1.581787644574890184e-01
1.297174128148852745e-01
1.052784970293113437e-01
1.066277642453667962e-01
3.678370823165091896e-02
9.565246268527717588e-02
3.619618693553962319e-02
2.952955527306494465e-02
8.001371875641771769e-02
3.690609418767254457e-02
6.637743154126145295e-02
6.716682648333245631e-02
6.508740993006909004e-02
2.921164653232593417e-02
8.018988709332146303e-02
4.759829271736749912e-02
6.070198242214239898e-02
8.915557670511728774e-03
3.693854110844000532e-02
7.282304688106278068e-02
6.675700925084949999e-02
1.160720090918270636e-02
1.715543115206192779e-02
1.974617105186225741e-03
1.016760106859364472e-02
-1.378069625757071849e-02
2.247880703417801107e-02
4.414726623079923140e-02
2.217563716677018598e-04
1.976157583382662924e-02
1.465252572911427895e-02
5.178526338839987281e-02
7.200364764544265467e-04
8.147764998416816284e-04
-8.242848004840538229e-03
-1.786205470291808706e-02
3.131919759397869263e-02
1.062196748183247795e-02
1.559892241354775798e-02
5.151757195251354532e-02
5.260575486271203832e-02
-3.734027191350738212e-02
3.092103435759920027e-02
1.772808432397631612e-02
-3.385035378597307798e-03
1.982671547569923517e-02
-4.223385627552857235e-02
5.302499460620360705e-02
2.420780214487577159e-02
-1.755768647599919782e-02
-9.500608853037573534e-03
-4.334453407520361817e-02
-1.955587567719564018e-03
-7.279661897480861968e-03
-3.278474176161640802e-02
3.006466261788881544e-02
4.489340514978016478e-02
5.628043325873789866e-03
-2.824581652876032370e-03
1.933059226483317336e-02
5.672604229317105597e-03
-2.617358657797017735e-02
-1.320383071901138142e-02
-2.371141041413386830e-03
1.418029473290433051e-02
7.302100558065452093e-03
1.370272864170897671e-02
-3.789283874965655025e-02
2.836846846506162895e-02
9.183269734416833752e-03
8.644957693268902343e-02
-8.445179162357323906e-04
2.154341643009997920e-02
9.792065268598026950e-02
2.023078142209865787e-02
1.391266630856510984e-02
-1.195326045275029760e-02
6.540355597412657318e-02
-1.311965064921190999e-02
3.676883104575003058e-02
1.226041462319122331e-02
2.351355971246284898e-02
-1.058008732514644987e-02
7.559463960891134315e-02
3.034747835586533785e-02
5.823507914720001469e-03
8.366001998654438998e-02
3.495801121633387853e-02
6.431145979290063541e-02
8.388087844359456979e-02
7.738134712800902315e-02
1.919779421433229823e-03
9.345158372259343427e-02
7.443211701994748020e-02
7.249837404827620679e-02
8.404374918932148997e-02
4.395664875652824377e-02
1.029242119664936506e-01
6.105205309557219101e-02
9.811891900907791786e-02
1.159396735673765416e-01
1.478393521763465557e-01
9.516712626421806875e-02
1.671740138569433876e-01
1.556007000923468886e-01
1.175456013652340370e-01
1.000310855029772350e-01
9.244954127369987840e-02
1.459675038549073378e-01
1.173075139853392013e-01
1.765629964697375820e-01
1.208883930483781455e-01
1.144783032499234049e-01
1.482685336345055949e-01
1.199899582375425489e-01
1.397136666966560248e-01
1.675334458876530930e-01
1.396302118386866242e-01
1.376360746958476822e-01
1.378843497340602187e-01
7.861225529836503301e-02
1.389463370424136590e-01
1.300855215400559817e-01
1.507293871582397748e-01
1.416335467656495706e-01
1.181436899283020425e-01
1.575720880881520403e-01
1.223691580120728623e-01
1.458160180825653074e-01
1.396329468935137430e-01
1.773413500991977976e-01
1.713220906540128818e-01
2.564067834141715574e-01
2.976630958620866130e-01
2.997708656413539674e-01
3.627348090902225985e-01
3.198601077609764531e-01
3.793284297453662357e-01
4.741324779580353699e-01
5.518461986430118760e-01
6.153083985441863968e-01
6.449100393864838354e-01
8.020761171149501934e-01
9.038696292383749942e-01
9.455288021405662269e-01
1.001399023916377917e+00
1.029046584441412726e+00
1.040116469937304000e+00
1.098776370311706607e+00
1.177771147705342303e+00
1.108113203066941166e+00
1.094964328529909769e+00
1.118007210776519544e+00
1.083308466231114986e+00
9.744834649385734071e-01
9.341813393428156642e-01
8.614106108490654501e-01
8.075546591230348126e-01
7.643843405330770224e-01
6.319613645569155391e-01
6.145894767782784651e-01
5.135306397650996058e-01
5.130576503388412091e-01
3.909415849015274169e-01
3.226470193213188953e-01
2.934766294981039914e-01
2.234370706930050854e-01
1.435265213250924432e-01
1.602006439929238857e-01
1.354921246441834204e-01
7.634863211971004704e-02
1.074269845736344070e-01
3.704656776293385745e-02
8.141180875527911920e-02
9.471361608531161935e-02
8.815515832330264590e-02
7.258697991969204066e-02
8.348363704148001330e-02
6.479933552508489181e-02
9.180028340408719068e-02
9.704757833149556256e-02
7.263614521171556093e-02
1.123930048251129132e-01
1.172025290071825737e-01
1.095692904324008926e-01
1.925216389318425425e-01
1.210928429116277238e-01
1.224099645364291611e-01
1.236046284918013161e-01
1.126255901953386318e-01
1.677706389801658093e-01
1.319856437571264862e-01
1.408314793163569223e-01
1.469161512998475305e-01
1.385848717864572310e-01
1.205269471548208737e-01
1.639346231957664879e-01
2.086043932687302038e-01
1.926948990811269968e-01
2.377656485141050324e-01
2.174043690678840457e-01
2.142697347167413779e-01
2.584374366618646945e-01
2.021680099387288820e-01
2.098024916824954567e-01
2.100848775826415493e-01
2.589402638010024904e-01
2.145690382307694766e-01
1.965723982793710356e-01
2.348309279741599420e-01
1.935396611096384112e-01
2.345008101410626933e-01
2.310206289649162081e-01
2.126702626510197092e-01
2.347120929957564606e-01
1.721297435840842271e-01
2.203216864325578950e-01
1.998678588158175340e-01
2.975917740804917000e-01
2.140346024299723815e-01
1.887762972730251398e-01
1.623100609354511670e-01
2.395070782570330459e-01
1.862374694748159532e-01
1.691133657565638826e-01
1.987954246511315082e-01
2.038035874366871114e-01
1.987060254414311777e-01
1.754426584166756953e-01
1.745938561606631689e-01
1.715710102558123673e-01
1.693360340852396173e-01
1.664864206440314076e-01
1.809496966408214724e-01
1.440843804957440411e-01
1.120821410369044202e-01
1.263889568016691167e-01
1.474181152882000356e-01
6.526927330765341928e-02
5.949381821480628080e-02
1.345236094673454841e-01
1.466617741375393635e-01
5.722409398151396404e-02
9.236974864131416996e-02
7.161314986866085253e-02
7.009869354832934385e-02
8.150616782202427246e-02
2.807436072011314232e-02
2.827784255728277296e-02
4.721351053053686464e-02
4.677736683468856904e-02
1.238564275749012844e-02
6.502365965841601370e-02
2.412686208938405463e-02
1.947248775624876860e-02
3.623740761263115340e-02
1.968090600960353820e-02
4.462460579094282287e-02
-1.238762116300161364e-02
-3.002895450532663824e-02
-9.610273514067749212e-04
6.740893621900292954e-03
-3.552812203755951331e-02
-4.302002615376887551e-02
1.154054518372145399e-03
-2.982444803314544812e-02
-5.329483304254858944e-02
1.675605374989477814e-02
-3.350323658150855533e-02
1.773472372659824076e-02
-1.798546297344764955e-02
-1.195140126930992891e-02
-2.897336719381567519e-02
-1.040021731839348429e-01
-6.005970203588892331e-02
-3.123122750441753581e-02
-1.792209199501130362e-02
-8.386350430579397885e-02
-3.300098880951093938e-02
-6.619580055524910966e-02
-2.654433738193543585e-02
-3.514486066917769935e-02
-1.316707245823718619e-02
-4.310500160387746582e-03
-2.332656220199743127e-02
-1.200755818256014212e-02
-4.899861661175282379e-02
4.558670632413549390e-02
-7.624277199515658299e-02
-5.603835422463673138e-02
-1.365146284009036842e-02
-1.855889946497431622e-02
-2.693144100958842421e-02
-2.167260182660601595e-02
-1.047863631203982820e-01
5.081700881369326239e-03
-4.900312894405696451e-02
-5.771351892403846218e-03
-1.043891869484489116e-01
-3.589545382222394249e-02
-6.068073225464948317e-02
-2.676901535041919383e-02
-3.455064472767960249e-02
-3.318361968558010411e-02
-7.600630021146521920e-02
-4.598890782277665484e-02
-4.969302586532707566e-02
-2.940038948766429336e-02
-1.451252283568864321e-02
-3.956497846654959821e-02
-8.220377156604045943e-02
-4.047696030111348070e-02
3.490161600907706885e-02
6.288875439176028204e-03
-1.319111902704316330e-01
-4.028657873326313421e-02
-1.364258353561379616e-02
-4.639824079630268383e-02
-5.394723574872693772e-02
-4.725375559467763498e-02
-2.165378985535496709e-02
-7.151237463743766176e-02
-9.026819288414367204e-05
-3.596691279546211650e-02
-6.070742686642650182e-02
2.880700140040388935e-03
-7.521101489606285551e-02
-4.332619188881491057e-02
-4.143070728572445516e-02
4.263609777339327778e-02
-3.942035504265187229e-02
-8.048843930332806595e-02
-3.004399191808575231e-02
4.546449406592503739e-03
1.808907796680365998e-02
6.676161225820262390e-02
4.477604761982162396e-02
1.250510602041852298e-02
-1.539519016644861488e-02
6.471348077757427264e-02
9.727720533472997144e-03
5.956581462254237347e-03
1.820572064465759282e-02
-1.761574999647533279e-03
2.698810326777567603e-02
3.908727922631204110e-02
7.311792390408303199e-02
4.461316629321740446e-02
2.319227349785876746e-02
1.792767915607970663e-02
7.697884071644932324e-02
7.730923350026275287e-02
6.268995210409723795e-02
6.919825122540865237e-02
9.845823213670920615e-02
1.317484085474441291e-01
6.947332784592621935e-02
9.798162011018707318e-02
1.260687508516842303e-01
7.559520527914506682e-02
9.950754353225205184e-02
9.946848979422376336e-02
6.143649331472225000e-02
1.055418654427157932e-01
1.007085483571864837e-01
1.152847446044016899e-01
6.153557260662823741e-02
9.565392411573048204e-02
1.348064677165901060e-01
1.535767626604089553e-01
1.275934869336715349e-01
5.203723507381244340e-02
9.948957211412090551e-02
7.080039166236311299e-02
9.421486189083780327e-02
6.440220176276859054e-02
3.997027152335316802e-02
8.731046213014742596e-02
1.286486634395087869e-01
1.286184021289666635e-01
1.494092881998722588e-01
1.661312475438481151e-01
1.996700008719737851e-01
2.373903407631590134e-01
2.536731600532548536e-01
3.114101411047765500e-01
4.147463800704636050e-01
4.263691223774459527e-01
4.884682476052247813e-01
5.597261385348036855e-01
6.225126280876447371e-01
6.896411771134428603e-01
7.818713239179443386e-01
8.304347390948352281e-01
9.060637035043792586e-01
9.441333358020068678e-01
1.019024128058852119e+00
1.069949430094270015e+00
1.069980723997913774e+00
1.026316051151324515e+00
1.100393374366092525e+00
1.068417746746340491e+00
1.003840207701732101e+00
1.013541182804760465e+00
8.945945290287078411e-01
9.055605876185048864e-01
8.037391334151380295e-01
6.645231398601366690e-01
6.631647068562666059e-01
5.710463282374882432e-01
4.940061499075604767e-01
4.197021942930430072e-01
3.740324474952200218e-01
3.051044710281544670e-01
2.121318417309051296e-01
2.607809397558919495e-01
1.766695495986094488e-01
1.297775101006196363e-01
9.156196197708034445e-02
1.276331557238587489e-01
4.947785574478439502e-02
8.057279984965859398e-02
5.075624536340284793e-02
4.722638792792013124e-02
2.708708971908756896e-02
4.080203761809889085e-02
6.050201985876482724e-02
6.939023891915288567e-02
4.184185123579164944e-02
6.651747898991858254e-02
1.003098168559193176e-01
2.861901074532596789e-02
8.347009724168705236e-02
6.052602858107301864e-02
6.302315298729191384e-02
1.080970496361205735e-01
8.963787842496415137e-02
7.525019323094345181e-02
1.572416233999880120e-01
1.508481481278186043e-01
7.095811031021144466e-02
9.030339928370467728e-02
1.578547563469024917e-01
1.369049297800601361e-01
1.957337710343307891e-01
1.743177251962166607e-01
1.697492647597205750e-01
1.348549487116120493e-01
1.847892457248069276e-01
1.360804083942551979e-01
2.175731280381252852e-01
1.948814666416585351e-01
1.609977228360346679e-01
2.131178546357660741e-01
2.591545559145591593e-01
1.879959536125781205e-01
2.133261455857961009e-01
1.858123526945937021e-01
2.029374472738700030e-01
1.564190763995050859e-01
2.025239602306697084e-01
2.043918485189451517e-01
2.572381061957610959e-01
1.492402702654153646e-01
1.941257597649560518e-01
2.403001207095311342e-01
1.931545214465341109e-01
1.936710029607909833e-01
1.718768567289577220e-01
1.666283401557386301e-01
1.372413200993810312e-01
1.702408172982211310e-01
1.562394385595872459e-01
1.859802315361555880e-01
1.550588733147749698e-01
1.602975631001249679e-01
1.568784908861655947e-01
1.645392231790482329e-01
1.454659821606668624e-01
1.246217482846492669e-01
1.540368497601479203e-01
1.783306111972060015e-01
1.448751196123201634e-01
1.173333552015374953e-01
1.264511983703874298e-01
6.307380036318868677e-02
1.148059577785186386e-01
1.013388366494271664e-01
7.969088554251128886e-02
7.947784577638250525e-02
8.409716657528605588e-02
1.205743881395062583e-01
1.180068837904920398e-01
5.190788011464685797e-02
5.879128197763796443e-02
5.422564524645930722e-02
8.805865715594354826e-02
6.301612213443523458e-02
5.643245179778230702e-02
6.486219649512092733e-02
2.614277110479536204e-02
8.035451402095511453e-02
3.493585178179196837e-02
5.013335439569492624e-03
1.966006660607774043e-02
5.952466607611978100e-02
5.991160931281672153e-03
4.357312087854539606e-02
-7.170144579311706068e-03
-1.471314690339015768e-02
2.487305759678876127e-02
-2.414530931883348067e-02
2.389712282478945876e-02
7.072493914875993548e-03
-3.222858837294310941e-02
-1.055927221103591246e-02
-2.712899482996179029e-02
-2.304944153784183047e-03
4.188811818198751036e-02
-2.770631178370945580e-02
-2.283812732479288676e-03
-1.915336038106428551e-02
-2.063695017404105353e-02
-2.767469678507163133e-02
-4.969385726358620942e-02
-1.506802267996438377e-02
-3.483859500466340159e-02
-5.428278068102104781e-02
2.410671197659079723e-03
-2.583819404420921104e-02
-3.636838616725986822e-02
1.003173773098447324e-02
-8.582903160087254624e-02
6.925029835424770241e-03
-5.811874494557368875e-02
-2.576507189767272832e-02
-5.009905454281583792e-02
-6.044493024628476430e-02
6.408985033490209593e-03
2.246815588596439567e-02
-4.002668917671600018e-02
-2.346069257287632798e-02
-3.191598284536020791e-02
1.822084643728313913e-02
-9.712717267647666408e-02
-2.242845102266781410e-02
-5.553787476060967343e-02
-1.043583107648737573e-01
-4.442459006562292367e-02
2.192920478762656195e-02
-5.307150910630266394e-02
-9.518598127267290099e-03
2.894161470015067794e-03
-3.324299597063308520e-02
-2.901444712226338915e-02
-8.385083256728226297e-02
-5.354567060613141943e-02
-4.511267910587927338e-03
-2.952000677362966521e-02
-1.989285328317622059e-02
-2.644002846239966800e-02
3.586024968523081335e-02
-4.221793512023447326e-02
1.952683210589005458e-02
-2.388685877169349075e-02
2.376205169912617293e-02
-6.289226478662141018e-02
-1.958045980705681519e-02
-3.579643658058764832e-02
-1.854639591131156118e-02
1.532713237728709765e-02
-8.452058324049858268e-03
1.847465851715369978e-02
-3.640197924034636184e-02
-3.896695732855020439e-02
-1.160382310302218722e-02
-1.086109813023560661e-02
-1.269322396796069077e-02
-3.308653705086127272e-02
3.463345016567624668e-02
-8.993721023870915321e-03
4.810989285353504952e-02
9.365379499805728120e-03
3.230940490653749775e-02
3.367540680543232301e-02
-3.488770803481811011e-03
3.674964111441290926e-02
8.826448748061621608e-02
4.281590634919142657e-02
6.731325602579055212e-02
6.621423541353953224e-02
5.987885016514397918e-02
6.159681273264432100e-02
7.781184984053535203e-02
8.970425356029203268e-02
3.164419441719824866e-02
8.498615448022837915e-02
7.732052217930213134e-02
7.625288661324029771e-02
1.318751376155358201e-01
7.580257885904131965e-02
6.051990859126035738e-02
1.305287234702069976e-01
6.803243612630884007e-02
5.645233394790628162e-02
1.448136347702707327e-01
1.252033043526335487e-01
1.370765481210161618e-01
1.116333623876640119e-01
8.492879485656958105e-02
9.197712907797694903e-02
1.200078811943527390e-01
9.016307789780947379e-02
1.372620460381585028e-01
1.134714227694326588e-01
1.318092243567048072e-01
1.294987915584875915e-01
1.347824497375359754e-01
1.363439080437572060e-01
1.091988067649348054e-01
1.233310798314696671e-01
1.235351276517129560e-01
4.283423562864201173e-02
1.352586450006460772e-01
1.218133531249983581e-01
1.374185631942665409e-01
8.730816034060244479e-02
1.246558628744547370e-01
1.130122802023832557e-01
1.837844180028457008e-01
1.396907995082100340e-01
1.797131766902307082e-01
2.552099475473560419e-01
2.582133423249153847e-01
2.937160328037837775e-01
3.998266473063799009e-01
4.584459227454061869e-01
5.148295068414631137e-01
5.866333723530152700e-01
6.258212179125243191e-01
7.002271794556634843e-01
7.606371842237634739e-01
8.568408434383952832e-01
9.034811578308179492e-01
9.673578332639822808e-01
1.050741811777812451e+00
1.110100600430605766e+00
1.116154230417424120e+00
1.174333363617428239e+00
1.101633641723992474e+00
1.055846520585302040e+00
1.106954489711049705e+00
1.024214473068594256e+00
9.897834013985226109e-01
8.861185432610793056e-01
8.461361019148593288e-01
7.568597438918350795e-01
7.148806949731967286e-01
6.413890737237873951e-01
5.825472156586296579e-01
5.466787954133536243e-01
4.638410608981686778e-01
3.343731074517129476e-01
3.469456339168461856e-01
2.842671663421605377e-01
2.368211106364548346e-01
2.043942308858333057e-01
1.826634478727450217e-01
1.328705472202136861e-01
1.303342205833335210e-01
1.579638202661078628e-01
9.181324872705631801e-02
7.576650651700164718e-02
1.012407270643500140e-01
6.780489382898416406e-02
5.043775700015401542e-02
9.358857796555841713e-02
1.502785752916016293e-01
1.094051460699549672e-01
1.203091588948593804e-01
5.592210741608356905e-02
1.382064163333596996e-01
1.333638536534593189e-01
1.163040135442222206e-01
1.474704781260690878e-01
1.530717674108700299e-01
1.221258321302030186e-01
1.698194311847235349e-01
2.017143650599294291e-01
1.648567461929306699e-01
1.514970822614153390e-01
1.779409662848103479e-01
2.145429377078066635e-01
1.576236377339264028e-01
2.171313433678407900e-01
1.846289528667956759e-01
2.172405687555535869e-01
1.978541100034815758e-01
2.023571347460591530e-01
2.694050964910396084e-01
1.855287977726420845e-01
2.461804417288928626e-01
2.870914804267761800e-01
2.589502843980242552e-01
2.013726692250534522e-01
2.054558981684417862e-01
2.236190685463783356e-01
2.528277356195228753e-01
2.564423969392832792e-01
2.127320636924485420e-01
2.255601046610742622e-01
2.278965941045453525e-01
2.469541951672859226e-01
3.116907800326389477e-01
2.235674772082163475e-01
2.213110116441395214e-01
2.153308410719748656e-01
2.667519927307430705e-01
2.444694197623670517e-01
2.165197831544931339e-01
2.299033393790201329e-01
2.141183015427648995e-01
2.435257511973723255e-01
3.116890030941186773e-01
2.439308816801151469e-01
2.206172212120222353e-01
1.992311111711321248e-01
1.744409817109461858e-01
2.321234648208728157e-01
2.256888568107960902e-01
1.863651221916645950e-01
2.316515339416342079e-01
1.906705803211514449e-01
2.079675637740699135e-01
1.882184049877611565e-01
1.685651791012382217e-01
1.397367622879089888e-01
1.584963705278102652e-01
1.825955908974876418e-01
1.365707618720045091e-01
1.595129726405948301e-01
1.083850277167754811e-01
1.588701726843767814e-01
1.395265647433651668e-01
8.882623671725767278e-02
1.130135183027825840e-01
1.426256153646819624e-01
7.197380136189357458e-02
7.280155790623948908e-02
9.816130918236906644e-02
1.597001548023224415e-01
7.112080609167614753e-02
1.019032824141031801e-01
9.074921646004661946e-02
6.131611794206454774e-02
8.005118023684527906e-02
5.815812508364370109e-02
5.739636570457511133e-02
1.499116050408960329e-02
6.095591890931519735e-02
8.568115609941728827e-02
5.760831127984407385e-02
8.593344517093065571e-02
6.811335207424115690e-02
4.655196307236974390e-02
2.728079187755975271e-02
2.945267058042978781e-02
-2.015349352724245258e-03
3.227978560413784226e-02
4.299235052597787099e-02
8.851838817247220659e-02
5.146682934832626233e-02
8.346045513829360857e-03
-1.010711873187066998e-02
2.576227704108117675e-02
5.529417307767553469e-02
2.339753010843693276e-02
4.543766890928266355e-02
2.298890378546135024e-02
4.925477689394835989e-02
-2.077800030886470251e-02
7.472851793322168867e-02
-7.244175114207471872e-03
4.952933281633186552e-02
1.719462805550903486e-02
2.158003531220313576e-02
1.756487638534129717e-02
3.225408300959194813e-02
3.814148229396051304e-02
5.603525008372989280e-02
6.642769666467969458e-02
3.408242396983328371e-02
7.550808414857947126e-02
2.688671874339868678e-02
5.644839296748173363e-02
3.704099953295184738e-02
7.783016872850982704e-03
2.980069034178872006e-02
3.958766827197493510e-02
2.367967012818255126e-02
3.720895348133668179e-02
5.098700588978156978e-02
2.455408145147385673e-02
-6.280437744105266118e-02
7.614713103053831478e-02
1.719031827251180089e-02
1.773924392147123441e-03
-6.857963817141224383e-03
1.720779247679476986e-02
1.090201269460640623e-02
6.210131133347108340e-03
8.451122592114057586e-03
4.546666536232969041e-02
9.121677754102497371e-02
5.573417904633388292e-02
6.569400177126136220e-02
2.168938314002771817e-02
3.725308884638206530e-02
4.812448626141853369e-02
1.688556412836651754e-02
2.537827696348487344e-02
6.541051417241197652e-02
7.426270089453844425e-02
4.552249277479525347e-02
9.767815546211637556e-03
3.906244684426694869e-02
7.191798569545285180e-03
5.539076360700025126e-02
6.370759484100645131e-02
5.104787875070779246e-02
6.976050455208156198e-02
7.857402575176761217e-02
7.754800219083929358e-02
3.778592511091946604e-02
7.043287822031682466e-02
9.472645811844682129e-02
1.343836030444138241e-01
8.363273865552137143e-02
1.132446825086761699e-01
1.281342742409495028e-01
1.010800510066953012e-01
1.467140160001025317e-01
1.536757484865235446e-01
1.644062786163262291e-01
1.421347035665526670e-01
2.045410454161394886e-01
1.205655960366688872e-01
2.079281310643641412e-01
1.722928733814954594e-01
1.943114999643325014e-01
1.491344028440488856e-01
1.884476071621761784e-01
2.100064042364003236e-01
1.383318733693983671e-01
1.694480029591073356e-01
1.131161098327896214e-01
1.745949147018691916e-01
1.576198870840668786e-01
1.772697992456747917e-01
2.727511939169064425e-01
2.373465786916123810e-01
1.429335299963610251e-01
2.026383467749451328e-01
2.093490480330564840e-01
1.742578279640821515e-01
1.884040878478679959e-01
1.897068279797920198e-01
1.392020483587583235e-01
1.467494706844960917e-01
1.810116694247924651e-01
1.772308958243126731e-01
1.518854237005974883e-01
1.489802380878855748e-01
1.709110046118337278e-01
2.025173399001245766e-01
1.779797309897903634e-01
2.358512402372368033e-01
1.763385094764329253e-01
2.168341863927788771e-01
2.186759921661944883e-01
2.702819873658162120e-01
2.581928005536036075e-01
3.746031324826566977e-01
3.076797353418802561e-01
4.580826752439235428e-01
4.640113491118508238e-01
5.386195351378892937e-01
6.280938906976065716e-01
6.839614179298402208e-01
7.092101829739886343e-01
8.229324649833905658e-01
9.336921007942023953e-01
9.205144916301557512e-01
1.074616700337630792e+00
1.078815272659001234e+00
1.100631352171492328e+00
1.121660226562948504e+00
1.163677205409407112e+00
1.119841712577090087e+00
1.160033274834212813e+00
1.144678333053364971e+00
1.087258440920912506e+00
1.096960569441209676e+00
1.012783494902268044e+00
9.368717286955268175e-01
8.767492638387741621e-01
8.239508561516111218e-01
7.407221779549422180e-01
6.432282791385368625e-01
5.960914789982709738e-01
5.227282364748677690e-01
4.270486138065152093e-01
3.954674746716841938e-01
3.708119246342791997e-01
3.265306370048642881e-01
2.649700602314302156e-01
2.609708453109267356e-01
1.859317848853448418e-01
1.668473907644473508e-01
1.724886773314134314e-01
2.137641704819978616e-01
1.660383737315929142e-01
1.481038899593843383e-01
2.003134579229031709e-01
1.449473435468426330e-01
2.217110901394291067e-01
1.416603263208349728e-01
1.299200794272375725e-01
1.592770296296672494e-01
1.613384290885273575e-01
1.495312319239949506e-01
2.570747119177041462e-01
1.940436063853213655e-01
2.040325429780849853e-01
1.819679233921027151e-01
1.842706607312265821e-01
2.381665740000897258e-01
1.629168067799933728e-01
1.846655002723556205e-01
2.172349965810463635e-01
2.708097702973987220e-01
2.245670774696138516e-01
2.536910521164379428e-01
2.473020282825322547e-01
2.904618211651566195e-01
2.089574354605142903e-01
2.833056124119427421e-01
2.597717724262851857e-01
2.977642321876488030e-01
2.494683614336010158e-01
2.785418983163102102e-01
2.782172621643111965e-01
2.544067440546435299e-01
2.489467555088161199e-01
2.725063238915483854e-01
2.960457512390837764e-01
2.713300281034152217e-01
2.856773849172983271e-01
2.401941415389821644e-01
2.864784668474276152e-01
3.287735960664516233e-01
3.193258298170605358e-01
2.953034134895615170e-01
3.045989470428094870e-01
2.714604698085918977e-01
3.437055068411862258e-01
3.553204724098557032e-01
2.962062500106811269e-01
3.666236749279719320e-01
2.658170757138707541e-01
2.456990570580794842e-01
2.586537991240510648e-01
2.697849298143868424e-01
3.418896804473461337e-01
2.599976596394708017e-01
2.383108006591695416e-01
2.325953266062116831e-01
2.889968146234556112e-01
2.797790369249844034e-01
2.301949306028061581e-01
1.832394228853735929e-01
2.002822300554069346e-01
2.802969120445261697e-01
2.437548151951304254e-01
2.194155684245038263e-01
2.678264773954703859e-01
2.647876708112010813e-01
1.992202891171380719e-01
1.940330891111772815e-01
1.713781043312389007e-01
1.746137788453255846e-01
1.329224458293926381e-01
1.272228726479145977e-01
1.147520509146894574e-01
1.935465880589832821e-01
1.088576658897874860e-01
2.089907783688664811e-01
1.234910295815039721e-01
1.925599831899820757e-01
1.246590476343470838e-01
8.393678420351927127e-02
1.648934772942524662e-01
1.640443839477739307e-01
9.056943820625726338e-02
1.037209979617133571e-01
8.257529190362583593e-02
1.023721458065196682e-01
1.056221837858489776e-01
8.840547221465246130e-02
4.109921405889142149e-02
7.511633949991766701e-02
1.106806880248241420e-01
8.049354882898171470e-02
7.427262995238881338e-02
5.365425900657916358e-02
6.090024182111777873e-02
1.192327898803864500e-01
4.066747852813985820e-02
9.451115352318578688e-02
7.244814853488518169e-02
7.665022631213226634e-02
4.571893535955309784e-02
5.562918261150520682e-02
6.460777407919818249e-02
4.785508189270026858e-02
7.220747491376547367e-02
7.486574837051565567e-02
1.252855087948591406e-01
6.749053741377235294e-02
8.921323115449047991e-04
9.233400750360704068e-02
5.057634447812135725e-02
1.163599894560084641e-01
9.949637850058613842e-02
3.962980184086867252e-02
7.591316254619087656e-02
3.595128584080702072e-02
5.340688118280139535e-02
7.320124960036807071e-02
8.594380643993995705e-02
7.907607357297943840e-02
5.416739789969787083e-02
1.261479164483602644e-01
4.044999616594698033e-02
2.966435336033905468e-03
8.548569581527012962e-03
9.504124027003177377e-02
4.837668576483781374e-02
5.532684654618746228e-02
3.418197273015986803e-02
3.680341610306149536e-02
2.672356519644902839e-02
6.444940498368281756e-02
4.740020064778180386e-02
6.340901867077573806e-02
6.061257310020168321e-02
3.776021695432450753e-02
6.922247081514482092e-03
4.502599561560204078e-03
1.419183833464907063e-01
9.576170491423940945e-02
9.198126008346563243e-02
3.196527956844344431e-02
5.299229624969731961e-02
2.883343864484039926e-02
1.461149962582050654e-02
3.709174475596339893e-02
9.543230368795060925e-02
8.188157344004279303e-02
2.870099637210041590e-02
4.964222565968164080e-02
8.299604046784522793e-02
4.499042481319193154e-02
6.627590690107403038e-02
7.789352883264885619e-02
7.970570075327572390e-02
7.793972919961228429e-02
5.324687908564153249e-02
5.908147838696248266e-02
4.456875958027395335e-02
3.492268339849800840e-02
8.172222302035442310e-02
1.132699540655644072e-01
5.120255758044573585e-02
1.048337128220677983e-01
1.244120809653081750e-01
5.018258859609611711e-02
1.017462238669843699e-01
1.639784348103446865e-01
1.360071257717923587e-01
6.829624013531887528e-02
1.491987245502550685e-01
1.121031884595897754e-01
1.603776862550766458e-01
1.240218244029928779e-01
1.481661361192446458e-01
1.385737338001698238e-01
1.596098211509948406e-01
1.471455231997491897e-01
1.619019946985870984e-01
1.375417159708215431e-01
1.914520918565500718e-01
1.855988308560717615e-01
1.351048049754568492e-01
2.162710156859173893e-01
1.836728962783727992e-01
1.958645996148886403e-01
2.155523268148937521e-01
2.036065749067787478e-01
2.293917370600525030e-01
1.858448323778960354e-01
2.254234884095052127e-01
1.973805816687012049e-01
2.078070706999562145e-01
2.031963831303651713e-01
2.265009015446521334e-01
2.088731252360455093e-01
1.717577181140668430e-01
1.636208120608539374e-01
1.793470352067732532e-01
1.563998995447136164e-01
1.466479140181952967e-01
1.143524966629118900e-01
1.330508728773004967e-01
2.422299101208620353e-01
1.684305898865968709e-01
2.535798401764306487e-01
2.204343651972125451e-01
2.228723201397324050e-01
2.001822966232184586e-01
2.715983971769407312e-01
3.604368892903797583e-01
3.889717063552609044e-01
3.956192083619135547e-01
4.046437053522250471e-01
4.683627288060853155e-01
5.351139337450053768e-01
6.673233599652766967e-01
7.495756678544317486e-01
7.798629562091957679e-01
8.380505667447605278e-01
9.644246940106365740e-01
9.548440395218159571e-01
1.045161435010192097e+00
1.107936520154342519e+00
1.107747164034155185e+00
1.141741227000926839e+00
1.153107816919404227e+00
1.216665019887610999e+00
1.217162525260294226e+00
1.135207502806101054e+00
1.083273247635482495e+00
1.021917958320771591e+00
9.794690399127119473e-01
8.954428905872082733e-01
8.368450782461718251e-01
7.774805943347848913e-01
6.779124908448531661e-01
6.109697496358864610e-01
5.409378129759663256e-01
4.714158180842253354e-01
4.077319745865328748e-01
3.901169590116478347e-01
2.669784297915773208e-01
3.267996855273680445e-01
2.495411333442437429e-01
2.357418008240914353e-01
2.167207688916528707e-01
1.562340474855316574e-01
1.369155264270905947e-01
1.239943475784801574e-01
1.413221423236862839e-01
1.660942243532644302e-01
1.261161354043607852e-01
1.620834457222565250e-01
7.437256992798127464e-02
1.364594593234036146e-01
1.864667894084181266e-01
1.503660041200822195e-01
1.351264597592508609e-01
1.451443257832936429e-01
7.910758893588194784e-02
1.448697941198650585e-01
2.123364002621484226e-01
1.686104424092406406e-01
1.776583290344212751e-01
1.271518138028249201e-01
1.536706456701177614e-01
2.437403855636852690e-01
2.319316725637360910e-01
1.797729122134585911e-01
2.049507294218474718e-01
2.280330004103321706e-01
1.979133837856645595e-01
1.783914649166172539e-01
2.382687406046094247e-01
2.645449632523270145e-01
2.692187124880988658e-01
2.815739436783692429e-01
2.123051455290911327e-01
2.639697024666049496e-01
2.572111135070217491e-01
2.653778122825153907e-01
2.640562190984831470e-01
2.526858334371006598e-01
1.837197784706889603e-01
3.105187827788454813e-01
2.866232853658117752e-01
2.328983313517918874e-01
2.919642497816470894e-01
2.643318707335668982e-01
2.647991805255752173e-01
2.535706259700085674e-01
2.916254020343187481e-01
2.500608007746229489e-01
2.393374974074369277e-01
3.040378245784031153e-01
2.622262335397600452e-01
2.603492534779218714e-01
2.824139427645082079e-01
2.381758602673371417e-01
2.404329868815303362e-01
2.596483041138127335e-01
1.999753446407898094e-01
2.483463036473440022e-01
2.143124927865077967e-01
2.577100052179778777e-01
2.433173620096575618e-01
2.340537488705772273e-01
1.679554174384872423e-01
2.074752474221719656e-01
1.695571654412750817e-01
1.979714312085005257e-01
1.237441281055744469e-01
1.410442914369631484e-01
2.169668050343614984e-01
1.863714973694165777e-01
1.586843330527474838e-01
1.360468319525620084e-01
1.248191811722084710e-01
1.574316573121971596e-01
1.352550873150140387e-01
1.861709415229582942e-01
1.285190976109278627e-01
1.302088104954239323e-01
8.128272083381460344e-02
1.067226932298802888e-01
1.175832724479976416e-01
9.595165877851853653e-02
8.756676889863236612e-02
1.070879026642871240e-01
1.380198571954699971e-01
9.237238892768562248e-02
1.179538139722306755e-01
9.804029724142571123e-02
1.078474123023246828e-01
5.311111403840326761e-02
6.144210697464071169e-02
5.797458755497526817e-02
7.701330845048429130e-02
8.112201473823778264e-02
5.798097218970067052e-02
7.756225138113105599e-02
3.154165043221418552e-02
7.232851507358220577e-02
7.370806556013728694e-02
6.116192818266749653e-02
4.259747086476980971e-02
5.783472822485360293e-02
7.599930977794214920e-03
3.847331695189756817e-02
3.975238124158282649e-02
-1.082670477377170419e-02
4.171991030189916433e-02
-1.146178006147556550e-02
1.177732563372608197e-02
2.450647813994108123e-02
1.721009051596795320e-04
2.342833002192312025e-02
2.187825024020803588e-02
-5.726266841537246827e-03
3.497953021956623498e-02
-5.863970246615687540e-03
8.487573167562093013e-02
1.217949217541407572e-02
-2.039958686807874857e-02
-1.547094970448911581e-02
4.784835458319033896e-02
5.467191641509317607e-04
-2.865526765093860326e-02
3.733906403328956375e-02
-1.237979399868005190e-03
3.036302769816225794e-02
3.838668245602185752e-02
1.813961333510352714e-02
8.139467300581464115e-02
-4.258803386723144374e-02
-1.572278695078793004e-02
8.233625733877411590e-04
7.604824700612759780e-02
6.189007396292824092e-02
4.637462845751715718e-02
-1.631736709240350774e-02
-1.299603019128346519e-02
-1.767116068906617737e-02
-1.642470071931446951e-02
5.179155503948824207e-02
-3.262719465153421719e-04
3.666884135458798721e-03
3.032262538682994543e-02
-4.267557209281810926e-02
9.015494155695035622e-03
-2.519041667262445633e-02
-7.555903333599802395e-04
-9.064831047095395916e-03
-1.006206364096258639e-02
1.650231388058066850e-02
1.714639154341530969e-02
4.818144303096717762e-03
2.357393667162429110e-02
-1.241618855021744613e-02
3.543714522801664352e-02
1.031948641026473983e-02
3.689721279619369732e-03
-3.761523242895112133e-03
1.491677029838446925e-02
8.055858789939426834e-02
2.503020071363535812e-02
-4.698004155064491177e-03
6.012058559581071049e-02
2.153874964428766081e-02
4.756778903583786661e-02
2.445828518637187601e-02
8.483339333031904295e-02
3.267018652264149642e-02
9.650109044096670530e-02
2.743549856078172228e-02
5.463274767371238683e-02
1.100652077746003127e-01
7.787192975457123134e-02
1.458224064644117746e-01
7.451800578693576482e-02
9.524859996868663414e-02
1.496352154612861363e-01
5.196991101494026488e-02
5.308900003820000990e-02
8.307961221130992502e-02
1.359206093415871452e-01
6.761122576229716685e-02
1.379801802477514938e-01
1.397691629396677626e-01
1.880003048273831967e-01
1.622011778331791387e-01
1.446620772563203261e-01
1.770259770341512107e-01
1.545132069152163889e-01
1.262001927795426692e-01
1.068667147706035686e-01
1.248627483795111820e-01
1.410128055184146911e-01
1.472730103161086490e-01
7.732251006535907634e-02
1.337186767213383587e-01
1.396964353207418852e-01
1.534554234808561124e-01
1.837496099746644684e-01
1.382495754749168138e-01
1.030658509170352538e-01
7.357589844096858178e-02
1.467820696608704012e-01
9.868337581525804536e-02
1.501735802877486314e-01
1.666896471762255305e-01
8.065183326884015069e-02
1.478941794112320074e-01
1.770055953610165933e-01
1.789966510124221810e-01
9.962129016306807416e-02
1.555312800264318507e-01
1.665370369078023605e-01
2.501936714071463230e-01
2.826456485027732946e-01
2.315783119250391930e-01
3.523617064884334016e-01
4.407069297856053280e-01
4.823674169211955576e-01
5.486826018415553730e-01
6.036652348628674947e-01
6.556129672935522290e-01
7.602699308592457683e-01
8.343256023883575123e-01
9.195719361310890072e-01
9.844684424727510041e-01
1.020519302127052885e+00
1.095063732027898640e+00
1.083444280530412307e+00
1.070760466465778160e+00
1.133899517083887476e+00
1.114751079347565677e+00
1.103411951393537871e+00
1.015134654238570633e+00
1.059709042244285193e+00
9.703045601411622867e-01
8.754715095157212801e-01
7.854940445366042079e-01
7.719032618132365409e-01
6.313489853499514304e-01
6.578709239213820226e-01
4.998604949802854525e-01
5.021756434665701763e-01
3.825473893940661840e-01
3.790363749856405784e-01
2.595734242565880812e-01
2.388245091567265388e-01
2.255809552474857815e-01
1.907182212830470236e-01
1.790818768284281881e-01
1.118706393716952796e-01
1.141007271633128900e-01
1.380745596965928246e-01
7.193204894274893291e-02
1.055682420697045543e-01
7.944433665504326003e-02
9.169883364780677393e-02
8.905483907666622567e-02
6.503622182204951696e-02
8.393700635644542329e-02
9.987264223936112573e-02
9.673436599091839172e-02
1.516810917739149500e-01
1.397683212443930345e-01
1.233465829527917584e-01
9.707392264409335503e-02
1.006622991389170274e-01
1.900650815766459778e-01
1.060414106793874933e-01
1.452316196131594461e-01
1.580872100794237511e-01
1.433036188645637199e-01
1.278814949462530604e-01
1.396036772970938866e-01
1.518367295654242111e-01
1.518868718166783705e-01
2.177820919159019208e-01
1.822755617680142104e-01
1.712356718675198675e-01
1.943423103175175859e-01
2.151222319851338882e-01
1.884444095298250244e-01
2.292755007635552122e-01
1.672334073743258487e-01
2.433634426937779927e-01
2.105042563211022288e-01
2.115613096939149007e-01
1.941101332441117766e-01
1.796249882261634068e-01
1.676737401567059416e-01
1.956513787602395527e-01
2.366684390054888953e-01
1.903431886355310132e-01
1.725096483625619126e-01
1.911110359796327485e-01
2.058979169038366031e-01
2.057810555282561515e-01
2.106305108026970130e-01
2.434810058172941771e-01
2.476480199249260772e-01
2.676730352136119651e-01
1.557824041649369939e-01
1.755670147554116434e-01
2.186183794695897853e-01
1.801835968865456716e-01
2.155042820599030462e-01
1.915216163185219367e-01
2.280799488002988040e-01
2.071663886456892312e-01
2.026999141632823687e-01
1.533196070425694724e-01
1.573988348899659218e-01
1.456714791949506593e-01
1.040373149701745020e-01
1.876497746043334913e-01
1.600574857511543325e-01
1.214794832005195585e-01
1.650561511302694184e-01
1.010670460754602706e-01
5.888282987190303353e-02
1.383027169029992787e-01
6.380177316017116018e-02
9.039996456684339099e-02
9.662397231226656225e-02
9.623757321884945926e-02
1.044382510710182427e-01
9.081572439386535744e-02
8.439341496002350507e-02
3.879321787705390656e-02
6.608409251152089214e-02
6.961415605361696846e-03
9.400054895390308474e-02
2.116485417893027021e-04
2.719659673633158942e-02
-6.521786007569883858e-03
6.751082772079648742e-03
2.483020028933169421e-02
4.497364310461847425e-03
5.078278525189733328e-02
1.952055102226876726e-02
-4.753213833953065515e-03
1.708560982992414490e-03
3.904870186145159572e-02
2.662300361902485840e-02
-3.775225310487453911e-02
-2.680303842998204775e-02
5.213921815147938565e-03
-9.309070616283152133e-04
-4.540555532104938175e-02
6.352926752348636574e-03
-4.494311271331839774e-02
1.892777271235356051e-02
-6.152820318486164342e-03
-5.772750438529222761e-02
-4.126490249464163929e-02
-4.330376933049977228e-02
-2.353067124061305679e-02
-3.576808889616103770e-02
-6.524509477492126952e-02
-7.385464375856121144e-02
-1.662225780349730134e-02
-2.549630726779757509e-02
-3.183668278615283537e-02
-2.773360354134349337e-02
-5.521347494029320291e-02
-3.185811388125632526e-02
3.809980057633163136e-02
-3.444980953566177673e-03
-4.791345717577831509e-02
-5.549735827821357381e-02
-1.261031658388069854e-01
-8.684458905059623535e-03
-1.756644511719988172e-02
-5.786503817607442646e-02
-8.485528110656986867e-02
-7.688589937841763811e-02
-2.919117316265571610e-02
-4.547111040932505510e-02
-2.228428394505026222e-02
-4.065378912188034877e-02
-1.443340411399829729e-02
-3.251185099168001080e-02
-1.887145165382805162e-02
-1.065343119499791158e-01
-8.095355070423240762e-02
-5.490212061714028896e-02
-1.159956390743330235e-02
1.245038422622548463e-02
-4.883190897569254785e-02
-6.214808637214046250e-02
-1.022976118702730308e-01
-1.753644808020999105e-02
-5.968512940021838964e-02
4.589962660860801014e-02
-6.463158196431433022e-02
2.118918313536865411e-02
-1.895013993080981590e-02
-7.158506310436670017e-02
-3.300356360086672408e-02
-1.594245058963486908e-02
-4.483277632601919555e-02
-1.179228031607894300e-02
-1.116450851478199141e-02
-1.630912591015818564e-02
-3.308395059661728421e-02
-6.605294191095034684e-02
-3.113839821799300675e-02
-2.138936365971745926e-02
-8.058780975420298809e-02
-1.665596594946231607e-02
-2.185014613582105664e-02
-5.484045441447191888e-02
-2.270784016049477022e-02
-1.862937128644706619e-02
5.228999656328718604e-02
4.864735438520652322e-03
3.342226517706740896e-02
3.081944897882105128e-03
-4.514259651780970495e-02
3.587094887571173896e-02
7.295332259132439323e-04
1.530863344645982255e-02
-1.208388919098350722e-03
3.764331172696237793e-02
7.254081416116944792e-02
7.370636944285094416e-02
9.842812375504830791e-02
1.077430570358335893e-01
-5.036362657009352262e-04
2.990075271515140604e-02
1.613042983950005449e-02
9.379258157670716800e-02
5.825466055799773807e-02
6.830152345048939866e-02
8.009133087522443684e-02
1.013285842831726513e-01
4.817414208631356359e-02
5.744387951758384014e-02
9.729594995742257835e-02
1.348201466616677224e-01
9.923738509724368273e-02
7.692532536062215986e-02
3.643933024368709722e-02
1.292195096856328662e-01
7.787623939424292985e-02
6.443696754367850277e-02
4.594078988672430780e-02
5.246337946728895502e-02
6.481310774090703886e-02
8.438223742010660111e-02
5.320791930639652556e-02
9.316535510332445147e-02
7.874804828386372524e-02
1.520457345163402085e-01
3.452611124758994676e-02
9.220110581418067275e-02
9.615850416980140092e-02
6.601213077666548412e-02
1.087679023091719654e-01
1.415972317512518841e-01
1.382712559782002248e-01
1.986908591140262859e-01
1.191230009293457737e-01
1.925149726765605640e-01
3.017711786138938534e-01
3.312129214918494435e-01
3.729370599540100528e-01
4.527755715228876654e-01
4.228515790571941713e-01
5.732748534214365810e-01
6.535160787372257252e-01
6.754326459128848770e-01
8.471488973626216668e-01
8.445536083242843883e-01
8.383301218082123141e-01
9.738207158554680332e-01
9.897732244918380218e-01
1.084179012477366033e+00
1.090927942744422952e+00
1.068201408322327461e+00
1.128766010390673591e+00
1.095405732536268495e+00
1.012515784413179798e+00
9.906621053827262546e-01
9.579174667086214345e-01
8.699049261499418595e-01
8.026075312889745517e-01
7.411844232811307664e-01
6.334258625632794848e-01
5.237209668947377939e-01
5.250660171566667866e-01
3.889093806883431870e-01
3.542506273520699134e-01
2.720796700611487484e-01
2.232776484075932877e-01
2.396268596037138821e-01
1.808801822840326867e-01
1.468977582360042056e-01
8.826488227551521071e-02
8.663357340586941291e-02
1.010553270430071260e-01
7.591780684621721176e-02
9.353085388238072118e-02
9.224131674972696482e-02
5.269280920302152338e-02
3.720493723680794174e-03
3.726376738315272802e-02
5.900673667896224467e-02
4.162879469179776859e-02
3.704885353726123515e-02
7.513580932358722431e-02
1.507521116234330494e-01
6.832598907941341004e-02
8.825510877758181716e-02
5.451484646392715933e-02
1.368284363557446537e-01
1.314888830851905777e-01
1.351722974461064541e-01
1.575506916567842031e-01
1.096691882899334253e-01
1.191013616254539276e-01
1.850840742613110157e-01
1.582913661229283231e-01
7.814204486381878811e-02
1.636398152345507895e-01
1.376684258561882979e-01
1.870172055131648636e-01
1.770802014523650547e-01
1.171721513526933212e-01
1.817811378449767645e-01
1.841197323245382100e-01
1.925301047781085295e-01
2.024427549096249057e-01
2.333174984218512327e-01
2.038145018964352406e-01
1.947296520563610578e-01
2.308012592562737608e-01
2.656290918669170220e-01
2.274405556566024278e-01
2.074663728369325055e-01
2.151928161755793933e-01
2.104761706429452706e-01
2.035674669636489964e-01
2.678226190427395181e-01
1.798909975462046895e-01
2.361469758733834579e-01
1.965075167424479019e-01
1.543059417038982473e-01
1.911632712914441423e-01
1.781713676401664170e-01
2.093412797312139972e-01
1.918809876013248816e-01
1.553103431995467854e-01
2.266452789462764517e-01
2.114922938092604343e-01
2.223880655639616233e-01
1.776947468067860969e-01
1.650716152004094162e-01
1.826043386026181825e-01
1.393415274658832415e-01
1.555687579027357492e-01
1.412496345827783384e-01
9.741276849650806757e-02
1.396811729963175763e-01
1.171510797556596650e-01
1.175537763211237929e-01
1.301403476357929356e-01
1.517636051109481354e-01
8.246735702013008318e-02
9.217572994475289883e-02
7.367768217300874056e-02
6.611390483938055229e-02
6.761792745096814605e-02
7.405789950418885381e-02
9.209807144038795190e-02
7.879237171190278666e-02
3.222845984332370350e-02
9.762282199731485421e-02
8.211250495345552569e-02
2.185360558842259354e-02
8.085611747698620566e-02
4.932582807088721488e-02
3.035591033853014126e-02
4.147567855108598434e-02
2.579957148693390323e-02
3.892320083909491663e-02
2.434935340675779131e-02
4.928420257957762118e-03
-4.923941654462651862e-02
2.399780009137252729e-02
-6.218433637224171640e-03
2.529907246986295294e-02
1.353893465370931137e-02
-1.405718988773210082e-02
2.449949275005719462e-02
-2.458147544699869347e-03
-5.961497336782223266e-03
-1.713974095784064761e-02
3.552197192909709034e-02
-3.823824328777876425e-02
-2.824809204009878089e-02
-5.729255327867997100e-02
1.426991725576656767e-04
-4.049766092413008972e-02
-3.840060593831943342e-02
-4.097154453391205209e-02
-2.464839627706137681e-02
-6.502723776941277123e-02
-9.568900079924219648e-02
-1.546541656566342154e-02
-9.333065051117667155e-02
-4.954299159109255835e-03
1.559126514323828927e-02
-3.661335770285854829e-02
6.835988382360692894e-03
-3.328267531010647984e-02
1.506829921113268106e-02
-4.690072702910220992e-02
-1.044205187219743036e-01
-3.608899431560366744e-02
1.736911803661606024e-02
-1.796203487456182399e-02
-4.957762081924454306e-02
-2.432536787791043237e-02
-5.102614344141737784e-03
-3.681984776394542358e-02
4.455304254143783310e-02
-4.972178368488186506e-02
-4.058439579700832966e-03
-1.118440922397446677e-02
-5.492032783600568624e-02
-4.651549755797143582e-02
-3.069117399137073765e-03
-2.907000938372909099e-02
-2.304318176013671685e-02
-8.200402871976397723e-02
-1.295008536190134230e-02
-2.367839604213559102e-02
-3.384039281345715966e-02
-2.067641262649853179e-02
-4.330923059566381406e-02
-4.826333215779868291e-02
-3.717437458079341644e-02
-4.318680978388089731e-02
3.688815222704219798e-02
-3.549239178813334838e-04
-5.585633681436051601e-02
3.529636908051964755e-02
-3.765811664339613341e-02
-2.254858780010054325e-02
4.860557444703247909e-03
-7.965096173111815836e-02
-2.600074853223531893e-02
-3.426772560622767111e-02
-8.922085842213954565e-03
-1.799187565163361258e-03
-1.285502038264200661e-02
-1.168534514396095056e-02
2.674443870488576666e-02
6.812610798336681678e-03
2.203967096441425411e-03
8.809009469831759892e-03
6.308064934795093448e-02
1.703348280097365108e-02
4.837311696023922913e-04
-3.708030679231773957e-02
-1.835618316420795787e-02
1.531165351170015246e-02
3.090536670075316392e-02
2.247860208149997027e-02
5.480810567185950832e-02
3.245778606536572214e-02
2.740422489020795382e-02
7.860201755783031985e-02
1.067151161268458104e-01
3.782229794195778039e-02
8.371114896801931660e-02
2.453353796481832008e-02
4.261548329487577225e-02
7.420222086531430561e-02
1.307332451449619293e-01
7.791459459036607915e-02
8.111457476746483652e-02
1.106983267217882261e-01
1.144090041984614226e-01
9.305495647439331053e-02
1.791116683366427431e-01
1.140597788984723943e-01
1.274835691958801920e-01
1.136227602589998664e-01
1.400110006354239045e-01
1.645292051343709983e-01
1.775968640027088541e-01
1.045771747782478500e-01
1.598034346950303886e-01
1.422180917651069687e-01
1.535786566913819318e-01
1.199403582301223070e-01
1.152752172482038318e-01
1.471083895636456362e-01
1.459494525584777991e-01
1.628755003458521589e-01
1.210301023203692317e-01
1.119172936542923297e-01
4.262937516082472567e-02
7.106941775369250702e-02
1.127420000735281647e-01
9.943925396905717307e-02
1.681455290334346875e-01
1.196641529925696751e-01
1.638129382128715172e-01
1.901484285587753953e-01
2.711366406424584596e-01
2.540022116138415109e-01
3.296196795318354633e-01
3.723099518577849265e-01
4.503006995394017720e-01
5.113084603620859925e-01
5.523596256925058512e-01
5.737707489700638597e-01
6.911804303226039004e-01
7.713286453857065572e-01
8.525390816475265643e-01
8.898742280668849869e-01
1.008020256829919248e+00
1.027569472239314718e+00
1.042522352460521606e+00
1.087334098502782176e+00
1.176633001801186573e+00
1.142443859790308158e+00
1.143578582390156306e+00
1.056761866279902318e+00
1.030430524223949984e+00
9.823431688719524990e-01
9.504017587212748586e-01
8.741941915582945866e-01
7.939573187746159499e-01
7.238895850193326487e-01
6.362793953048530016e-01
5.811108353577157937e-01
5.491636260998389307e-01
4.039157501207646939e-01
3.986135978607885932e-01
3.746374358675272354e-01
2.792721508302402067e-01
2.270694948330214402e-01
2.353340588253345078e-01
1.489265951977095104e-01
1.543214064054085899e-01
1.054939543194464979e-01
6.680009296031429178e-02
1.084638142278255002e-01
6.854868471156187748e-02
1.022775188216409614e-01
1.345043924761512577e-01
1.569175224914176603e-01
1.057686624734741898e-01
1.363367033445911647e-01
1.213957008956013106e-01
1.022636833618008334e-01
6.084474879380788459e-02
1.725865046848034656e-01
9.779535140922063219e-02
1.764234965470742600e-01
1.568509316111569851e-01
1.173586858686661849e-01
1.619381971368108741e-01
2.225188275329093857e-01
2.105401605408688537e-01
1.549889401704603320e-01
1.548481799131896097e-01
1.849668408080444304e-01
1.826430089777479338e-01
2.291229082228913860e-01
2.206955707191504412e-01
1.529531266322835259e-01
2.225095328706707676e-01
2.082034006421306926e-01
2.192962617978680417e-01
2.300209474215887118e-01
2.626303675707105656e-01
2.598486109000455180e-01
2.115845642730452003e-01
2.355824576219543165e-01
2.268384591422947516e-01
1.924698981387569507e-01
2.419430970530019320e-01
3.025247659329214911e-01
1.974303871678685929e-01
2.493251501707660633e-01
2.492595747059517530e-01
2.601110875748579021e-01
2.227699259420433398e-01
2.087086900426576019e-01
2.095540028401145782e-01
2.899329324965896904e-01
2.192653966721472836e-01
2.321547414058347802e-01
3.083387504158404124e-01
2.209021568972152350e-01
2.506144415785119262e-01
2.693639416810266196e-01
2.647359532879740018e-01
1.908536186346233565e-01
2.056738711678796627e-01
2.321719192179466096e-01
2.767679161404174026e-01
1.916357787126269641e-01
1.950617505059733803e-01
2.176702019020592405e-01
2.187280995942240125e-01
2.154628764849648714e-01
1.644620552561331939e-01
1.685883584759744480e-01
1.856303978461533166e-01
2.115874019522827332e-01
1.610716991360337524e-01
1.620386687333700837e-01
1.264020915166522152e-01
2.075564553709960125e-01
1.507908329419722082e-01
1.730378354903907012e-01
1.361978804017106581e-01
1.325219997447883991e-01
7.969783770362162678e-02
5.501938015763265660e-02
1.520375168794443066e-01
1.118732383477525211e-01
1.108975160933926285e-01
6.253635597659830403e-02
6.835655048373387443e-02
1.229013896050400179e-01
1.389690352668836171e-01
6.401170529655660080e-02
9.883581899485803512e-02
8.059217469916701848e-02
6.763607475256480650e-02
1.233325556346217822e-01
5.086108081494974259e-02
9.852284197631554219e-02
6.974832192058755265e-02
5.496117267608838924e-02
9.394636562523950296e-02
5.896085410830964602e-02
4.498469028482800225e-02
8.702756956350132800e-02
8.103106855976140166e-02
7.765882509070162754e-02
-7.685418395118846779e-02
5.129382421994224672e-02
4.288427702089539495e-02
3.402573127659935803e-02
5.202940794965076055e-02
4.032547903099266418e-02
5.171893913946487564e-02
2.231983715908935836e-02
7.437100075042829550e-02
5.194866768107289645e-02
4.409381590706639570e-02
4.194492777907331271e-02
6.124133133545113516e-02
5.663145725675665376e-02
2.212000890755647098e-02
5.479502595853040503e-02
2.994599289524561836e-02
8.192327603980453787e-02
5.708706437128538425e-02
5.172010749935136015e-03
9.368878854357631791e-02
-3.942738680611426738e-02
4.265723755282315593e-02
2.585938804161719284e-03
7.990729083281036815e-02
3.102439396191981891e-02
-3.471957142473607039e-04
1.552501312203002221e-02
2.180727547905166042e-03
1.452902092803644470e-02
1.397094152241371880e-02
1.447997688382506726e-03
3.226140341149508900e-02
3.609817381015691107e-02
-5.299597303456773240e-03
-2.490266386465805198e-02
3.445948682752925096e-02
4.140580687917734537e-02
4.770701424103250543e-02
4.272644125511988050e-02
7.380579735607246950e-02
5.701638431092102832e-02
1.080313912605606608e-01
1.212460800443038861e-01
-2.386198942597732298e-02
-3.630735308008388451e-02
3.018965829661159755e-02
4.642998416231919334e-02
3.001378016543557875e-02
5.448993521208519986e-02
2.648191098605789245e-02
1.510169025991312496e-02
2.109908783480850952e-02
3.299122441884352191e-02
6.606726586933472922e-02
2.809059493343378164e-02
3.612979441858196750e-02
6.419583175465420899e-02
4.360894214211809283e-02
8.575838230844008703e-02
2.756338248953700901e-02
2.416161284312270605e-02
7.071138770389701067e-02
7.723895306544543982e-02
4.291679642764274771e-02
1.131436751447304767e-01
1.347640991598661742e-01
6.256288103320677141e-02
1.305919923972044538e-01
1.926218030103032247e-02
1.279252198768895954e-01
7.496807964853619000e-02
1.351636030609064121e-01
8.232004743023624282e-02
1.144494290332960795e-01
9.758498868189231790e-02
1.208626736322716833e-01
1.875392626841450028e-01
1.347015948631875015e-01
2.064453877123257897e-01
1.366188705694879602e-01
1.978249360074115781e-01
1.089635147743839155e-01
1.535472793208321751e-01
1.501771194964404699e-01
2.161845085570360814e-01
1.790465731339186684e-01
1.138959373349631016e-01
1.398716063481259264e-01
1.509986851714290590e-01
2.111520492849950914e-01
2.085699923930196265e-01
1.762287237892461722e-01
1.691396595454176255e-01
2.069840820291704575e-01
1.510672646308577061e-01
1.977382769555789677e-01
1.938798674283002954e-01
1.728674969740414402e-01
1.912267780151290786e-01
1.804532957279709471e-01
1.904547037236752616e-01
1.338821544524732288e-01
1.911745636094003831e-01
2.031155462002394718e-01
1.826093683039322069e-01
1.931712102479239412e-01
1.759525031358909752e-01
2.126011521237550217e-01
1.975156787227800026e-01
1.745351102996734183e-01
2.513646949828974853e-01
2.005297145338230946e-01
2.864365287211763644e-01
3.009256474869480558e-01
3.399585121625217088e-01
4.061131466672056045e-01
4.337257019065436370e-01
5.305219314404236997e-01
5.823812008884741154e-01
6.319716509686730266e-01
7.633183898962336844e-01
8.031312336008766817e-01
8.888611912797085290e-01
9.823399985231773268e-01
1.046448597332346075e+00
1.078907620887706864e+00
1.099906043555207047e+00
1.102175752016713473e+00
1.174552718147356289e+00
1.210747652750421954e+00
1.183973229912733016e+00
1.051477145404914548e+00
1.149134883185550793e+00
1.107156906031374621e+00
1.015953893285396425e+00
