1.154406441595018817e+00
1.066089041926383985e+00
1.095782129837689522e+00
1.011331079819127066e+00
1.008091480248249017e+00
9.607531723455307038e-01
8.903435078790333801e-01
8.267312145490748332e-01
8.009284191801012698e-01
7.658152885091540352e-01
6.402293867155666174e-01
5.361129634677552769e-01
4.995226931979965257e-01
4.275855202478724415e-01
4.112108700338649170e-01
3.456400754980744061e-01
2.484740817034966909e-01
2.937999189303763803e-01
2.608942540475406857e-01
2.533156542098287112e-01
1.745728738435681215e-01
1.851455371307534070e-01
1.304798711837262815e-01
1.576714861268061485e-01
1.670416033606758610e-01
1.342209319383047550e-01
1.635594238628757247e-01
1.597619712054893504e-01
1.437955111175918954e-01
2.026642489970310046e-01
1.578311572879382840e-01
1.734850177975073848e-01
1.305091886949133473e-01
1.953893685948039916e-01
1.710059642785740630e-01
2.196682030846601741e-01
1.573474436906343032e-01
2.153837563256732202e-01
1.428000807300057462e-01
2.325260987445464944e-01
2.145582580238211690e-01
2.374759424885409531e-01
2.131022939951587869e-01
2.081378942166555168e-01
2.289690024441161653e-01
2.530093597201545919e-01
2.696292593009766425e-01
2.663497989041259673e-01
2.338346630891053879e-01
3.215534759442294499e-01
2.806583095230094083e-01
2.560022223807932873e-01
2.911316098314025713e-01
2.895340541012043634e-01
2.797474760720098375e-01
2.790675788385763023e-01
3.199201816690700473e-01
3.444009074810914783e-01
2.333363579213766636e-01
3.328354304116455942e-01
2.976658462654159232e-01
3.049582936774903885e-01
3.388343399606801309e-01
2.187045934589451068e-01
3.224926281371548464e-01
3.358618131890516723e-01
2.757073637547049483e-01
2.531719302938729710e-01
3.424649216610322622e-01
2.385113753301374429e-01
3.013672886306817955e-01
3.167847169509407923e-01
2.949637910717854972e-01
2.966827025274546004e-01
2.681885564519538301e-01
2.861486703012189881e-01
2.468892522210120455e-01
2.464162573087097519e-01
2.602746132989217642e-01
2.082368612466489188e-01
2.667859788283102329e-01
1.699325973988126681e-01
2.499754983671108044e-01
2.474088388292743357e-01
2.043731205040471288e-01
1.856091393646707721e-01
2.047344828403502848e-01
2.304718060286346792e-01
2.159228303392376758e-01
1.664621820941022678e-01
1.972377896732832592e-01
1.962043629940514178e-01
1.892457205096333417e-01
1.474232466361433125e-01
1.761177645947224202e-01
1.934811000421552685e-01
1.766481680112368946e-01
1.675739697034032138e-01
1.993102240939127745e-01
1.499828335340385455e-01
1.147386413529645904e-01
1.100152440307309160e-01
1.357810205938683734e-01
8.284313077221974742e-02
1.122601682722532412e-01
1.312896592816295560e-01
1.484308778333246481e-01
6.306735541654595600e-02
1.086115869088317420e-01
1.000042561126640028e-01
9.974882000040136143e-02
9.960213434646461583e-02
9.129426663596656999e-02
1.310550599893852697e-01
1.238059304551065165e-01
1.481315250263313121e-01
8.100854282374070348e-02
6.664002509031696775e-02
4.770078512125858206e-02
5.905690891177269725e-02
9.411239846241976903e-02
9.689018066099759630e-02
8.937801819596458142e-02
4.757062064085616077e-02
4.623330089401393034e-02
1.233040694803943793e-01
3.835356330208798681e-02
1.046058553799554119e-01
7.313275129221501192e-02
3.798659017164744689e-02
2.347808969139979912e-02
3.746761474192265157e-02
6.985674146343809343e-02
2.929741758854326542e-02
1.025389355740884967e-01
4.904935585782285723e-02
7.573182124273894478e-02
7.279454313323995007e-02
1.023936523358811856e-01
4.017699959022795475e-02
5.612188522517039257e-02
1.056283593823723055e-02
5.540481592656404386e-02
8.625575936198895399e-02
5.842327410921054065e-02
1.210413596697898081e-01
6.711340490649767010e-02
3.520999630034699068e-02
6.503626616349365841e-02
7.444946232580261503e-03
2.740573075527331925e-02
1.494114098974790028e-02
5.206249574860824514e-02
4.994695710106930586e-02
8.816003992029421144e-02
4.934494294029458106e-02
2.262398532472472898e-02
9.994085133526839360e-02
-3.462955759646393211e-02
5.550662010330288665e-02
6.162708492086381440e-02
5.564872560733818974e-02
7.194036036208451002e-02
6.137011908849369923e-02
7.429258384133113902e-02
4.264123389491139560e-02
1.850295752522381626e-02
6.262214878355522318e-02
3.513613770317670221e-02
4.618499465389527825e-02
1.051917871649248465e-01
1.195986386028838333e-01
1.098617373800302305e-01
1.072386173633823742e-01
8.346965050561269694e-02
1.155063381707898823e-01
9.929992229528972203e-02
1.508569538704336854e-01
6.889622768548453458e-02
1.208215640791088369e-01
6.710369023767462360e-02
1.299423701829504341e-01
6.273068527356491508e-02
8.274133466857899744e-02
8.562087198719270376e-02
1.366973407429706855e-01
1.448557555764227456e-01
2.128424102674888185e-01
1.416852436690517747e-01
1.726485978793849962e-01
1.592626985107715720e-01
1.799456665159887281e-01
1.682703311515695854e-01
2.014317760809552493e-01
1.411090647114376095e-01
1.032372292096629396e-01
1.928463668212039850e-01
1.294921047028125827e-01
2.259432917965942256e-01
1.726933154124030700e-01
1.601107899003655910e-01
2.739503621080645046e-01
1.935995784004183040e-01
1.886009820489860656e-01
2.176251194848229653e-01
2.194675530298326738e-01
2.285456278566772026e-01
1.533261936845966011e-01
2.079552654707825521e-01
1.812995098999301835e-01
1.604259591482524450e-01
1.872962853748977863e-01
1.292702080807060505e-01
2.091669045312897768e-01
1.709463071187692917e-01
1.640918477844302004e-01
1.738997656491137467e-01
1.738400317616851376e-01
2.155648360256978702e-01
1.530785340166520014e-01
1.817566406188161066e-01
1.972539665449898894e-01
1.861958575438091290e-01
2.418237300073546037e-01
2.393084550558013668e-01
2.484866230080794991e-01
3.420096659838391395e-01
4.145066384416389860e-01
4.176871757625660320e-01
4.673211728312578472e-01
5.263656065305379883e-01
5.789257212526712770e-01
6.972326713216291383e-01
7.345786624470213022e-01
7.361324332617961153e-01
9.052959753680480670e-01
9.617491081562162814e-01
1.008809212852572523e+00
9.574902157842158923e-01
1.079374294283524494e+00
1.133971349139941243e+00
1.133546643399932385e+00
1.129974390485546820e+00
1.138911727704406740e+00
1.091455434837867111e+00
1.086556712465206020e+00
1.007796679757207770e+00
9.489691743015985503e-01
9.098908119003076278e-01
8.029585353069630393e-01
7.111278643771202779e-01
6.726796897530822328e-01
6.200682185083363773e-01
5.628058333405994151e-01
4.998801543217276655e-01
4.120191294955379280e-01
3.569489186237354006e-01
2.985830559147290009e-01
2.844273435667410976e-01
1.944609871562099634e-01
2.169893089858931923e-01
2.797948164054790965e-01
1.320272021370464954e-01
1.689421589920405975e-01
1.663309627171021821e-01
1.640455668319925620e-01
1.162791946468756943e-01
1.592726167283939065e-01
1.279847714729117625e-01
1.027458072112152898e-01
1.767322130933219326e-01
1.715207218965377756e-01
1.266112968658932303e-01
1.437853979162520834e-01
1.475361332773106882e-01
1.207190738458366053e-01
1.981698034145401022e-01
2.046877258838125657e-01
1.761824031084608388e-01
1.908273358257200347e-01
2.006309072602239507e-01
2.100216898732437387e-01
1.677205398403968373e-01
2.281900042939007944e-01
1.835739310607684693e-01
2.444743912434489685e-01
1.971520604433830703e-01
1.950121692578817012e-01
2.379235772788148018e-01
2.418123428834683952e-01
2.507977337288329611e-01
2.250383280665094743e-01
2.618000349233671198e-01
2.682639448375914726e-01
2.976922660182991787e-01
2.713518392422434311e-01
2.505987793246798878e-01
2.306355697078661948e-01
2.272824345479010910e-01
2.846883915497140372e-01
3.002611525213718102e-01
2.508748867900777446e-01
2.860001986168252408e-01
2.735168204398832348e-01
3.003301705712298486e-01
3.044398328175920154e-01
2.097836659344326504e-01
3.076858401291369116e-01
2.828823502991309469e-01
2.576184788866815456e-01
2.563527461298515941e-01
2.699694107331128690e-01
2.511372839980619553e-01
2.350556380433906634e-01
2.385431407497147493e-01
2.248921027506835257e-01
2.925367855103885306e-01
2.495978098687697266e-01
3.110412029746686402e-01
2.498946651240673278e-01
2.515248587373690725e-01
1.969115506364070567e-01
2.169409030510485448e-01
2.202395439733786098e-01
1.933761429617779914e-01
1.928665980592820239e-01
2.136333474009972089e-01
2.083601286658722240e-01
1.491361703195749344e-01
1.917910065982742773e-01
1.938783886064526507e-01
1.535810032250056190e-01
1.445422045467593120e-01
1.725789725431836896e-01
7.621781879894796996e-02
1.476032676562008816e-01
1.907722605032597663e-01
5.812848246136410879e-02
1.550783255430806529e-01
1.412014330394369965e-01
7.631619634680958386e-02
1.297870759461904333e-01
1.390588940597077827e-01
6.869936655360565914e-02
7.790647804826966727e-02
9.518058877829857489e-02
1.191546726884220586e-01
6.917453004868343025e-02
7.988763492588735193e-02
5.710620129840843218e-02
7.385362875020920481e-02
1.007424702806747618e-01
6.890501544724916827e-02
5.154986810206541037e-02
5.799421859602281459e-02
3.181682556140815604e-02
2.301506683126707670e-02
8.610989868570805006e-02
9.644480767832447343e-02
-8.984025572597597459e-03
5.981034384387880209e-02
6.583242172147932281e-02
1.559908220030391951e-03
2.172705449182098930e-02
1.665577254950730696e-02
8.919614826253467743e-02
8.004986277386230697e-02
1.252578493427192186e-03
-1.638019720275947499e-02
4.918873713315138896e-02
4.100792712965890818e-02
6.078245965085735808e-02
-9.458019420115811732e-03
4.294591643050338359e-02
-1.718036163476864900e-03
3.799017575013037551e-02
1.730381347125694441e-02
7.461601182792315656e-02
3.025394554405681433e-02
6.698466562157341653e-03
1.959117509681857980e-02
1.181875202428384584e-02
-2.037351222385544447e-02
7.147400120388307243e-02
6.119750616166471507e-02
7.495548578422273067e-03
3.336934520986385710e-02
7.354353583898051716e-02
4.877514932949019583e-02
2.154910680682992075e-03
8.488568219615359040e-03
-4.060387063358780746e-02
3.400703101567241482e-02
4.794097306163854627e-02
4.809238382748242530e-02
3.163628519219457980e-02
2.124275047468438676e-02
-1.912559079751360858e-02
2.061203852267825404e-02
-7.634544821143151791e-03
2.745549542569564183e-02
-1.073261689731375493e-02
2.833831509650294386e-02
5.317442429793321768e-02
2.562817793100145847e-02
2.513619795578940497e-02
4.378800599568452578e-02
7.077805219888275157e-02
1.588633709915552791e-02
3.634810844946075037e-02
6.785199828962584778e-02
4.458482807716677987e-02
-3.337273391646040227e-02
7.630349180156835442e-03
5.424368457595672710e-02
2.253769516502670059e-02
8.080286403141040408e-02
9.659813901694681848e-02
2.663783397975753517e-02
1.706676747353386495e-02
4.110764654753417541e-02
4.347146669444745121e-02
1.063992375955710862e-01
3.370011832634831062e-02
9.162384691042504969e-02
1.157024375349267054e-01
1.034613204575875606e-01
9.686956880369965162e-02
8.384476164118068175e-02
1.491274327752644402e-01
9.122518357142710144e-02
1.318979254405706902e-01
1.034585416298209881e-01
5.760733023253157559e-02
1.092351517029155894e-01
1.168917737555558167e-01
1.212864172598335510e-01
1.095025244531869085e-01
1.514892218582666594e-01
1.578812341861706992e-01
1.292648250126204323e-01
1.312758111449424392e-01
1.110141545676590347e-01
1.515500034309594235e-01
1.861802361246175097e-01
1.866572345549872003e-01
1.273130826132616578e-01
2.045531233177115271e-01
1.330406393688361444e-01
1.121034638088714702e-01
1.000320768888864342e-01
1.065942757303580957e-01
1.466581387689737670e-01
1.265579373915647898e-01
1.129654073085276933e-01
1.043261946629248788e-01
9.537951993438607834e-02
1.001380702402797501e-01
1.571422058299377644e-01
1.819812388240779344e-01
1.868329656690687623e-01
1.567868663112720884e-01
1.295586507537603016e-01
1.359013382882883481e-01
1.943066796017486331e-01
1.846126616717415070e-01
2.300109915721390841e-01
3.069766977780066242e-01
2.930967368985151755e-01
3.987487033589902641e-01
3.466622439224635865e-01
4.498435140217458272e-01
5.070331533091774201e-01
5.335667748394647969e-01
6.555654226596713263e-01
7.472098774516456876e-01
8.366065775914118818e-01
8.495201032951371634e-01
8.420981404324638930e-01
9.684633582737526281e-01
1.022597292592038798e+00
1.028848953235374397e+00
1.065908414304895580e+00
1.055531245229026860e+00
1.063178219084230047e+00
1.081523001063714906e+00
1.063737308112575608e+00
9.433643246607831268e-01
9.154255263239472473e-01
8.240860167744487041e-01
8.616077093685403643e-01
7.631907284378705025e-01
6.056684003335667255e-01
5.924257730302442404e-01
5.163566707731446215e-01
4.360472634898618360e-01
4.282632747669940509e-01
3.714992687189953569e-01
2.991416483022047434e-01
2.280709981120715713e-01
1.908894336062296748e-01
1.798606934871269658e-01
1.391951011404214400e-01
1.323167198426598579e-01
1.334690523605327195e-01
5.901841257160646281e-02
7.405307513398001751e-02
9.048296941473099597e-02
1.355610586208061963e-01
1.130273295868192140e-01
8.819497567915161873e-02
1.022450525214644995e-01
8.996865501554429656e-02
1.289109814385351604e-01
1.137521551114937524e-01
1.436732424033695665e-01
6.953314002968168095e-02
9.112019587804971732e-02
1.288170480072240442e-01
1.407675659944342406e-01
2.034203693781801714e-01
8.265628122657234234e-02
1.413754372606037535e-01
1.454832790623400707e-01
1.603596741249134761e-01
2.105539514065030149e-01
1.900828220554185433e-01
1.207988270577704665e-01
2.199230233668598433e-01
2.239238209094942256e-01
1.913054014812086145e-01
1.393542626911687676e-01
1.876033072057671225e-01
2.102513361070066922e-01
2.298796503416190573e-01
1.504031287908902392e-01
1.837013798108579343e-01
2.426831409577301091e-01
2.574606504325776535e-01
2.276733884263649199e-01
2.512367616993734232e-01
2.321280924140783353e-01
2.487067401550687173e-01
2.251619944554948127e-01
2.358452929907380036e-01
1.850726990758252422e-01
2.433079911636591985e-01
1.836291603430071084e-01
2.420251944437832869e-01
2.060618900556541455e-01
2.288135601897278160e-01
1.872640809942790197e-01
1.985325109626471241e-01
2.221399504028530869e-01
2.308680879347148052e-01
2.378776950642297883e-01
1.670885481620177637e-01
1.527981531071884447e-01
1.645435493540891581e-01
1.575498937395827248e-01
2.319996179447516294e-01
2.204559424472997131e-01
1.454022276988642393e-01
2.214753491444125255e-01
2.032793149069000993e-01
1.105263603050673643e-01
1.229284062702264285e-01
9.836841492229350670e-02
1.397684904074147083e-01
1.370357384643044185e-01
1.310732397408002070e-01
6.386327726431673124e-02
7.588805241603195639e-02
1.205491829506075002e-01
1.254662200539135852e-01
4.029170520784347564e-02
5.658510664438093363e-02
1.198852265840272546e-01
4.675009762566337268e-02
7.739413049396534627e-02
3.270128644515903765e-02
9.179316786677466089e-02
1.018592678148272368e-03
4.720052354596775135e-02
7.948422553881212549e-02
6.465782824188093247e-02
2.766246512355624576e-02
1.600596353973739172e-02
2.551573733627679474e-02
-1.048307048447201517e-02
2.105285854393916523e-02
1.758457218731083321e-02
3.712892828712135995e-03
4.260494685736241488e-02
-2.301500635906763431e-02
-4.536671587900040215e-02
-1.317083903773594647e-02
3.288426110011892500e-03
-6.500661247279868049e-03
-1.055145541687185079e-02
-4.237956025967409140e-02
-4.049520289243689619e-02
-2.796249075469911874e-02
-3.248845342477585385e-02
1.543749192278484617e-02
-1.149718146731284335e-02
-3.718321222757164923e-02
9.965276252762896025e-03
-1.106783798942802266e-02
-6.665096156070844657e-02
-1.245457379677212817e-01
-6.836092671046138658e-02
-1.191651678511106843e-02
-4.127770319255957832e-03
-8.170872814815710594e-02
-1.309814079869053155e-02
-1.512135442537976271e-02
7.287154809160367730e-03
-6.811095330595783037e-03
4.532905373080778344e-03
-2.201835006047955096e-02
-2.361553086539733629e-02
-4.792636847103030895e-02
-1.369791864380980745e-02
-7.873072777748757467e-02
-4.332853529072115684e-02
-2.333940113549299450e-02
2.384011911248734572e-03
-5.448632122761845609e-02
-1.139562083353517358e-02
-4.651185085551336196e-02
-1.114564355321386036e-02
-6.491474510872753678e-02
-1.916546445951321231e-02
-4.382605259198033704e-02
-7.648774980623099240e-02
-4.544590487847695315e-02
-1.046708293824749614e-03
-7.105875583459668465e-02
-8.472422663224893347e-02
-2.786544716091903656e-02
-8.970837299697359546e-02
8.073661737025707164e-03
7.967815525074778416e-03
-6.267138682297605790e-03
-3.687026112366206115e-02
1.441929388776498622e-02
5.996060526120068623e-03
-4.904520982423158509e-02
1.156575442261274095e-02
-5.731470581278116927e-02
-3.406058312516802716e-02
-7.994948128824147515e-02
-1.956637085359808764e-02
-3.037303932757356995e-02
-3.248645552786296603e-02
-2.105691786437359145e-02
-3.042147006974752974e-02
-8.512369894191414155e-03
3.223657695990295863e-02
-3.441744706736925979e-02
2.723360673420516243e-02
1.193754859105920774e-02
2.101848525511136601e-02
1.336593433931611286e-02
-2.580946049435269007e-03
3.708247684885501716e-02
4.421629544207536511e-02
9.645193448256934865e-03
-1.422517284694502226e-03
4.640068725946976114e-02
7.159364899795130077e-02
8.418258093010708154e-02
9.513837626646594325e-02
7.508264589104166054e-02
6.080199773585888423e-02
7.320794994103264897e-02
4.033003804437115813e-02
6.123988272143522649e-02
8.392087041974305439e-02
8.098898757651523672e-02
9.485755538888407390e-02
5.357177952164818291e-02
6.257780260572456954e-02
1.222590631181892928e-01
7.540846136595157068e-02
8.107831527401329619e-02
1.047027389991850022e-01
7.393955680558911281e-02
1.346353021168629205e-01
6.287852757467764231e-02
9.936800158492689605e-02
7.525195138937848527e-02
1.004960231345270738e-01
7.878811502631845320e-02
9.081856386421441329e-02
1.260429367915191778e-01
6.690218949149616401e-02
6.524769846418890240e-02
7.599423754777030748e-02
1.301359050103281512e-01
8.516037702729306602e-02
1.287714763796078687e-01
9.280789629713323552e-02
1.432242704696711777e-01
1.328363084988500586e-01
1.546138628517395586e-01
1.171560797518349517e-01
1.403993542689082885e-01
2.536198142478852113e-01
2.930360612694409284e-01
3.800384293592715124e-01
3.150652554702227381e-01
4.321879863844207970e-01
4.498343198294112999e-01
5.251416007124475316e-01
6.015652444923959008e-01
6.981327659736858982e-01
7.355855334540550849e-01
8.220766327515979244e-01
9.061489011592104292e-01
9.676061595213075739e-01
9.976509352111132545e-01
1.022416593671785057e+00
1.024219037799117160e+00
1.017831644355451814e+00
1.044044953989721192e+00
9.761187531048656219e-01
9.785577591657269592e-01
8.988555875886392599e-01
8.764609992175265152e-01
7.850100682470080304e-01
7.379691683530423818e-01
6.596688888147943519e-01
5.847109185278889232e-01
5.352969769686239943e-01
3.968835722666958499e-01
3.510049778398789955e-01
3.695852136696307078e-01
2.959864039842067807e-01
2.221057914303445902e-01
2.315988450459192105e-01
1.480372545111572624e-01
1.206346046433164620e-01
9.089615799018874176e-02
1.530063991659969258e-01
8.873277925159353541e-02
7.729241932333943965e-02
7.844567983803757416e-02
4.654063056257692899e-03
4.045473699174226972e-02
7.178981621602770202e-02
5.933673641681360550e-02
1.280856372872076487e-01
4.921776559159983522e-02
9.759995089249870470e-02
9.803131522138132381e-02
8.306859658958681836e-02
9.373347449946509147e-02
8.071820459779802115e-02
3.579536428780513008e-02
1.111261851892010877e-01
1.192179148835517677e-01
1.296696878857998836e-01
1.197207385902541998e-01
1.526342600380858061e-01
1.031804543794774820e-01
1.787713522998725657e-01
1.105425053880156883e-01
1.422853369455049921e-01
1.711477398535730665e-01
1.403149620329208480e-01
1.830977183864510305e-01
1.550114222977675982e-01
1.732917606206359484e-01
1.685346288667611825e-01
1.606359310511529803e-01
2.491798789055398589e-01
1.598826988681379402e-01
1.196255529851487781e-01
1.669270098580025175e-01
1.974838375850565264e-01
1.844194771185947435e-01
2.281246024372901582e-01
2.285295785317301709e-01
1.906573115303992760e-01
1.505307241178445443e-01
1.629319720227985213e-01
2.005280120657217946e-01
1.542651654261321392e-01
1.895134521671594519e-01
2.421762131844854005e-01
2.084601971131906095e-01
1.978375187816826253e-01
1.631984129821802409e-01
1.974987027641019743e-01
1.815970848340885124e-01
1.935110568062810288e-01
2.048697923410139621e-01
2.064251733215765605e-01
1.795074432849135260e-01
1.869081841504911801e-01
1.518680086102751625e-01
1.966659354166089557e-01
1.313389798486244431e-01
1.468132496514574781e-01
1.850599183010660786e-01
1.282940140747373392e-01
9.718027526029843211e-02
1.196378002308146338e-01
1.681842386746915385e-01
5.271618773683384856e-02
1.182687071509608973e-01
9.050601276292799535e-02
9.881437515494773116e-02
8.770935301109820947e-02
1.213237106906853158e-01
8.850380566304413832e-02
1.116375349197616801e-01
1.143428734378232614e-01
7.129184243939981624e-02
5.427670939024163005e-02
7.114578763928533500e-02
7.181666395243868628e-02
1.511454991365199924e-02
5.192713558650784156e-02
3.250743828289080761e-02
2.291619851751403036e-02
1.035956321671742397e-02
8.030891757571823053e-03
6.034321958687138832e-02
7.785352121023457472e-03
4.921054471056940383e-02
1.518387522009703727e-02
-2.621009526988588023e-02
1.017527525154505313e-02
-3.434284858629760989e-02
1.651161105666375944e-02
-1.077562880130290141e-02
1.842850302628962211e-02
3.324691060555974575e-02
-6.420386055666355007e-02
-2.821734008270539856e-02
-5.276586651899010938e-02
4.630258763573721209e-02
-3.348656721296159461e-02
-6.143611824740063954e-02
4.364327232576306614e-02
-4.681684769307398186e-02
-7.504700698365471268e-02
-6.239355980592407175e-02
-2.449521654581137201e-02
-2.847192425637063568e-02
-5.588681703949134605e-02
-4.623442469098799912e-02
-3.088540594129194836e-02
6.521534243431513500e-03
-2.384305047056265586e-02
-5.131372087696314810e-02
-4.178455366072880012e-02
-1.229302150632259963e-02
1.462223130856097481e-02
-6.925962337657368129e-02
-2.988701976363951351e-03
-4.603757824376605162e-02
-8.557713691836288383e-02
-9.166923198858109578e-02
2.913922130682491951e-03
6.421897318991939829e-03
-5.427787405799604226e-02
-4.355562445551595246e-02
-9.060701981142960104e-02
-1.417833957405751494e-02
-3.775139692296454463e-02
-8.328401015400278828e-02
-3.034210072174128164e-02
-7.788597585639825405e-02
-1.914294351662861396e-02
-6.795911279935132332e-02
-2.490720389909110294e-02
-5.408636347553739954e-02
-1.048680632805028268e-01
-3.332725751180674878e-03
-9.213602399789355690e-04
-4.723805020894479567e-02
-2.238172091835154143e-02
-1.638477142934664788e-02
-1.420731514477586999e-02
2.478760168677918152e-02
-1.299123092758064368e-02
-3.458609201004522044e-02
-9.216448091289013156e-03
-3.297646846756653594e-02
-4.988586906469546361e-02
2.102343913867174563e-02
3.006247204610214274e-03
-6.611021370210860837e-02
-2.780214826100476516e-02
1.862328654136805733e-02
-4.761505276946204068e-02
-1.966263926776143020e-02
8.661486888176113397e-02
8.959965527068070035e-04
4.757659213473788146e-02
6.457632095857610000e-02
-3.038690453387251494e-03
3.703372350159730986e-02
9.578879889226536715e-02
5.292557432501548975e-02
1.153317092373404018e-01
3.057004751629779915e-02
1.089557232450365926e-01
6.093303974348573959e-02
5.598890928633156600e-02
9.035017691438315679e-02
7.305922900250011454e-02
7.900053093566494766e-02
1.010702023872946803e-01
3.706300779179615146e-02
7.188172000857769028e-02
1.217958152955621876e-01
1.338307875954647397e-01
1.184298590545957430e-01
1.192462988992444434e-01
1.258989953608234680e-01
1.449987826333108409e-01
7.547214363119517100e-02
1.045124652323923958e-01
1.186362516776550691e-01
1.273477205994407724e-01
5.832753713721160194e-02
8.358950187707744894e-02
1.200827771355902490e-01
1.498622301450957539e-01
1.054493236991203564e-01
9.630537505356465133e-02
1.302979360583796931e-01
1.026793687541350947e-01
1.371476445302787783e-01
1.025940814536039636e-01
7.485017888644450446e-02
1.508562454757058635e-01
1.465049028495327144e-01
8.350858064263516622e-02
1.289493174473290149e-01
1.148424153599678782e-01
1.540246366685388002e-01
1.238550430232082528e-01
1.954385072367743614e-01
2.293676179305934038e-01
1.949379995146434952e-01
2.612415870754890568e-01
3.377987743574973334e-01
3.196722497652321193e-01
3.840891350515299729e-01
4.839559298463429471e-01
5.238772070361799038e-01
5.494806675239360949e-01
6.571064023018280409e-01
7.892228663296914082e-01
8.669727370626280072e-01
8.502408211049672371e-01
9.000813695840178541e-01
9.636677436851788237e-01
1.071343681271764936e+00
1.070848703421404480e+00
1.105112194279488147e+00
1.093426944921875643e+00
1.012729304718473111e+00
9.996811548092536803e-01
9.710204819506103036e-01
9.293032981864832731e-01
8.687019744898057949e-01
8.093005698332401687e-01
7.776287544833395682e-01
6.920375197368225928e-01
6.534643183909497610e-01
5.545744135411311282e-01
4.597510100642498987e-01
4.229141851949043684e-01
3.143458385163230839e-01
2.386332136296310802e-01
2.818304836538534919e-01
2.539592921878897624e-01
1.926346098228189085e-01
1.516489956435280173e-01
1.014459399773364606e-01
1.598760019872839111e-01
1.270774894161952606e-01
1.121466032817008129e-01
9.748448397856632197e-02
8.034119724904850712e-02
5.993774809247775365e-02
1.015217328713530487e-01
7.973457715840612248e-02
8.617399376065970618e-02
1.542443417953186513e-01
1.057041637822872526e-01
3.846420855351809914e-02
1.012446204373678160e-01
9.277590523876810824e-02
1.243364742336403039e-01
9.159874897729845811e-02
1.532384782609864105e-01
1.372870013715680182e-01
1.378472057280951679e-01
1.625394218430580018e-01
1.616414962284475620e-01
1.657255144356810095e-01
1.687805382772018803e-01
1.805289941696708589e-01
1.969387642180644160e-01
1.985407043287885365e-01
2.309998304520972656e-01
1.857994458473102850e-01
2.141470279935587528e-01
2.849679994291050567e-01
2.146993656400379424e-01
2.199504971231130979e-01
1.859314585466245451e-01
2.059684363494702353e-01
2.274063718664298683e-01
2.495219439155128283e-01
2.555912807015889299e-01
2.481697144300836211e-01
2.644279641115508395e-01
2.118994660472073854e-01
2.577674512431835097e-01
2.443619910739061873e-01
2.482082990249328547e-01
2.337293916261252713e-01
2.157835395750004326e-01
2.073353823244073191e-01
2.524692895951504701e-01
2.564926405500312923e-01
2.360333710071890745e-01
2.375029882390680691e-01
2.140409941238586022e-01
2.481229020034000643e-01
2.319294125021554853e-01
2.159308995922223917e-01
2.493938428656554962e-01
2.390125618062418633e-01
1.695912816075851870e-01
2.129188531399889561e-01
1.782633864476689811e-01
2.065694791930014762e-01
1.030275034645550120e-01
1.985407589865602063e-01
2.088929713344566397e-01
1.789992581620803158e-01
1.420725315576527870e-01
2.303166971012328978e-01
2.008549454226313258e-01
1.447521516302108791e-01
1.473363064123734412e-01
9.021160470332101333e-02
1.583292520484106958e-01
9.756000282859327022e-02
1.531785807936203725e-01
1.585713462155159126e-01
1.203593109907930975e-01
8.528916279985868099e-02
1.495420863679543522e-01
1.070896196404568512e-01
1.048883162895569710e-01
6.933557812582810675e-02
9.839424187009429557e-02
8.197427761877992825e-02
4.381009800274521249e-02
1.196167298844226651e-01
1.280962834737677247e-01
1.019308076319049572e-01
9.367102206542790577e-02
1.169411451087303128e-01
2.910663261732875443e-02
2.545167007197206288e-02
4.167124125298692083e-02
6.006485940999776313e-02
3.953473775855025768e-02
1.505362229631252227e-02
4.331589707417679569e-02
3.795723006215595552e-02
6.381668980462090746e-02
3.784345996371320242e-02
-2.256166508551669253e-02
4.434022250820819633e-02
7.855910898142449972e-02
3.042619558952737446e-02
5.773842013599610190e-02
1.166060867404317657e-02
4.257969972369822498e-02
2.165590826477379813e-03
1.610237396302425725e-02
1.542559988258620542e-02
3.606027937865426830e-02
-3.706741086727853574e-03
-2.359163968956655422e-02
3.386924317138014645e-02
3.222231302955060050e-02
2.216739187685164147e-02
4.638736405770071264e-02
1.198749525316570447e-02
2.622769905262761769e-02
7.061746895799554148e-03
9.621779582117769361e-03
2.745368895628300457e-02
8.515666293006178555e-02
3.938082728077182959e-02
3.356465338654325559e-02
4.034401073245074548e-02
-5.321862655143697052e-02
2.690326214326595883e-02
4.479508101188896252e-02
2.020723333992497858e-02
1.661476803504267213e-02
-1.000846964757936761e-02
5.513633747137473839e-03
-6.112900070404578973e-03
4.930674812433323562e-02
6.485914621063136598e-02
7.841173234411544235e-02
-4.520646284531172621e-03
1.621420795414853927e-03
-4.026312782991203765e-05
-7.239482321280896193e-03
-5.790720032754159696e-03
9.888347191734665059e-03
5.277482418203467696e-02
6.318261128123120116e-03
6.089392690738705538e-02
7.191917956038726412e-02
4.119716721539928850e-02
7.143280642272414882e-02
-4.189139181522125166e-03
2.217728398497939568e-02
4.707259700844076966e-02
5.075506580175735694e-02
8.981031826034455157e-02
2.005594147192323734e-02
3.721701614542197167e-02
5.429897447178193282e-02
4.503105161896327202e-02
3.326813603558417820e-02
5.441918992807621980e-02
6.572292736862719864e-02
1.210823370740071736e-01
5.179777058557570590e-02
1.117746919492621505e-01
1.305446569385344535e-01
8.218959292588728927e-02
1.106519740883657038e-01
1.254947126431134596e-01
1.259521176657764363e-01
1.215034383071652291e-01
1.040691884151568741e-01
1.496443043554046004e-01
1.237781708089939203e-01
1.409793604601069228e-01
1.503304835748374146e-01
1.754615320561274949e-01
2.120980861098452630e-01
1.363197721035038223e-01
1.639046344759089169e-01
1.213169098520909400e-01
2.134328463259681230e-01
1.730369449741573362e-01
1.650322248653731672e-01
1.774417035959693911e-01
1.803487543904616630e-01
1.562333792628120555e-01
2.142822522748046854e-01
1.979798328809332097e-01
2.017145851338314200e-01
1.569269935580062669e-01
1.540698504321165729e-01
1.711396498419131829e-01
1.967637973078794900e-01
1.859046950549203547e-01
1.456159972147811066e-01
1.872463813417105105e-01
1.367043746090140788e-01
1.453238768194748398e-01
1.701766247375426921e-01
1.319194372964114237e-01
1.415633834966167903e-01
2.227271519013732659e-01
2.256910058468693525e-01
2.653782370786599287e-01
2.262535002393057382e-01
2.528112405730255641e-01
2.548100808698487985e-01
2.806872401819924256e-01
3.552119555554046348e-01
4.140584407062512518e-01
4.471796631579563197e-01
4.546711049392814230e-01
5.531608102054427212e-01
5.841412383703930011e-01
6.663276702667548790e-01
7.953395688587613366e-01
7.799604333102809761e-01
9.481542862297263063e-01
9.620270895184085402e-01
9.871735558845079472e-01
1.049984257582516234e+00
1.063577915975808308e+00
1.091912703668979967e+00
1.121752635173064672e+00
1.107497813346086435e+00
1.073835040489657722e+00
1.066882873337269944e+00
9.941141137941285066e-01
9.452548835784356784e-01
8.864632667730181215e-01
9.102851832307947699e-01
8.033861582201632379e-01
7.381485666503737608e-01
6.496628221434133099e-01
5.953697761582465997e-01
5.496534837910309612e-01
4.653738834171296523e-01
4.465692984799001231e-01
3.464929573557504194e-01
3.221233708458051126e-01
2.881282723653267874e-01
2.079920841883500238e-01
2.118979527265094365e-01
1.352592895745884649e-01
1.711538580528757791e-01
1.552961828170786873e-01
1.456062744138511278e-01
1.385831524386104685e-01
1.636204956064519211e-01
1.211046830119997531e-01
2.044711136032835719e-01
1.679295795735394337e-01
1.300174516888580323e-01
1.774686820927168229e-01
1.924096149205501149e-01
1.785744022831061706e-01
1.425780799269342480e-01
2.453505813928369694e-01
2.030567533954352188e-01
1.521932496130488643e-01
2.017069412789397331e-01
1.946662471720724263e-01
2.073102895295099168e-01
1.771207111627709496e-01
2.203258280169330674e-01
1.994490458157278379e-01
2.194965488354081729e-01
2.470871221686600783e-01
2.265108412881305378e-01
2.372885429960163162e-01
2.756257010607723879e-01
2.291858315816622804e-01
2.410053125961723330e-01
2.272059929445521542e-01
2.442980737791305146e-01
2.767363563514398384e-01
2.956482193226063759e-01
2.555896241593633156e-01
3.010747146749285230e-01
2.886257548438856957e-01
2.463525220334876475e-01
2.950915099147421450e-01
3.273641241924417633e-01
2.360959404597343658e-01
3.539853867899801498e-01
2.761218346340870711e-01
2.452091559438147605e-01
2.987161808251271866e-01
3.190144427532971005e-01
2.848269675774274257e-01
3.013899919893230916e-01
3.540857116749602795e-01
2.947714967620997384e-01
3.758500139381061311e-01
3.217629713935732938e-01
2.825051669841325275e-01
2.865391084513922992e-01
2.647562401807525556e-01
2.780999326676247274e-01
2.834752184599017011e-01
2.502788393327742833e-01
2.165551285665328896e-01
2.929373594817049065e-01
2.776602197239179670e-01
2.009304587879691129e-01
2.434097259171808247e-01
2.637975521467683659e-01
2.552901777659961624e-01
2.012587168014282057e-01
2.459661901298795528e-01
2.113243612888505429e-01
2.168625553744058798e-01
1.719280071832711143e-01
6.610986515053292323e-02
1.648210284302534245e-01
1.985881004817919848e-01
1.707219277847660532e-01
1.908431637743959741e-01
1.990462621179406311e-01
1.505547462591764474e-01
1.423062815911748102e-01
8.437980523034217806e-02
9.848201988101282223e-02
9.976568774017430252e-02
1.518463726520247747e-01
1.208538760826239067e-01
1.099100597071291513e-01
1.020915482980607747e-01
9.395473172410498397e-02
1.409546688875810139e-01
1.121365279279300103e-01
1.353212118800401209e-01
3.618567258693662636e-02
1.145355921190524817e-01
8.076581559242947128e-02
8.371970496561198516e-02
1.297892569289510467e-01
7.470333569211076719e-02
9.850088471990976757e-02
5.069818124616926741e-02
7.995602107859250962e-02
2.891100420973032395e-02
7.283990832743646171e-02
8.416286548626385200e-02
1.039589623629591508e-01
4.451885028496277430e-02
5.159046882340838358e-02
4.665016133224060557e-02
5.697349440184545921e-02
3.439706928633184252e-02
-2.586446072067892510e-03
2.975497944092201502e-02
5.855922056286919086e-02
5.465750718778146500e-02
7.481264737357334882e-02
8.273504991082719640e-02
4.327020235410650173e-02
8.535432813218619963e-03
6.761454297348933051e-02
5.468998090601136230e-02
4.674990467998255822e-02
9.068452439649478392e-02
6.720374886253005497e-02
5.703441839905151051e-02
5.796667173490277492e-02
7.828497463136693812e-02
3.189053260963405079e-02
2.599272119663521147e-02
4.523589195926170509e-02
1.682103131822641068e-02
5.073478437535906826e-02
5.498429381333161392e-02
5.003187575037233714e-02
4.131751848026832263e-02
1.018611965470848091e-01
8.065164494333429412e-02
4.973263897119693105e-02
5.571143883200761066e-02
9.454873939272007144e-02
3.612957081762013800e-02
2.518263122172549953e-02
6.152567424853000455e-02
6.779573576647238142e-02
7.079355458439903770e-02
8.184044051313246748e-02
3.601677723191451519e-02
1.685551973084978283e-02
4.282477971189981025e-02
7.921778212880883907e-02
3.566441219238274118e-02
7.032964783213378757e-03
7.128031599464432211e-02
5.203049813208601715e-02
1.951602073174741811e-02
7.605021857448510114e-02
6.492499212334346126e-02
1.297025026657425140e-01
8.521473994637621119e-02
1.034762922888986525e-01
8.893837859607497953e-02
7.530507900790278653e-02
8.258699432363478254e-02
1.338291785453273319e-01
1.282088072365734077e-01
6.566693356337491294e-02
7.757752275929138963e-02
8.409293492093562750e-02
1.566547436906147173e-01
7.796872111383423842e-02
1.586263410040845978e-01
1.521372003042220089e-01
1.497458570348470797e-01
1.362721001625195605e-01
1.911700537749082551e-01
1.638568851090396739e-01
1.219213296923151169e-01
1.335176590811252562e-01
1.249011253129651694e-01
2.143797654594397084e-01
2.249265416145546648e-01
2.182853999892940544e-01
1.845386217667093487e-01
1.487853038336739986e-01
1.622837033531307760e-01
1.661274959494521142e-01
1.958585250000770273e-01
2.398233379855523872e-01
2.402068262321871150e-01
1.840854831757038901e-01
1.312170953193265988e-01
1.624472890846901385e-01
2.318558640746045674e-01
2.015324640178566828e-01
1.820098754003930119e-01
1.778104966722500735e-01
1.658478391277763420e-01
1.501170367358076185e-01
2.464876031354159003e-01
2.344428678497473550e-01
1.575423642021506199e-01
1.299768165501274386e-01
1.895413266102550787e-01
1.838687729878567267e-01
2.134240497783120305e-01
2.295420532624571353e-01
1.817731736098681106e-01
2.725200262332565515e-01
2.456352604370861947e-01
3.020149426087990197e-01
3.093672174483472759e-01
3.845123558155077448e-01
3.318957428170929425e-01
4.770013153063098477e-01
4.877095704094789319e-01
5.776655941127942784e-01
6.794927817164170269e-01
6.872348585884965333e-01
7.524932301369756660e-01
8.389468767923331516e-01
9.026187963248197832e-01
9.443267084413237145e-01
1.031672310216457333e+00
1.076438732206373761e+00
1.117697436874279582e+00
1.098971136171774887e+00
1.101820038845488181e+00
1.119705443021199676e+00
1.095820129434095680e+00
1.063850601737627688e+00
1.005639276871430177e+00
9.833850761251518025e-01
8.841474996718099444e-01
8.420969175341322943e-01
7.664676220750108460e-01
7.032115860669331253e-01
6.689447419561721508e-01
5.254623464799647037e-01
4.284450217390526339e-01
4.225400646511984215e-01
3.516879612828908708e-01
2.478625915487579490e-01
3.489645654177903622e-01
2.779590550264085524e-01
2.517620983407396484e-01
1.993286213211669655e-01
2.017077546314229308e-01
1.620644815681295814e-01
1.887113747210139580e-01
1.627906116638185852e-01
1.516157913659308687e-01
1.517361294399190985e-01
1.942188875375789880e-01
1.564207305004640669e-01
1.228039311001156431e-01
1.669584640808096654e-01
1.754059608223803857e-01
1.607715152210141829e-01
1.683135757140208355e-01
1.429379386641342897e-01
1.830888348880565231e-01
1.491363058299811084e-01
1.835342148497655645e-01
1.765170149006247968e-01
2.316422333211903273e-01
2.542021624530822477e-01
1.788879628073453687e-01
2.185345845037466594e-01
2.147376788816481585e-01
2.432556455580974497e-01
2.373621994833850501e-01
2.278647009461450823e-01
2.471486040891160418e-01
2.425667512709589191e-01
3.011520275551687886e-01
2.339237781360257451e-01
2.694788995050078073e-01
2.808137394549765631e-01
2.821828414448801503e-01
2.633139634443006916e-01
3.162253145274498967e-01
2.151284443915739697e-01
2.472744099962947417e-01
3.019663721593526806e-01
2.572829417412695885e-01
2.568101840489452337e-01
2.718751023553989121e-01
2.628885984939127729e-01
3.057757452055600011e-01
3.136370149857627965e-01
2.886326958211896110e-01
3.167384838734474961e-01
2.422642969881057540e-01
2.845374181117516499e-01
3.207548049750543750e-01
3.073368552449097235e-01
3.185035712427193855e-01
2.547759002317834809e-01
2.967460801437645235e-01
2.528836425899526619e-01
2.797154159728396650e-01
2.970933377824912514e-01
2.295993569736377027e-01
1.931676230310798714e-01
2.994687600062096999e-01
2.536869157223206050e-01
2.306504081643829807e-01
2.236593787716933956e-01
1.601466838811479165e-01
2.236823145001319291e-01
1.957855061951867814e-01
2.074718886495070802e-01
2.009334366601402411e-01
9.276914172304059902e-02
2.028463783933373843e-01
1.878478152837494419e-01
1.859108585440799599e-01
1.647632069228799623e-01
1.658211203106220721e-01
1.636746594429877577e-01
1.609186099222747190e-01
1.612350158908012199e-01
1.498155938635492568e-01
1.912896576438452290e-01
1.085924924233998140e-01
1.138188198437928011e-01
1.706783579508389936e-01
1.102088357987807687e-01
1.378947271219186643e-01
1.092562837241471546e-01
9.375371038988014605e-02
1.257274354152857487e-01
1.074023296774220676e-01
4.169867669078346911e-02
8.895386151910639194e-02
5.008845815103162014e-02
1.144269427750288226e-01
1.254119470922081259e-01
1.256935201708235528e-01
7.702594012610353147e-02
4.943309441846496094e-02
7.006275405286774283e-02
2.949491263570723151e-02
1.254711417285826469e-01
8.849511268250363771e-02
5.949266244454637365e-02
7.809040086092688959e-02
3.137400394059705611e-02
1.095357592138129776e-02
-2.402395308219300307e-02
4.315632116038699978e-02
3.281548134318423848e-02
5.313371981559272123e-02
3.653653737481919045e-02
4.903965269441540320e-02
5.791890186476097990e-02
-1.137588618287434239e-02
5.741495943895034981e-02
1.813986680243898433e-02
4.492064233895638747e-02
5.917881112250575337e-02
5.856256172904489993e-02
3.079757556073818917e-02
3.156285863634869515e-02
5.230098418415329853e-02
-2.010977321382250577e-02
-4.195348609339802359e-03
1.544356198300093734e-02
-1.665209855255259455e-02
1.473078963477240759e-02
1.268181449598110820e-02
2.471465244073565298e-02
2.006353768287155032e-02
5.355922578260879224e-02
3.841903685386341416e-02
1.889128241062725672e-02
1.086324801773132231e-02
1.932181736825869592e-02
1.979230214002704671e-02
9.624674537875432812e-02
-2.298462126771949957e-02
-6.923186322385175423e-03
-1.112594518390511503e-02
2.941645690016456496e-02
2.859211496682483727e-02
4.968522908333303928e-03
4.960668837143690502e-02
3.448811881140290136e-02
5.233891699930587338e-02
6.122906367664805727e-02
-3.773435088647089652e-02
4.798919164106560387e-02
-9.895251658287532864e-03
3.784681486611730233e-02
2.991686609483770742e-02
3.312692757860775938e-02
2.263103813625669258e-05
6.940917616570095594e-02
2.324220213428887516e-03
6.631508049382789372e-02
3.820508148552831731e-03
4.943853515687154920e-02
1.075203597081405282e-01
1.278655619955851308e-01
1.229040361746451364e-02
4.374944022639437602e-02
5.342584358685395496e-02
1.411491482088105265e-01
7.599370331523180866e-02
1.149628886128110927e-01
9.650365312011129071e-02
5.640926647891510159e-02
4.151960241334527041e-02
8.387243689258602752e-02
1.767129439556671122e-01
1.198314489361707313e-01
1.485485810658679906e-01
7.906463187989989927e-02
1.163916844531203282e-01
1.538535444260705487e-01
1.018585489405784972e-01
1.365082725668011476e-01
1.155609246417162728e-01
1.699329682071238079e-01
1.599100364118302420e-01
1.708716235110710191e-01
1.784948444958913971e-01
1.470823284145034437e-01
1.851023591187407058e-01
1.379367478049573492e-01
1.745621455982971082e-01
9.635702457201118787e-02
1.323407634880978123e-01
2.230266580201238080e-01
1.703158243999878252e-01
1.684253990071567786e-01
1.232036882510937487e-01
1.127613576216133506e-01
1.352785239804405737e-01
1.389288014625817413e-01
1.964192949418672174e-01
1.681501635476699286e-01
1.402988723754215461e-01
1.396608748039271097e-01
1.627206243432567367e-01
1.048090102763136466e-01
9.377719828690468662e-02
1.839986610842016812e-01
1.779877484665087495e-01
1.550672349083097035e-01
1.552552369644791264e-01
2.741828893589776106e-01
2.669919494910083513e-01
3.361718899818074702e-01
3.640618856097331268e-01
4.248117821588834331e-01
4.674565197185437948e-01
5.469757558618304483e-01
6.341007384934754798e-01
6.779961047245066652e-01
7.459385670019447190e-01
8.419808968701754104e-01
9.078603230580259975e-01
9.112872855546063633e-01
9.941570348245379884e-01
1.018904484191002213e+00
1.063065968317632004e+00
1.121030324494713515e+00
1.090816597997549042e+00
1.133574874700874480e+00
1.050815450620058877e+00
1.002715685290210157e+00
9.598703789759623906e-01
9.084892695634728677e-01
8.506279460421307670e-01
7.430230070902712480e-01
6.948838967373724973e-01
6.085656582938027137e-01
5.908142842335895040e-01
4.346286879016612037e-01
4.337588855026676127e-01
3.253483770212970416e-01
3.315711948129238529e-01
2.605859235922305395e-01
1.783287154683984854e-01
2.275679154814716221e-01
9.614144083662524987e-02
1.484278098388836231e-01
1.527057126934600328e-01
1.601490314467065856e-01
6.110613032406445738e-02
8.761148163302738545e-02
1.318732339136643450e-01
1.322888491888972173e-01
1.362650432600538974e-01
1.761322383477106901e-01
8.652347506906479802e-02
1.162725651075861011e-01
9.866637305444239670e-02
5.420131640605069245e-02
1.155180158805228924e-01
6.340756589171170354e-02
1.128176998240321138e-01
8.972782248929174476e-02
1.523481876534367729e-01
1.212788826739182729e-01
9.654130062919204225e-02
1.815133739710541039e-01
1.428356791976154727e-01
1.533255120977989328e-01
1.422103777330677998e-01
2.111633197808818196e-01
1.898277861546048273e-01
1.681942646642737571e-01
1.338747623788629215e-01
2.711390855304960934e-01
2.595222217493767802e-01
2.475344501233988359e-01
1.870082634686712486e-01
1.966823798074179008e-01
2.270678599488442362e-01
1.912844138570168051e-01
1.911715339567872096e-01
2.670525867276702381e-01
2.237614551785979122e-01
1.936069284513510791e-01
2.572291906888403146e-01
2.125300050657552564e-01
1.711099629923996945e-01
1.968314996131437233e-01
2.154052956800242002e-01
2.371609421237091953e-01
2.350146545348587579e-01
2.656363421245062639e-01
2.202769033309060487e-01
2.116520287335747763e-01
2.608624580814085658e-01
2.504252936239395044e-01
2.118870314313990866e-01
2.239621742130771531e-01
1.975482354579662092e-01
1.732589570246833022e-01
2.700803774836411097e-01
1.836849424146454468e-01
2.043246180626957231e-01
1.453194790794415936e-01
2.079678741722600088e-01
1.446004438649713397e-01
2.258427044806949335e-01
2.239987364158855243e-01
1.814817990700289263e-01
1.622780367601964202e-01
1.474299007810025430e-01
1.457674880281916441e-01
1.535516489821879826e-01
1.380053670798632171e-01
1.587780743770354497e-01
9.578473529658738939e-02
1.631924703823942058e-01
9.871218471543014017e-02
8.309847645610814182e-02
1.104915401608588810e-01
1.066172983198041824e-01
3.601005867346563499e-02
6.806009697221575283e-02
1.181982833918300210e-02
5.131271300987802486e-02
4.733086657503571271e-02
7.009187922814401339e-02
3.253074191415322031e-02
3.477450203819726360e-02
8.571377497904812681e-02
1.039682209468333618e-01
1.001806782161289086e-02
6.398554571370340671e-02
4.096625421469385353e-02
-2.674501498372002656e-02
-2.067293738444907214e-03
-7.275599818363365223e-02
2.435794827269445115e-02
-2.092177165747372350e-02
1.228745948390677634e-02
8.243977880668765246e-02
5.029755001489331911e-02
-2.316761973607748062e-02
-3.293875290926828736e-02
3.373500767336552741e-02
-3.744345500625771705e-02
2.031875476940716435e-02
7.067009485464290086e-02
6.985314630232143662e-03
2.048632721906810950e-02
1.535936457733880905e-02
-3.493764603970192506e-02
-1.096293280337587092e-02
-4.971148645844617603e-02
1.641891320746378252e-02
-5.600881765193201772e-02
-3.521672585895176122e-03
8.379141547685715896e-03
-4.127182176093284471e-02
-4.903576906355820719e-02
-3.331713499994634620e-02
-5.576047959908321527e-02
-2.500091211605496092e-02
-5.785447328472904938e-02
-5.628459366595088553e-02
-1.509586273222446665e-02
-1.348586008254835239e-02
-4.128407865071631599e-02
-8.229517671659036804e-02
1.840793231216615589e-03
-4.707892007512286953e-02
2.794133646227885820e-02
-3.816024576091524984e-02
-3.033333709097613476e-02
-4.753418582913889606e-02
-2.740903190273893952e-02
6.950393565714432786e-02
-4.529287801713781370e-02
3.490169410543725315e-03
-3.199727886186243264e-02
6.452542400870522887e-04
-9.230732765960300568e-02
2.429019613278415174e-02
-2.344794074547288526e-02
-4.124252932261350535e-02
-5.542451450997347429e-03
-2.764829924966506064e-02
-6.560852736164979326e-02
-1.029504669456910160e-01
2.558652454242877489e-02
-3.467716899358488231e-02
-4.501918880623162478e-02
-4.116063754857898771e-02
2.053363853947422907e-02
-3.621432068069332932e-02
-9.615021197998535607e-05
-2.718003055202549215e-02
-5.229062424098171458e-02
1.510111990470386356e-02
2.407956112682067829e-02
-2.624332805220072617e-02
-3.629690228693228937e-03
3.997862511020258691e-03
1.823910699215641751e-02
6.802784778164694401e-02
3.372874091216442050e-03
7.570831446366568795e-03
1.676353035909044359e-02
-1.543615601711130492e-03
-2.011472306191205983e-02
4.049335903570790152e-02
5.730498406543953899e-02
4.661261180622536249e-02
4.972429236846363787e-02
2.969001734936167758e-02
6.921459705095857340e-02
7.163595363867070187e-02
8.555361888158893868e-02
8.561442556843415486e-02
9.210815820239430518e-02
1.240011192814514523e-01
1.054654811235944123e-01
1.062627158267691330e-01
4.276422964645478636e-02
1.294600576126199998e-01
9.132901415197740291e-02
1.046218961158962568e-01
6.559278496775594602e-02
1.675508565122905136e-01
3.123667849744529712e-02
1.502486608956725145e-01
1.180437803020497334e-01
4.737261653352119184e-02
1.644530353409077439e-01
1.172329210826631440e-01
2.921690413179853923e-02
8.520540179188465513e-02
1.116969215273437566e-01
1.448441718720860361e-01
7.912798030745332722e-02
1.034165210667799262e-02
1.325099399622909346e-01
1.036395344996545037e-01
2.301192265769140544e-02
1.033449770431192627e-01
1.118778473417554598e-01
9.687304974739766039e-02
9.342503095512322275e-02
1.156372649383973494e-01
1.445280067111384681e-01
1.905405132153251968e-01
2.349054385825578017e-01
1.842847446164079528e-01
3.001552851062950777e-01
3.571125418981643262e-01
4.034614803081102430e-01
4.474320651454165021e-01
5.676718696320220969e-01
6.339206506648070727e-01
6.525194462427494901e-01
7.304727949008276155e-01
8.230697206237742591e-01
9.006852705218212352e-01
8.932399982183528708e-01
9.330197686110305311e-01
1.008769350850233781e+00
9.910034651978304465e-01
9.775826023850601176e-01
1.009126697574053377e+00
1.030701520689089046e+00
1.036473191933969584e+00
9.285854693379844704e-01
8.959056608797636434e-01
8.457114994865031488e-01
7.566682936160172845e-01
6.852077856085381224e-01
6.459171841212587584e-01
5.287543556210814177e-01
4.722410499619602020e-01
4.230900154211605368e-01
3.772934004295134813e-01
2.660621722940255673e-01
2.575188851360529774e-01
1.789397335088674379e-01
1.596699369281682768e-01
1.724865390113370922e-01
1.209709328409632745e-01
1.528525743237812429e-01
8.488323532950284300e-02
1.044424319415261093e-01
9.109601668995047363e-02
6.164746559705111539e-02
1.979546753732077530e-02
5.530764246917610483e-02
4.325681585530294360e-02
4.412545006206376047e-02
6.894492993986051088e-02
2.453577495329752750e-02
4.613132450407778778e-02
4.673796863356724507e-02
7.454498123269029386e-02
6.443063875309290589e-02
7.187057506148927799e-02
1.025860056583020596e-01
9.079794443482255839e-02
1.099913759811085578e-01
8.205716103724303156e-02
9.633214221479516337e-02
1.880181882153548478e-01
1.114091896307712881e-01
7.458467866719273309e-02
1.533752294536158411e-01
1.270737948009323104e-01
1.606777906948150814e-01
1.555547065046745114e-01
1.794255255120199011e-01
1.644209005019922898e-01
1.648675630663066494e-01
2.101134987577720770e-01
1.128843655380296074e-01
1.431423876325215727e-01
1.613438296388658155e-01
1.381989816263878290e-01
1.771761310907674358e-01
1.764636878618381366e-01
2.249607577440503325e-01
1.946423844939518533e-01
1.921213635786774010e-01
1.879828074793493953e-01
1.683257191589693502e-01
2.267562390572473441e-01
2.361201535675967467e-01
1.628778576327347960e-01
2.469116246319419949e-01
1.768938001494596013e-01
1.728129463523572218e-01
2.075963647400700940e-01
2.079654653552454324e-01
1.863351855516284517e-01
1.751421212769345426e-01
2.174598159187877133e-01
1.600633883078393660e-01
1.729016028302053087e-01
2.217253187190094676e-01
1.265073038647507864e-01
1.483466125807917924e-01
1.881423576102420891e-01
1.683246219578200809e-01
1.742341872622304721e-01
1.025077531027256406e-01
1.464789592183413647e-01
1.228301968274969347e-01
1.940084477463658308e-01
1.444942793039178386e-01
1.138663934604747796e-01
1.174000734202977347e-01
1.047207717313471120e-01
1.183306072286711419e-01
6.595467049408938742e-02
1.269150689195088222e-01
4.057797815088215465e-02
8.089298858218775534e-02
4.450916550094125013e-02
6.510475745851192209e-02
8.814090780081315635e-02
1.919028433033181935e-03
4.311234959579404724e-02
3.821323827132155904e-05
3.001826814338930810e-02
-9.561925462485701410e-03
3.402063403949676795e-02
1.199104699696765253e-02
4.295470465486076611e-02
5.332149405179567592e-02
1.286894357411993983e-02
3.560631004730965832e-02
4.668060886227569373e-02
-2.588312626194565896e-02
4.156480017727157139e-02
-5.696921702412031940e-03
-3.688525399534876847e-02
-1.369012440302748435e-03
-1.512136761153727582e-02
-5.765459428699891420e-02
-5.081531966899573843e-02
2.913803699909853911e-02
-1.368404082759157314e-02
2.048571015722662481e-02
-3.826386629956650409e-02
-5.149075049053984665e-02
-7.949821001001897147e-02
-1.403135504297700620e-03
-1.945904295979443421e-02
-4.523694727597335485e-02
-5.792503981715971945e-02
-1.380913452121546037e-03
-4.145917405813445700e-02
-4.200715692081870983e-02
-5.582628556914882856e-02
-5.074472889714108648e-02
-2.266517205367089838e-02
-8.224416553960200993e-02
-3.784895324400842920e-02
-1.206521120954694160e-02
-4.368209549108112433e-02
-9.867003789262564217e-03
-1.580861144053237466e-03
-1.494936555634507683e-02
-5.838748727051457088e-02
-4.350257245739821282e-02
-3.219381228090550245e-02
-5.674563913360505807e-02
-5.779169730812779709e-02
-5.960236431812998559e-02
3.364087094999154010e-02
-5.071912527260740572e-02
-1.040246453574047991e-02
-6.837483723135993896e-02
8.979493270060326382e-03
-5.315936078213542859e-02
-3.988520771076987936e-02
-9.606734313106801704e-02
-7.132460490439314349e-03
-1.064760343483725502e-04
-7.511497183666135391e-02
-3.560413974620618704e-03
-7.813703854317366471e-02
-1.816804368081923263e-02
-4.476969692956310476e-02
5.076896773985865863e-03
-2.628498142179444899e-02
-4.426638490884558796e-03
6.302171061366809712e-03
-3.786113230913835948e-02
-2.812684558345247138e-02
-5.854508271194081015e-02
-3.197150105634227746e-02
3.727735961966977679e-02
4.779077096618435105e-03
-4.638121590298062424e-02
3.696680941815802535e-02
2.979213334849357964e-03
1.972765275425261006e-02
1.325610922681085685e-02
1.507488363483266980e-02
-5.329627571253404278e-02
4.419998029767857606e-02
-5.209059924347552578e-02
5.074586520533705403e-02
2.814180927955315520e-02
5.524957238194908027e-02
4.008822868500021980e-02
7.189370136487099883e-02
4.637687640486057306e-02
5.966735071004331675e-02
6.873252323792093665e-02
1.182675043269362791e-01
8.516705642227842543e-02
3.279836431118993145e-02
6.038606555672795806e-02
1.000649792015220474e-01
1.245163045505719712e-01
6.939993274051686756e-02
1.623089324666093514e-01
1.040999566547119309e-01
1.148081346976344563e-01
6.753937964588163645e-02
1.411822790323500054e-01
9.646563614687919674e-02
8.913224524263221871e-02
1.031999347651903765e-01
1.549387122565114572e-01
1.277024227554800218e-01
8.687820958728151299e-02
9.702657490951366315e-02
1.542112276238429280e-01
1.034651693527633143e-01
1.257120349961592942e-01
1.311940966701085343e-01
2.525505312339797193e-03
1.411245517519355286e-01
7.596303050592650985e-02
8.952149558957912812e-02
1.460682299516830041e-01
1.439261047836543905e-01
1.174091260195913311e-01
1.285238458605271750e-01
1.425117417189973867e-01
1.656069714893401157e-01
1.825942049713102366e-01
1.565310914998641334e-01
1.534770412702950726e-01
1.956633888489530126e-01
2.407359474148408895e-01
2.751209840555298713e-01
2.924419970690417259e-01
3.881748351528019891e-01
3.860412025017957993e-01
4.986371324361338897e-01
5.674807857851102977e-01
6.358905419192530939e-01
7.282282966712926298e-01
7.933949209673080150e-01
9.044540020875735387e-01
8.828152926537518042e-01
9.598296597277051756e-01
1.001600790540026820e+00
1.032816161760828688e+00
1.010108704061709828e+00
1.019676998919708089e+00
1.049045989740286178e+00
9.820237696856213283e-01
9.872532448931883309e-01
9.345845289089205199e-01
8.921702632000548805e-01
8.744545770702250032e-01
7.418759911154019226e-01
7.305813094845994282e-01
6.162356626487822675e-01
5.494422730107602071e-01
5.085947544282357624e-01
4.219432446439075890e-01
3.438114114703327839e-01
3.055658592577711885e-01
2.156085957292271926e-01
2.389045314395756570e-01
9.923651596552829357e-02
1.897495733972537069e-01
1.579596597155491777e-01
1.689945396284935064e-01
1.723455743846895039e-01
1.247779346795320904e-01
7.101476654721294857e-02
1.509146329632448380e-01
4.809076303367340599e-02
2.683967319479860225e-02
1.409727534870682808e-01
1.060763463762027098e-01
3.528073012968152566e-02
5.510655548970281453e-02
1.170382696409721368e-01
7.952262000291943078e-02
8.924606569828043290e-02
1.756394178398344996e-01
1.868534033029667918e-01
1.326662214971331410e-01
1.296590257917167033e-01
1.671792189780845761e-01
1.291816110556427422e-01
8.500529373262746824e-02
7.491002597904770910e-02
1.613045004025819573e-01
1.956260101711932708e-01
1.751871501674164278e-01
2.044038882545053393e-01
2.126389356047277135e-01
2.319859096082999006e-01
2.008566913142463273e-01
2.081943123597378154e-01
2.032311375897115080e-01
2.007511243255432898e-01
1.652454654661903999e-01
2.511890626783617742e-01
2.078458896838677183e-01
2.091494423934436298e-01
2.088358316406533910e-01
1.872470075037857007e-01
2.269282673061923938e-01
2.466771436229399095e-01
2.113632293036963317e-01
2.646302087108821643e-01
2.230697846834479858e-01
1.884004124906203947e-01
2.754867739279939776e-01
2.397648460426254902e-01
2.588870156954463653e-01
2.584188685539215991e-01
2.019074564083553069e-01
2.127716939767345106e-01
2.572657151286752986e-01
2.787816862678815788e-01
2.228033936394762105e-01
1.989731512853205042e-01
2.648612973791850678e-01
1.919280021642572609e-01
2.166805695871912851e-01
1.898282838887963286e-01
2.063672493474041081e-01
1.653656655745859849e-01
1.777427766735955872e-01
1.652549734306400231e-01
1.988891518019211824e-01
1.787424253641938243e-01
1.949709136550943911e-01
1.384248432367130854e-01
1.515094421637980249e-01
1.710302444843976033e-01
1.725256369279877244e-01
9.786296760174988119e-02
1.452456986719041221e-01
1.058093943723392300e-01
1.520163359354391730e-01
1.751329793672075641e-01
3.560488307017391219e-02
8.900573940701160536e-02
1.114083947735225733e-01
9.829159931926151339e-02
1.216189506441827661e-01
9.094399843234197978e-02
6.795095464201347801e-02
4.864019889802045915e-02
3.914328831794137986e-02
4.821366705364496519e-02
4.939225729533341241e-02
7.386261032618618438e-02
5.381162833052306749e-02
3.531048506721744251e-02
2.104328040669667735e-02
2.689135065024232663e-02
2.785828528936472315e-02
1.930521215358306855e-02
5.907112695002992436e-02
7.720472437656747400e-02
-1.678613101713730561e-03
6.477185676935751091e-02
4.972988521227815484e-02
3.221106894206795385e-02
7.063665240760397257e-02
1.788542432894019152e-02
3.333748907645973231e-02
2.340491407655825168e-02
1.970691971706442502e-02
3.064498274847358636e-02
1.702670788904217178e-02
2.848185973878257851e-02
-6.631846279124487681e-03
-6.635129927250149086e-03
-8.558883282737241374e-03
-3.718963527481449621e-05
4.062062586980080825e-02
-4.252787537306089438e-03
2.864996149435156125e-02
1.656960788381756436e-02
-5.043023045288776846e-03
4.712808400373130063e-02
2.964501444930561086e-02
7.377092765819752256e-03
4.701390153045593295e-03
9.806631674857062275e-03
-3.898690030440429832e-02
-1.790201141372328025e-02
2.071155573738197447e-02
-4.062186004637378944e-02
-1.549319387188559383e-02
-4.731568881910503191e-03
9.430340345133930713e-02
2.759538015658382498e-02
4.053474201641651259e-02
-1.626519907478975874e-02
1.907148367383905418e-02
-4.422603542296551365e-02
-9.174775825684967911e-04
2.464026931147316260e-02
-3.250831002877624387e-02
2.241976805950929991e-02
2.558747808154740455e-02
-6.010260976635979462e-03
-1.213257456174631453e-02
-7.603723398833549252e-03
4.490795871667964054e-03
6.554583903008918619e-03
3.262686124638271984e-02
2.719344894456668729e-03
6.837004617761173464e-02
6.985943346658629594e-02
3.096832186404767373e-02
1.558429294428767022e-02
1.214729510566226432e-02
4.006114271482290323e-02
4.792076849455265825e-02
2.995547011404553484e-02
2.721914509791320547e-02
5.283825916958864721e-02
4.778828692949556312e-02
3.223332968438356871e-02
5.668561847781989488e-02
3.924749257862419904e-02
3.917437109937187828e-02
6.609182956134602993e-02
5.370475641229903452e-02
5.383057020161816086e-02
1.122220233115922838e-01
7.424833839337612040e-02
1.465896058267473490e-01
1.154463055730626242e-01
7.743966203459694275e-02
1.422911320699249693e-01
9.142784900177231000e-02
1.775101885505442068e-01
1.303973950033169571e-01
1.450712052341960046e-01
1.347477333219316009e-01
1.466245281200088124e-01
1.363695673059515667e-01
1.197922447228641912e-01
1.617736445429240610e-01
1.860040118588371372e-01
1.228462383331285768e-01
2.076863088941885982e-01
1.819899136918019522e-01
1.528897149526146915e-01
1.539375551664060870e-01
2.246234169450758711e-01
1.975091594240722948e-01
2.037340517729983314e-01
1.617358187434799754e-01
1.852426819835588101e-01
1.779794459078040403e-01
1.608431648891819055e-01
1.676798766327738388e-01
1.958523942594656009e-01
2.086389647210265541e-01
1.513147854742530329e-01
1.179814149717008098e-01
2.057431296643082441e-01
2.060284060207114298e-01
1.694656616593065990e-01
2.139633106479753022e-01
1.748431896644307149e-01
1.452111009151751397e-01
1.438103601393294628e-01
1.580544096492145778e-01
2.168341049291625799e-01
2.267592924977838986e-01
2.530154670547786200e-01
3.028082828647823410e-01
3.736394530402554759e-01
3.796610316360332082e-01
4.288400959214075936e-01
4.956346259156948486e-01
6.021351720541688879e-01
6.403431156902588128e-01
7.207677171628484869e-01
8.290969988074828878e-01
9.361526398653128300e-01
9.345004612798968324e-01
9.898978447396366009e-01
9.883592560954291839e-01
1.075198907373295487e+00
1.094718822546839165e+00
1.135676887458412665e+00
1.099889960680225709e+00
1.106963083246629065e+00
1.095362158387619855e+00
1.098305547180066899e+00
1.041647565451478963e+00
9.770657651548397826e-01
8.981912312533939513e-01
7.958003952182308716e-01
7.601173623312922345e-01
6.440201143408053053e-01
5.910454072606728948e-01
5.834444814963261061e-01
4.832524337817895033e-01
4.161156239503217003e-01
3.680274869214796851e-01
3.088257083333734720e-01
2.075804164051954226e-01
2.011300261659021149e-01
2.302551631084069628e-01
1.622113130953942717e-01
1.695611167605292902e-01
1.232133929582254761e-01
1.294212539200097489e-01
1.449231745933934334e-01
1.694351181262587491e-01
1.742407558663981448e-01
1.189722957109755064e-01
1.520685719323442986e-01
1.030217012700029300e-01
1.512140658015253825e-01
1.824847562490229391e-01
1.567097635692072943e-01
2.033794626394406779e-01
1.944614223347078119e-01
1.822222197376264230e-01
1.732456687200563950e-01
1.705406905543526419e-01
1.487070493391809689e-01
1.594767895954781189e-01
2.340474425718945262e-01
2.554357466841539748e-01
1.833544321430425339e-01
2.235049400116941865e-01
1.797914476644775494e-01
2.031607842441867373e-01
2.455503946252631242e-01
2.273190787205162100e-01
1.903330051563497105e-01
3.041194906076922222e-01
2.555919211180509021e-01
2.282077234575283775e-01
2.691987814995270845e-01
2.666782375106273584e-01
2.852194264560269921e-01
2.655296388017244213e-01
2.880013173853491204e-01
3.094072307405800193e-01
2.437434703412781067e-01
2.643397798398371967e-01
3.118139664525872989e-01
2.712377719336759863e-01
2.861126129809156704e-01
2.748720002841662513e-01
2.768003881645745290e-01
2.739472562251130117e-01
2.503076416075493138e-01
3.008195366997907794e-01
3.175355356432039144e-01
2.786485925623846671e-01
3.103661757046417558e-01
2.647603200784894306e-01
2.602821446003044104e-01
2.860936539042375770e-01
2.832885996431182551e-01
2.635009466113492627e-01
2.833346593735428520e-01
2.203340733454212941e-01
2.455004977980689285e-01
2.790279048588744648e-01
2.742163511099406925e-01
2.655264870051550208e-01
2.660037870308491481e-01
2.190030114881015566e-01
