1.212324246253748905e+00
1.196570820696858384e+00
1.161697190883657749e+00
1.142092271577685780e+00
1.110182652975143958e+00
1.072727525800942994e+00
8.983100404061203914e-01
8.799390208269592950e-01
8.338272395675999649e-01
7.488597905467597737e-01
6.874157014684353362e-01
6.094039144070306779e-01
5.224138958576056702e-01
4.512520902285922508e-01
4.013453155110651149e-01
3.914756831000688608e-01
2.901897477790595370e-01
2.721514746263505868e-01
2.478713121569939837e-01
2.635073094756559819e-01
1.874379098887367923e-01
2.097626389503402800e-01
2.066693661422994710e-01
1.600442336554288303e-01
1.508321884660505929e-01
1.448990610318438843e-01
1.466667320038116396e-01
1.810935188266571128e-01
1.647406468449289785e-01
1.681569971982554978e-01
1.313513972587885825e-01
1.406384522809524529e-01
2.389281081380967287e-01
1.745497807519789391e-01
1.621154001880998896e-01
2.339140246017684666e-01
2.051544377833101618e-01
2.198188874656472058e-01
2.041273347906234215e-01
2.044940849226687396e-01
2.147172663124852221e-01
1.840146770456728142e-01
2.284702108837662060e-01
2.454983551976508971e-01
2.975182737510049802e-01
2.498291289587759312e-01
1.823069147526865386e-01
2.544149743442374878e-01
3.441226364325942200e-01
2.924140939343102819e-01
2.463472260819681292e-01
2.924063567218225801e-01
2.561446027929498159e-01
2.412402110832108926e-01
2.745563927257753112e-01
2.905970317306902917e-01
2.342093798447968944e-01
2.580906998740802871e-01
2.947265378565559479e-01
2.836741678641408471e-01
3.089122987029581102e-01
2.614175275458356928e-01
3.197084825158624244e-01
2.628360873143719134e-01
3.473309749178608019e-01
2.459141528057572357e-01
2.635892378627411325e-01
3.075116453764447089e-01
3.431940547205475367e-01
3.006544184876590031e-01
3.056935323747342337e-01
2.866175736093513615e-01
2.522738672907803847e-01
2.650395743803753978e-01
2.397818529896111328e-01
2.339057505112195900e-01
2.801957776758779439e-01
2.300892514533991184e-01
2.687948605746929287e-01
2.153774946333861795e-01
2.583662660322126881e-01
2.296942715512024502e-01
2.812895004115333886e-01
2.434142471646386086e-01
2.652822185787075404e-01
1.999587220289371914e-01
2.186638746900546049e-01
1.818488731952115633e-01
1.931436995549893343e-01
1.919450486198132078e-01
1.722916101480632678e-01
1.518805734587957701e-01
1.402530982166901030e-01
1.068285424156000252e-01
1.397562884138110750e-01
1.847735660583346984e-01
1.125843597240312466e-01
1.141858858007369637e-01
2.037567026875100329e-01
1.258542160327711379e-01
1.496272907529645479e-01
1.544470095780220709e-01
1.503759832923595996e-01
8.029999676932342290e-02
1.146578526694692485e-01
6.881761588636654825e-02
1.866860417758361423e-01
6.154148002015624730e-02
7.420401080576202735e-02
7.083325791017035244e-02
5.372375847941403965e-02
1.359328830873421379e-01
1.649175737521720586e-01
7.501612939310292605e-02
4.687308127904789984e-02
1.672474521232148598e-02
7.400199448898049648e-02
6.946914381772532898e-02
5.719396282322478098e-02
8.128025758849105609e-02
8.452906810973129237e-02
8.052509987489167576e-02
5.962644032184270804e-02
3.445287975634777483e-02
8.597648968300525274e-02
6.498031162321099563e-02
8.995729960528220381e-02
8.580365647969265264e-02
1.833141433595981279e-02
1.692358014653586040e-02
3.632819632525774445e-02
2.642406961877338117e-02
7.995602124921995235e-02
6.708854852908607835e-02
8.883561855786277495e-02
6.712146369501501009e-02
6.090507837039045580e-02
9.010442687728208166e-02
6.771593977443436663e-02
5.522000819233960356e-02
9.718153404555610053e-02
5.584947061606828494e-02
4.292230267502775837e-02
2.660612040293200420e-02
7.254735365197403918e-02
8.830921684804673988e-02
4.944460653328690281e-02
8.998593799309469177e-02
-8.545511088033218294e-03
4.871678377975048602e-02
4.902093679239936247e-02
2.827452913822218680e-02
1.214774219973440011e-01
4.786944115754586393e-02
3.753335100843960964e-02
5.047094077612732099e-02
-1.044814057362950660e-02
2.680279904553683687e-02
7.907831313473868973e-02
3.071646904307455406e-02
2.474586624595385975e-02
8.895133241031599747e-02
8.995582755350049753e-02
6.537326192516565437e-02
3.636214589767085281e-02
4.302500286771345633e-02
2.632459917263434840e-02
2.089807963460703008e-02
1.975946726739676029e-02
3.296641996377089323e-02
2.095538281471409636e-02
5.655722660029921522e-03
5.980829363587408104e-02
6.102195893065371496e-02
1.058738016301018769e-01
3.578372469200168104e-02
6.582884399575170131e-02
6.757759162909136863e-02
5.198031326809076508e-02
8.348382818416330564e-02
8.613830542275335844e-02
7.461025732837509028e-02
5.921316086898050640e-02
5.844704287957309258e-02
3.063429344688557016e-02
5.019266049383504236e-02
5.862703601837138123e-02
4.670171308784368952e-02
9.696953858090370804e-02
1.232376166296160758e-01
6.387617720797289511e-02
1.036066347383161335e-01
6.826254059994074641e-02
9.450608682845042241e-02
8.748248395577704062e-02
1.309410012764902764e-01
9.734483927390098768e-02
1.529917964824666354e-01
1.202867701408610601e-01
1.132407309838129039e-01
1.002228845058515116e-01
1.505006913028400506e-01
1.747976703724073433e-01
1.610946468151583100e-01
2.248934199580653603e-01
2.052967845913885592e-01
1.576548184886440440e-01
1.615821131291049206e-01
1.891838736202366977e-01
1.536146514295251009e-01
2.170648847596345077e-01
1.958731771873182814e-01
1.952681304656222472e-01
2.103085828751468656e-01
2.430673992848806364e-01
1.977361621847748552e-01
1.899750888474751598e-01
2.389184862396199205e-01
2.225115749780995356e-01
1.832363375059094246e-01
1.919804194682074305e-01
1.962630079309262698e-01
1.995059394198611669e-01
1.459523847206473934e-01
1.382238908653925513e-01
1.557045986552972328e-01
1.513590276938178436e-01
1.593191087310899257e-01
1.966271165543406196e-01
1.724084707900765401e-01
1.845800452650517565e-01
1.449420608270665101e-01
1.730929025141383915e-01
2.126983746432966615e-01
2.245661098266491518e-01
2.007796680114837806e-01
2.479988880261308759e-01
3.352204986426748912e-01
3.008753082647644961e-01
3.192428539889685668e-01
3.802148276975667041e-01
4.403702647221070521e-01
4.917851768432622839e-01
5.600572441502399412e-01
5.874062817953714655e-01
6.752886961542799993e-01
7.752603434746067057e-01
8.505381374743078426e-01
9.122856282607608724e-01
9.934528042803947301e-01
1.063472688080471018e+00
1.142357843035787024e+00
1.155876884322432518e+00
1.201482283794090611e+00
1.190174824121311925e+00
1.226059751648955976e+00
1.208073819948590533e+00
1.196559146420075992e+00
1.152642769266339684e+00
1.097904511869981503e+00
1.016511388100696411e+00
9.583982639814850879e-01
9.092062495842604397e-01
7.809817002111734130e-01
7.041636278185438025e-01
6.522045918004607534e-01
5.860131109308381880e-01
4.801198737181606169e-01
4.394788506150649754e-01
3.821101916979381952e-01
2.684128044911783251e-01
2.850592248509538629e-01
2.503871031309985451e-01
2.200907450227836404e-01
2.430083546189509003e-01
1.449400342639949046e-01
1.421776729185548205e-01
7.803304644616368413e-02
1.348184665136112625e-01
1.330173268425959843e-01
1.275091587547472483e-01
1.757944747201929669e-01
1.695912243037561162e-01
1.484523908315716345e-01
1.382183695542718027e-01
1.840102335128784572e-01
1.570222408967001382e-01
1.378306004966914078e-01
1.159275258685177196e-01
1.594060329499183415e-01
2.006481458748332058e-01
2.517526387974530766e-01
1.907973090059724985e-01
1.714928922806813194e-01
1.643929026053663200e-01
2.219473367499106564e-01
1.578324120517061724e-01
2.325770217621570823e-01
2.457864651080035601e-01
2.394043542591275664e-01
2.246395987010650908e-01
2.529244217506345649e-01
2.456654701261958840e-01
2.215506569070444798e-01
3.045418605702305270e-01
2.423750672950522045e-01
2.798383284454978304e-01
1.873763486605569684e-01
3.013119219339161492e-01
3.098640568837229825e-01
2.691672970829634415e-01
2.871830174052002471e-01
2.889893768381573969e-01
2.544222143047374374e-01
2.912417146068329021e-01
2.513362164836609458e-01
2.577400254965248605e-01
3.098564539745770618e-01
3.049700164940399860e-01
2.538582997597274571e-01
2.520007341317224148e-01
2.532413537531131853e-01
2.928375548930164940e-01
2.387624469321547316e-01
2.770295653645156175e-01
2.859718183735693864e-01
2.578400935258608473e-01
2.874052574938525950e-01
2.442979732118950031e-01
2.430578522950611053e-01
2.159399285115363720e-01
2.713100980083493763e-01
2.131071704226802921e-01
2.416920175601128817e-01
2.239615997732771480e-01
1.892444372534186625e-01
1.971251064705365763e-01
2.513170509942651010e-01
2.101947694720684434e-01
1.680852002662407696e-01
2.016536249260117153e-01
1.821824655632624246e-01
2.842157359184633303e-01
1.831507301689066225e-01
1.571724981395161425e-01
2.051946083768533269e-01
1.013895775540412381e-01
1.535168487452241715e-01
2.046408977140928842e-01
1.355107610961981679e-01
8.126709539908738567e-02
1.157505364468257303e-01
1.657290516255267021e-01
1.279544809982472164e-01
8.620802844519885599e-02
8.564819493857225852e-02
8.438372958807856261e-02
1.071235071322257509e-01
1.316950033455372149e-01
1.185362974626111982e-01
9.621473230690168188e-02
3.831453188360565976e-02
3.431581127629189376e-02
8.620254028941633229e-02
2.605346167799587470e-02
5.602407231478792604e-02
6.844876759398138555e-02
2.188750555823660432e-02
2.213410112942992489e-02
4.703774212004999122e-02
6.211978381269524230e-02
7.615058710814376353e-02
5.995323038565011919e-02
4.152549517669392593e-02
1.463715498416228063e-02
2.731277951532546169e-03
1.749105361217774546e-02
4.319267747616462039e-02
3.918382375260559547e-02
-3.561333957988904730e-02
2.214952203692924573e-03
6.041981428596669701e-02
2.525303428430403230e-02
-2.095406242114078443e-02
9.099313633243458210e-02
1.829037551068216083e-02
2.960188804380444599e-02
2.903939624379113169e-02
5.071699578356577733e-03
-6.621861101652483025e-03
7.801718665815812748e-02
4.367661270181599081e-02
3.750026337474767629e-02
2.943723898327404304e-02
-1.860314526379745065e-02
4.920838604728382248e-02
-1.499000818593449261e-02
1.825675638536445461e-02
-3.993916471077155195e-02
-5.247093517759154890e-02
1.784171252382402498e-02
-1.641786238635901604e-02
-5.223541604686643414e-02
2.326333431473835353e-02
7.027266893570399686e-02
4.800106141938630805e-02
-1.743164474508830837e-03
5.921517238993442497e-03
3.198462710467086384e-02
3.873217083518234322e-02
-5.504823363165448936e-03
5.578265445059781349e-03
1.334291692911810517e-02
2.073360696896765776e-02
-5.897996905575905030e-05
1.721670515023028362e-04
4.503922959728185599e-02
3.983072114812544195e-02
1.780324160287777985e-02
5.502920633762924119e-02
-8.118496826122674828e-03
5.223226330480756213e-02
1.994183649839308473e-02
1.019820726328383304e-01
-3.166959205007041644e-02
-1.624561833808973663e-02
1.741303793154270335e-02
1.727369959883872166e-02
6.447083676920548068e-02
-1.336254309120906043e-02
3.468029892291053795e-02
4.338292628138308571e-02
3.076738819258467011e-02
-1.792999948117476872e-02
5.456788197227207399e-02
5.082336074926455116e-02
3.372241919791524323e-02
2.384820277049365736e-02
2.668348643334005066e-02
1.992710624693093402e-02
4.411368289622766281e-02
2.864114420781956744e-02
5.286567835567208135e-03
2.538261306302511990e-03
1.490510390994267617e-02
4.781242866783354251e-02
4.422716174919241738e-02
5.557891610565971613e-02
6.840859017557635036e-02
3.899750748833013397e-02
1.063687877140702676e-01
5.907703814138985654e-02
5.891821898264575780e-02
9.128156650524373028e-02
2.665033187665096642e-02
6.298004566386583569e-02
1.210594988910412423e-01
4.438097286492581617e-02
1.348151966384826261e-01
1.512764637593352890e-01
9.934474537013661399e-02
1.234621099954858470e-01
1.523151601414247935e-01
1.084925249595065644e-01
1.519669531296490017e-01
1.088877721901401474e-01
1.174037936476483024e-01
1.100558468470749646e-01
1.461912035659840847e-01
1.720803506912531311e-01
1.327881408427312449e-01
1.006781921279648329e-01
1.063725752769969779e-01
1.502720684330157985e-01
1.928979320281301868e-01
1.481160319234939293e-01
1.230602560612329560e-01
1.557094150994954573e-01
1.233717107375729011e-01
1.169252720384156563e-01
9.726191952909993277e-02
1.662145667698693707e-01
4.615827125000035447e-02
1.453489696296008937e-01
1.076215890524417629e-01
1.107880615700554128e-01
1.773447241020924547e-01
1.110763892152381027e-01
1.210668440142266544e-01
1.502118065563682880e-01
1.835488229142792638e-01
1.799085687899580621e-01
1.736255804021510363e-01
2.287323321220345040e-01
3.335900548482846339e-01
3.446312556854447817e-01
4.099078395989546597e-01
4.489304086770951607e-01
5.031226556945004313e-01
6.440752517343264483e-01
6.622607217765842380e-01
7.303592697743547246e-01
8.518882829820710878e-01
8.700531241351855405e-01
9.416560021260647062e-01
1.020318002242241562e+00
1.071088109223095053e+00
1.118570662101714852e+00
1.200318376144645649e+00
1.160447017582045826e+00
1.077275522205966007e+00
1.142165025713639093e+00
1.103379395989446898e+00
1.060660604553212760e+00
1.012695990953729419e+00
9.412240147403687640e-01
8.702823072820895511e-01
8.153582115609562253e-01
7.034536441402577944e-01
6.138694488371696512e-01
6.574070310651717319e-01
4.731062969225277581e-01
4.303190250009636397e-01
3.210152067497539230e-01
3.144279818099883772e-01
2.347778960435271678e-01
2.081580604869336382e-01
2.180453404507293746e-01
1.723213962441328684e-01
1.523615999158017820e-01
6.439768691620569030e-02
1.593036722487931878e-01
5.890668431935112970e-02
1.341847743423376649e-01
1.152822946389831099e-01
1.004128250357276264e-01
5.762059185379697634e-02
8.935305733952571272e-02
7.327060239632171568e-02
9.167585246528019149e-02
8.733317800964592037e-02
3.815981109086501177e-02
1.378039922909376491e-01
1.067993749337866616e-01
9.994746075907098848e-02
1.030599999188490656e-01
1.360757294827846242e-01
1.039978686524566931e-01
6.864902800765303181e-02
1.539897517044258313e-01
1.627737976939462039e-01
1.465671775560695445e-01
1.233835373085628850e-01
1.656415500637289651e-01
1.240586228741816094e-01
1.420473799343963117e-01
1.550424297435096799e-01
2.073911959557895868e-01
1.754966598376695996e-01
1.770155717460661360e-01
2.529265001519395706e-01
2.084350871792665094e-01
2.113324727383369128e-01
1.930845559134852785e-01
1.889955261409744514e-01
1.436915332892134134e-01
2.404179788151261654e-01
2.265424250149619401e-01
2.091125913006463277e-01
2.114154471287354731e-01
2.383061572993112887e-01
1.699112061054479927e-01
1.988255948814625640e-01
1.820406460319955455e-01
2.685217786896106351e-01
2.405344775412463221e-01
1.467179120056005259e-01
1.655708398631611511e-01
2.048564674629617943e-01
1.921633995778977977e-01
1.637913684129882197e-01
2.587395357726815504e-01
2.063466753438433499e-01
2.075022609963990405e-01
1.685126544623597733e-01
2.067001970605102379e-01
1.691377382884684810e-01
1.673461256296688848e-01
1.892668226180166113e-01
1.169700202043429116e-01
2.084853932177007929e-01
1.606311314193636930e-01
1.880419853680785069e-01
1.116936422982452159e-01
1.105112297784570929e-01
9.752532782358891428e-02
1.340121747591884738e-01
1.225665993113036756e-01
1.007192719066504205e-01
7.829192623373068538e-02
6.479289340735741587e-02
9.544330787412667882e-02
7.708263120024393122e-02
6.469409065056688779e-02
1.259601372440063427e-01
7.144845280387643327e-02
1.064875025315207280e-01
4.696451185639308884e-02
6.499878366633859983e-02
5.081089650300164851e-02
-3.499812102793903312e-03
8.537345124270115382e-02
3.370971489112388475e-02
5.554934277580646229e-02
6.143824595825193857e-03
1.946574571083480726e-02
-5.727365063788347754e-03
5.338745458999355487e-02
2.184190156701100449e-02
1.986611260625677222e-02
4.611694317453196579e-02
3.673922962568842987e-02
2.184555405880959922e-02
-4.677401273566964696e-02
-2.784674426449291335e-02
-3.979727900577172128e-02
9.587270277667162000e-03
-9.535213608892860460e-03
-5.864846776520785121e-02
-2.474063710258351395e-02
-6.591858299879750638e-02
-2.458343907022503272e-02
-7.442513358076810470e-02
-1.056115648679518265e-02
-1.664109871560407600e-02
2.780733690942287922e-02
-5.348351324519731720e-03
-4.473279894128669165e-02
-8.676501904265734866e-03
-7.623909371440329430e-02
-6.419607880802072342e-02
-2.626717852893888094e-02
-1.018798613992924484e-01
-3.905384901145816240e-02
-6.929351912978198857e-02
-3.633697025297581706e-02
-7.234664106706599485e-02
-2.787693061047984144e-02
-4.056928593512849901e-02
3.589710280427760303e-04
-4.191408480854875995e-02
-6.560358442933730827e-02
-5.034576314616855119e-02
-8.363030917539535092e-02
-3.145449704709515903e-02
-2.625188506159358004e-02
2.984453331736498793e-02
-6.314713807666244572e-02
-5.276471427996794195e-02
-6.222168117742010035e-02
-3.878367445860694818e-02
-3.387527377834762682e-02
-4.708725513354195674e-02
-1.303746434310523034e-02
-6.425887657907883299e-02
-1.626703385626343534e-02
-2.977976545601448630e-02
-4.635654323567875434e-02
-5.548163049601294305e-02
2.675363228816989014e-02
-7.054212930464587306e-02
-3.704910772430874966e-02
-6.841535680601373848e-02
7.775528377910359557e-03
-1.903089136988725394e-02
-6.578214199389967320e-02
-2.979766888832132560e-02
-3.713037982992940106e-02
-5.998095162489913701e-02
-2.128624467437468040e-02
-3.182118484862414554e-02
-3.641043090344733141e-02
-4.342304136390696956e-02
-2.841155927283314439e-02
-3.352326522630300065e-02
-3.756769995840888304e-02
-5.737020623471700970e-02
1.402079762835063692e-02
-6.680010982357356686e-02
-2.078640886062370699e-02
-4.137350455768291219e-02
2.305588033437557666e-02
-5.460412744895572212e-02
-4.712384597485551330e-02
-5.151745199764653366e-02
-9.861452237192203096e-03
-5.768142989849431301e-02
-2.755060733615310314e-02
-7.425129219073015041e-02
1.263377046113477176e-03
-1.701315753975785050e-02
-4.250211544257493507e-02
3.904739531485407200e-02
-2.823153048473715787e-02
3.958966116664123375e-02
-5.227700825454484335e-04
7.350472474198205264e-02
5.299020364289602769e-02
5.377573036500563064e-03
1.326079636730912586e-02
6.409968726011559814e-02
4.319511945895317812e-02
5.105445243089599960e-02
9.926852392494397992e-02
4.346753941998280496e-02
7.331562790883039415e-02
1.036477634564263450e-01
1.034605475959162746e-01
7.828645978187764864e-02
7.797077523254916653e-02
3.767985148601460388e-02
6.097748729249160421e-02
1.046247214786980018e-01
9.291371392192671053e-02
1.008246400018669997e-01
1.308202290734332141e-01
6.462286210399006969e-02
9.329348100418177747e-02
1.057237334153041663e-01
7.818922062926739192e-02
1.411112026599957159e-01
1.239267107541217883e-01
1.035911191971288781e-01
1.467369382732973404e-01
4.588765064052005571e-02
8.863946390204147097e-02
9.814137870722601520e-02
5.849663954958585904e-02
9.453229248390643269e-02
5.304121570449484013e-02
1.092540877636777458e-01
1.246301361964434196e-01
1.080352548035941884e-01
5.447439966452244375e-02
9.512305861856976130e-02
1.596836010271030504e-01
1.671992408681140518e-01
1.153752692131290170e-01
2.694280877330326174e-01
2.788571010781775161e-01
2.996070165221634829e-01
4.101358239930665839e-01
4.223241808781280637e-01
4.898415410248105339e-01
5.934386909952241718e-01
7.111738511349631198e-01
7.825574822856805612e-01
8.197273450186260968e-01
8.946173392868124186e-01
9.706915036191199331e-01
9.675384754149157773e-01
1.072853196940654064e+00
1.067938159991462133e+00
1.122672958025773715e+00
1.115248731705489993e+00
1.131481183836641424e+00
1.099977537610053124e+00
9.706138044107696095e-01
1.022201022513224977e+00
9.795004326478927714e-01
9.084288432640450495e-01
8.204515505330478575e-01
7.972657668621749849e-01
6.800970765789450256e-01
6.070631905076622203e-01
5.507658107542841019e-01
4.597213008830302039e-01
3.564790076252777329e-01
2.509008695422514368e-01
2.569689225677818101e-01
2.481693152427068838e-01
1.755852589941458985e-01
1.775583783118819536e-01
1.313982951326513604e-01
1.445072002625378549e-01
8.083488811573258381e-02
9.180300066196539488e-02
8.466230605979471746e-02
1.092806961639538332e-01
1.027722431798212127e-02
4.698871721337784940e-02
8.707248828838250188e-02
1.101370308043128632e-01
7.408886229599025153e-02
6.198614652429727118e-02
9.793253171857110861e-02
1.061590493107545108e-01
7.450210452456815236e-02
1.006228365049028073e-01
1.317106835161083456e-01
1.586958410176378398e-01
1.300103721874691642e-01
1.148340946845723409e-01
1.176628712213346473e-01
1.417533141448540646e-01
1.272546666748254895e-01
1.420323193012654750e-01
1.101286338471091641e-01
1.861814972733855933e-01
1.183321540868886301e-01
1.446857717059157611e-01
1.655127533847421117e-01
2.270561440263803576e-01
1.591752526280411084e-01
1.561745711142107917e-01
1.636831146976385765e-01
2.337643585949104597e-01
1.031389679051249175e-01
1.606471475266308402e-01
2.755827882404361939e-01
2.139684886301640998e-01
1.653328301346581874e-01
1.991883716069242916e-01
2.040583890817359025e-01
2.286562441957395997e-01
2.593392631780949698e-01
2.163330772720066519e-01
1.886439972059803238e-01
2.282498583971638295e-01
1.831293231423649082e-01
1.721591661456043088e-01
1.490916740965160803e-01
1.533179681049708920e-01
1.714220146339234252e-01
1.606947523023221081e-01
2.028183553121427618e-01
1.545232507394825594e-01
9.298328947381935550e-02
1.524816333605507612e-01
1.658814659246586887e-01
1.578603422199463813e-01
2.173609937785259405e-01
1.489025106863310077e-01
1.890699726158014127e-01
1.572245311529741063e-01
1.515135355291606922e-01
1.225657740991129147e-01
1.405830821586384338e-01
1.140069807509403593e-01
1.365867761321922225e-01
1.188563740444416872e-01
9.201292907555376488e-02
1.444846458306699999e-01
1.218947937103621315e-01
9.001217755310045310e-02
1.022024044282334732e-01
8.974120723062764537e-02
6.069601027524165054e-02
8.337010893533215727e-02
5.723315232069549341e-02
4.221283510533404421e-02
1.667556435385163932e-02
4.950885610360181155e-02
7.230484686056587451e-02
2.961317902342306546e-02
1.213674859207989898e-01
6.775257916502118449e-02
7.589575272193221922e-02
5.635963984928738651e-02
8.398116487187670676e-02
8.372196198295142611e-04
-5.616158607187887036e-02
3.652414712376580996e-03
3.032122209368157822e-02
1.482122368250129302e-02
1.540258112388424167e-02
4.378848644196309953e-02
1.280368502139551251e-02
2.264548364900922928e-02
-3.202036635715629215e-02
-3.905809035846350558e-02
4.000926539973825857e-02
-7.464232522265207975e-03
-3.112897897133903510e-02
-3.288312966744291743e-02
-3.539739388432132372e-02
-3.875307603745750673e-02
-5.742262966477833241e-02
-6.527313095446692082e-02
-2.733658368535419811e-02
-4.039894671643225188e-02
9.574961472936432960e-03
-1.578517837721749723e-02
-1.746962822823745071e-02
-4.849337486882353276e-02
-3.052492575518422901e-02
-1.668670421527556486e-02
-6.586378895471683287e-03
-3.138170334252265298e-02
3.374722003148714067e-03
-2.913868145180245617e-02
-5.921436963467141545e-03
-4.468362846288197188e-02
-8.460305151294456039e-02
-2.237130060656403879e-02
-8.821351802969647216e-03
-1.344478862044787282e-02
-1.813146628511835140e-02
-4.131663824110168304e-02
-5.509565793294707303e-02
-1.434990070622519515e-02
-1.809278466561361348e-02
-4.767514003937879663e-02
2.493801119908184427e-03
-5.719550608132026315e-02
-4.811653656054122596e-02
1.859938111508620956e-02
-4.300004807862967127e-03
-4.094340023705196618e-02
-2.140865534650837620e-02
-2.519397498637714061e-02
-1.119936117568013229e-01
-5.658537580258495014e-02
-3.065936397300443247e-02
-3.954989600919223136e-02
-2.112833707110028936e-02
5.683879408832782920e-03
-3.747170392517660403e-02
-5.914221766133413716e-02
-1.721137329818053785e-02
-3.625232511557900661e-02
-3.057895972427993395e-02
-3.403421538242265565e-02
4.265645612614654691e-02
-9.106382818529537571e-02
-3.465514418547415570e-02
-2.218814275838701736e-02
-4.448502025947097260e-02
7.079267730112654561e-03
5.735796205522558644e-03
-1.871254370396403105e-02
-2.387931574928385189e-02
-1.744783981455843430e-02
-1.540326865343523942e-02
-1.261178338627911601e-02
-1.372215592744136653e-02
1.858181944186416967e-03
1.944478529216587745e-02
-3.729146263723132071e-02
-2.892531805566224412e-02
-4.666765483855601221e-02
3.519113685463769181e-02
2.033938976214246658e-02
3.183632157908184573e-02
-2.214326329313435343e-02
7.856243874779542113e-02
1.122117089313033958e-02
3.919463444419639397e-02
6.461659431546280807e-02
1.436991594787234705e-02
3.272136838332642683e-02
5.973254854031052885e-02
1.454165478055945704e-01
7.412122069137960789e-02
1.187026433511322865e-01
1.121023936879265021e-01
9.235392550406687495e-02
5.694367208796397017e-02
1.236049287034911709e-01
5.191034695665090737e-02
1.497313514396680922e-01
1.123286911858103615e-01
3.118002511899695475e-02
1.045287144936723339e-01
1.380846494767632437e-01
1.147116984458621120e-01
1.462345123529306123e-01
1.018267885164778619e-01
9.025228621625513981e-02
1.289384585602571520e-01
1.332150887064629530e-01
1.225360628315517730e-01
1.700635102668365539e-01
1.075469157180314050e-01
1.418317976958051729e-01
1.334720413765880243e-01
8.339291351172331557e-02
8.892266774517165739e-02
1.270841886276731503e-01
1.843559886741987508e-01
1.406124054780751031e-01
7.010463332752175925e-02
2.777703369329793254e-02
1.431902328410744329e-01
1.196811743413628421e-01
1.598762728344579331e-01
1.044964145568563207e-01
1.494836330080786257e-01
1.758257036767498505e-01
1.525443871228169546e-01
1.734494992781229761e-01
2.126376930271042243e-01
2.597738357641837803e-01
2.811097431631603416e-01
3.555351256600065568e-01
3.640336890761032285e-01
3.962123118119453280e-01
5.596163483936023031e-01
5.516063308433666323e-01
6.260903779266157043e-01
7.169452941582538097e-01
7.971968554187108813e-01
8.581945135135027325e-01
9.399484686418662083e-01
1.003684683653339293e+00
1.066002523435863658e+00
1.035337630431508504e+00
1.195492618195385992e+00
1.154059572612216700e+00
1.180938336244122810e+00
1.112632823571619189e+00
1.116079330038598938e+00
1.072966843737198195e+00
1.088259812071271870e+00
9.675479843959832182e-01
9.408549356262977392e-01
8.259112715125185300e-01
7.558088759912157117e-01
6.848938337081525995e-01
6.546367715551407729e-01
4.860926614372674259e-01
4.342893442317026231e-01
3.517632109619291958e-01
3.202237961610432393e-01
2.778614105106113619e-01
2.099733972789811220e-01
1.993027822019472761e-01
1.302016358461232648e-01
1.353388574854236248e-01
1.824698332283794522e-01
1.438585383571321374e-01
1.267433455880086490e-01
8.385837156931179315e-02
6.355705552857060514e-02
7.351659911204112829e-02
1.063433032892699970e-01
1.351391583515841321e-01
1.387985486127329138e-01
1.341914459527075720e-01
9.738835510489290970e-02
1.250189948901073156e-01
1.198009319433470804e-01
1.288509336484677248e-01
2.016512714031227227e-01
9.347008132568870864e-02
1.451740189441654283e-01
1.945020268378260253e-01
1.201253727477623184e-01
1.507306988151582150e-01
1.600758113344493416e-01
1.750915388008137397e-01
1.396722198616479615e-01
2.110666383898711362e-01
2.187298542380036181e-01
2.193818727840388949e-01
1.832455543712465384e-01
2.169960243553321622e-01
1.922606995983194844e-01
2.138905135066683783e-01
2.928609189284440695e-01
2.352635581952625399e-01
2.006342753156439562e-01
2.452542055476432947e-01
2.025771967721647082e-01
2.101378235439133602e-01
2.175301113561834698e-01
2.377585619922038540e-01
2.811804409959064444e-01
2.720588612417336183e-01
2.716783420324648257e-01
2.239438528237066017e-01
2.412338715828465652e-01
2.658322841211779308e-01
2.386590446627036566e-01
2.486332728602919928e-01
2.693432235944715480e-01
2.444049386150453640e-01
2.600694099365263301e-01
2.991506705852286507e-01
2.439651842293143191e-01
2.819347306106681494e-01
2.604627035834288229e-01
1.964977214769103864e-01
2.040047284690729434e-01
2.083503925918885058e-01
2.037542030455937736e-01
2.224998508088655014e-01
2.392428962448014673e-01
2.538570804246469970e-01
2.206684772716067944e-01
1.931146239629314143e-01
1.389394028868382314e-01
1.983248491576692640e-01
1.916787130898986447e-01
1.910087450901910566e-01
2.432588729626775914e-01
2.117941958562558902e-01
1.926045411208513747e-01
1.346560068044005132e-01
1.426001014332063388e-01
1.496384029241258629e-01
1.237529252798728746e-01
1.566127101218958428e-01
1.469557093601968345e-01
9.832782778032099491e-02
1.617011258731896883e-01
1.237874970265572250e-01
6.387970697276701415e-02
1.093664223465169727e-01
1.146271258169650198e-01
1.307954576267723878e-01
8.705089196726865930e-02
1.177248394299717227e-01
9.436481366686559624e-02
4.531858446060582635e-02
3.849328272056915662e-02
1.109633026053142013e-01
1.096653871494128324e-01
8.013386374317241212e-02
1.121394216217656836e-01
9.594794614827421853e-02
8.189803031413490919e-02
3.134516823500041460e-02
1.080757868435679170e-01
6.982023690354449696e-02
3.990055083520992890e-02
2.931442710281580155e-02
5.509088775427430085e-02
-4.586031713328810044e-03
6.482310030933993716e-02
1.363684113347550866e-02
5.189215529144246275e-02
2.376902316511855101e-02
3.023740689845489521e-02
1.431844003343213899e-02
3.114288426395648429e-02
9.170831660360570514e-02
7.571394735369420259e-02
4.401484111434346425e-02
3.191817166088965069e-02
5.737302857358420050e-02
6.538495750350525881e-02
6.094554260338915647e-03
2.822931997525570530e-02
-2.448687251297139086e-02
6.353640461543626217e-02
9.151387388299041248e-02
3.173022083939183030e-02
-3.461652366347808818e-02
4.724482729453349100e-02
1.735117120400152951e-03
8.869597791443018658e-03
4.750973735546887289e-02
3.631918574193680749e-02
1.403505395789594011e-02
9.209643701904517143e-03
3.251444902768098333e-02
1.651755614077674711e-02
-4.394065480257294820e-03
1.900605501413831638e-02
3.928825781968373759e-02
2.389203704494371680e-02
-1.301854633710473191e-02
5.922718863111658960e-02
-5.242322684193210375e-02
1.655403592015385755e-02
1.156194060972333751e-02
3.485657917701343728e-02
4.752657492136952433e-02
6.476955096108882870e-02
9.911354824207994213e-03
4.922797180513120707e-02
3.788575262561501289e-02
-1.891647085052935995e-02
8.990689088941936080e-02
-9.763919962805775454e-03
4.654637067497996439e-02
4.628221236686225204e-02
4.354128298509221673e-02
2.119798252304592318e-02
6.169842362700553307e-02
-8.993545348112759463e-03
3.687945374369008128e-02
2.308467660102448207e-02
2.094825670507951057e-02
5.552577375021654910e-02
7.652406098780019372e-02
3.558900690364946717e-02
7.115498459299915424e-02
5.124556238754487958e-02
2.517066338244476620e-02
4.660279299426268312e-02
4.794304355501133319e-02
3.881866492803749680e-02
7.557412327117114803e-02
7.297476367232585970e-02
2.164869321621422371e-02
2.347279890747996228e-02
8.962543686791393793e-02
5.650452352075240742e-02
9.430785056674317879e-02
1.131540346725931900e-01
5.626079949268438657e-02
5.687533113932874418e-02
1.544372194133808718e-01
1.198640138785574127e-01
1.019582534153357506e-01
9.181519002440530208e-02
1.098682359930566454e-01
9.483087129356898570e-02
1.624017948897746866e-01
1.178975987101694434e-01
1.792192958776808454e-01
1.394820644950270361e-01
1.251242607114785299e-01
1.483573023333939755e-01
8.690276723870954401e-02
1.662090940355444857e-01
1.686206262397490219e-01
2.020130580371378437e-01
1.238522828141922216e-01
2.180649891723953349e-01
2.101681435055203773e-01
2.250073879313861658e-01
1.873013894784876510e-01
2.202700953610709500e-01
1.462182197878625634e-01
2.117884297576894115e-01
1.668590036726108894e-01
1.396317122561165913e-01
1.542536917934641538e-01
1.866302863831716674e-01
1.599828374606140913e-01
1.941066287951957459e-01
1.266902439339439301e-01
1.154104300967941921e-01
2.190712491446819843e-01
2.043492042145306775e-01
1.460787753372517761e-01
1.791687940219139630e-01
2.133827355098956158e-01
2.012757832058970908e-01
2.019994353664038567e-01
2.428477909037441984e-01
2.047663307327976245e-01
2.492403306841615707e-01
2.749434513342248199e-01
3.005811438823208226e-01
3.368900053048460297e-01
3.973638820403570526e-01
4.495753558829722607e-01
4.769350289790724728e-01
5.981433821776385162e-01
6.153791661277158154e-01
7.122481617972630241e-01
7.859290796283240343e-01
8.814227222737466283e-01
8.807098824167460815e-01
1.040011739859644679e+00
1.055050309656668128e+00
1.164898696851082827e+00
1.155789250751786845e+00
1.197786677887807683e+00
1.271913697074945615e+00
1.206936692633363784e+00
1.238637097954429223e+00
1.174839550650239595e+00
1.145373460296032153e+00
1.082835338777112799e+00
1.044494510709115920e+00
9.294871718087994727e-01
8.465086511019815907e-01
7.801542926729473360e-01
7.251051141472405481e-01
6.398242387876550419e-01
5.953564661955303983e-01
5.454549314611568667e-01
4.150141289616159912e-01
3.666506815440273570e-01
2.967248360477621194e-01
3.586937430396849869e-01
2.715393796116164493e-01
2.476829583785565281e-01
1.697347543700573613e-01
1.917249215450337885e-01
1.933879991958706857e-01
1.607723861208305294e-01
1.941541645369747604e-01
2.274855978101933407e-01
1.281823988945567094e-01
1.261729722847731439e-01
1.321498176118618972e-01
2.094118459873909321e-01
1.960843803049304168e-01
1.649781954833192676e-01
1.748538282443902747e-01
1.543313728262642737e-01
2.108594325490878996e-01
1.782770385777660282e-01
1.875124618768201079e-01
2.192971242588907521e-01
2.011519002293483127e-01
2.055086062456020490e-01
2.186203926785995344e-01
2.478641757823504266e-01
2.790305647904381958e-01
2.527428380414991071e-01
2.647095695765206980e-01
2.399156243634724406e-01
2.298278980676676242e-01
2.756621953709544326e-01
2.659719388052931288e-01
2.227409288944649790e-01
2.599379477011812822e-01
2.714114096302668311e-01
2.624445201800486016e-01
3.257963815839646227e-01
2.990370869547987476e-01
3.288327823186075749e-01
2.982215417062087925e-01
2.951161377863865676e-01
2.665969005638675893e-01
2.967291844821571267e-01
2.980884619616979703e-01
2.576524912506584220e-01
2.830886248881911982e-01
2.898215029004554966e-01
3.118059739665982599e-01
3.127604347541227958e-01
2.806376926514113634e-01
3.109434146200581450e-01
2.898631228845938157e-01
2.073399510522059841e-01
2.766537027432838802e-01
3.210034227970475218e-01
2.353023304910638880e-01
2.859559075820035656e-01
3.266609463127916335e-01
2.525363303117335034e-01
2.714098326121021088e-01
2.279707643412106077e-01
3.114262951995870332e-01
2.554173108694319239e-01
2.544319684826874539e-01
2.886045270865378876e-01
2.626075137982482599e-01
2.111462461095016674e-01
2.125320746649959347e-01
2.412360266877622839e-01
2.020233591782519822e-01
1.515284217687009327e-01
2.077052972204517789e-01
1.591288055606098484e-01
2.462494267316411301e-01
1.973001638486718279e-01
1.591025781500561287e-01
1.596011010722969969e-01
1.182357471416635997e-01
1.363603330663315516e-01
1.943419771497623960e-01
2.254072711200735268e-01
1.749510907704830975e-01
1.452173541734493034e-01
1.299620599498896578e-01
1.092988281644153570e-01
1.949970965485130769e-01
1.228955792218861531e-01
1.875293688970641193e-01
1.615211004762768798e-01
6.330247959631994659e-02
9.151683066178523118e-02
8.755279337180216226e-02
1.015179837020392245e-01
9.855369637305359809e-02
1.868599235831418515e-01
6.142413912312070373e-02
9.753503068047590652e-02
1.062404539436911377e-01
8.492879654019411251e-02
8.566023441256019610e-02
4.853383064476943232e-02
8.073634231999682331e-02
9.068343428123279426e-02
8.310066677997084150e-02
8.843656819006107117e-02
1.118884510813128036e-01
9.591562281583010385e-02
6.835349700518000837e-02
2.957639643900313725e-02
4.534475957119035033e-02
5.546788169647835082e-02
6.843010884136234429e-02
4.539865050231108035e-02
3.064657429248985113e-02
2.211875232550424702e-02
7.347026947371923522e-03
4.901843223916860920e-02
1.122413106894120521e-02
2.460378084168754476e-02
4.216221421721729617e-02
1.331186265121661605e-02
6.423877253156114187e-02
7.455295312751966663e-02
3.540344904338867116e-02
3.835229909288183359e-02
6.719685035049784150e-02
2.929624918478306028e-02
2.690506879425814957e-02
8.597960653657099606e-02
7.633238720654189624e-02
6.759806459192113648e-02
7.708680802655151765e-02
-1.021527937500239791e-02
8.952231303940702545e-02
6.049090700765582390e-02
7.889124380002240922e-02
6.003796498408883048e-02
4.976257780211764542e-02
3.992384028707996607e-02
5.910274986884840598e-02
3.865908354805595859e-02
7.398983603696947242e-02
3.223165551750756253e-04
3.165353022175917269e-02
1.092549398330767418e-01
2.916467849103495172e-02
4.085408755567387917e-02
2.163907954220406146e-02
5.833245798212829264e-02
2.635321152008151396e-02
4.310577481855706883e-02
7.442788081629952979e-02
2.834815019855720097e-02
7.338707456023461917e-02
7.488953806515692702e-02
8.244975221402639498e-02
5.568898869791902295e-02
1.494847603060993069e-01
8.476944280049153457e-02
6.388843113712251720e-02
2.900552120826124097e-02
5.365549606729391741e-02
1.007943445036373065e-01
1.108913239532130640e-01
1.057293154031037907e-01
8.689220044309009516e-02
2.781517764040507268e-02
8.244778294375032512e-02
3.314489824923409766e-02
2.852832561191363109e-02
8.330793798693236774e-02
9.502706574311858834e-02
1.098474224406741639e-01
1.012900376551261472e-01
1.061634405598232966e-01
6.471891249024595838e-02
9.534443627679776989e-02
5.769513828288865692e-02
4.738624323841609393e-02
1.344302013572928056e-01
9.446394382200788697e-02
1.481779048326914705e-01
1.602698039311995226e-01
1.134975210727841716e-01
1.548530481133888748e-01
1.223504508710137745e-01
9.178906296919897567e-02
1.557466176134235936e-01
1.426665952140860893e-01
1.481607484075863068e-01
2.249811349295400276e-01
1.240517038880248890e-01
1.851327939430254532e-01
1.472996331119781621e-01
2.075343985719141637e-01
1.919981526994548604e-01
1.967740325197653295e-01
1.589632251573723509e-01
1.658087589564518627e-01
2.175985474872798586e-01
2.434417692462606808e-01
2.047971636488762071e-01
1.630781169732503644e-01
1.993437274535530546e-01
2.607677876601485756e-01
1.894232770419577716e-01
2.283151888142252450e-01
1.601472743109591534e-01
1.788919385599732903e-01
1.965841804947215665e-01
1.879897454692757430e-01
1.516121065459085371e-01
1.495983274835923360e-01
2.039040209682361215e-01
2.118758554968559193e-01
2.253479346496394808e-01
2.404804098894297304e-01
1.999073361492074707e-01
1.998139939975185353e-01
2.674063314368704258e-01
2.711036013668350342e-01
2.487973107710503839e-01
2.820687061388747474e-01
3.692667361258490932e-01
3.974215256909574556e-01
4.568981005418426000e-01
5.511559982630004351e-01
6.086562630275816899e-01
6.972227583510292037e-01
6.739223593716335836e-01
8.153483748473132620e-01
9.037620499378720140e-01
9.093611539621949680e-01
1.002483114766340666e+00
1.056316131894203370e+00
1.131857466351774866e+00
1.218113943240412889e+00
1.254933574502733240e+00
1.180702402419780528e+00
1.217238472247739622e+00
1.200065930819006033e+00
1.163022866740230921e+00
1.118894222621649837e+00
1.060661196793820871e+00
1.037893785760195087e+00
9.493787600976992813e-01
8.091851273884883566e-01
7.874961572070895421e-01
7.131477090586325618e-01
6.206337479944749047e-01
5.736335851228403504e-01
4.788385878570522447e-01
4.186598419537406190e-01
3.622709611083081982e-01
2.508841346292897123e-01
2.686164571229598952e-01
2.171354948327963164e-01
1.738840605227204295e-01
2.303928356338806882e-01
1.853823792268693704e-01
1.565947408788823381e-01
1.314963028327079675e-01
1.513944289450931679e-01
1.688920424177261514e-01
1.130647377231547290e-01
1.381194249015986475e-01
1.660089115360701140e-01
8.460937128493249693e-02
1.444676347572320108e-01
1.374149236828403897e-01
1.508221736966741389e-01
1.446595788957394380e-01
1.689458825071502301e-01
2.278014108198684329e-01
1.657616154094552208e-01
1.896841965295349708e-01
2.462593635916648926e-01
1.754004163779311898e-01
2.517980157889752602e-01
2.029230324325439205e-01
2.615520136716636967e-01
2.358377651252810403e-01
2.276657986260769428e-01
2.214686045511005119e-01
2.095458233687065297e-01
2.351957505485370858e-01
2.643044662667989875e-01
2.412403761748155573e-01
2.361559988667006893e-01
2.419061113276134989e-01
2.827165857587731201e-01
2.929323640158266739e-01
2.391064891444678875e-01
2.417018983841916491e-01
2.754618366980134958e-01
3.119007808149585892e-01
3.021110267468792854e-01
2.314869244155055572e-01
2.620794346223087601e-01
2.426857513378652964e-01
2.628199531058516003e-01
3.188563906729232067e-01
2.275616635412142374e-01
2.208272631098577021e-01
2.433307688927463519e-01
2.752457519039526734e-01
2.833387430786197259e-01
2.755870740901054106e-01
2.951482235900030338e-01
2.040756764172376725e-01
2.893967833898094533e-01
2.408626627112936402e-01
2.683632370780813514e-01
2.026372712927142494e-01
2.381547243279492632e-01
2.405209472895731837e-01
2.633101325975557572e-01
1.760804858235456571e-01
2.193752283043861606e-01
1.805427571063878689e-01
2.227633882154861911e-01
2.252842549264860994e-01
2.348417435214552040e-01
1.743432409952428430e-01
2.123058188736490492e-01
2.193568965360140899e-01
1.232373199967770200e-01
1.848916697345823479e-01
1.892620656946683855e-01
1.467456212643534763e-01
1.122159313814057036e-01
1.709055750701992393e-01
1.007696163990791371e-01
1.256158442257894747e-01
1.240601077320796913e-01
1.411248256006775725e-01
9.536252592808722173e-02
8.824423802271053052e-02
1.064955546484569193e-01
1.285998159989638900e-01
1.620519204765905330e-01
4.337029574163775436e-02
9.337204858352740611e-02
4.678738406267213268e-02
1.055769781714063771e-01
4.264519653595811449e-02
4.651198810833134106e-02
4.518478244089030316e-02
5.684983107297193750e-02
6.526521146193947631e-02
6.667295758952496154e-02
4.873865256740483876e-02
5.919304201347732122e-03
6.470555912290155975e-02
3.848730884119542367e-02
7.227656067709051224e-02
1.368103327671547041e-02
-1.553053174276281326e-02
2.927264990032958647e-02
6.705412393704611451e-02
3.100735675549379233e-02
1.830892179436754974e-02
-3.580228326783304812e-03
7.360042177005311770e-02
-1.158249157781620665e-02
-3.922309116535410353e-03
3.356516520729639630e-02
-4.050618025440274467e-02
5.220323282731094416e-02
3.155835867558750424e-02
3.874787267346909564e-02
2.751964051608880857e-02
5.010080856124546345e-03
-2.292472893209955911e-02
3.947707526194319839e-03
-2.187639884717137648e-02
2.124293168783642632e-02
3.018268826613737174e-02
4.964478881448831926e-02
1.589198984724471062e-02
3.190902928633849306e-02
-5.277999172446349099e-03
-1.121803317143450426e-02
1.686154682708256719e-02
-9.396495661835924107e-03
9.842992064483507136e-03
-3.047673553210435496e-02
-2.547762268234497404e-02
1.966514479936628396e-02
2.685386156639249858e-02
-2.964819051166532951e-02
1.972596999444206980e-02
-1.667082629717016318e-02
-4.720010475275666223e-04
4.128122344332117027e-02
2.275688561436648924e-02
2.218837301431299258e-02
5.537805087380937713e-02
-2.317571328414648468e-02
-3.178260766317875241e-02
-2.398749994812600372e-02
-1.004339784192682938e-02
-7.309258433869754434e-02
-8.685349885273533493e-03
-1.875981750611545665e-02
2.118170021489022489e-02
8.391019828138623210e-03
-1.998828108488839850e-02
1.601757318176370501e-02
2.038259365826520023e-02
-2.391747411595946185e-02
-1.510045697328627964e-02
-6.641269114668948981e-02
-3.159731525377023481e-02
-2.025088287824606398e-02
5.285656575430890992e-03
-2.411619249338391863e-02
-9.816144402496290375e-03
-2.966269949427801159e-02
1.391792549162840405e-02
2.342996824441184039e-02
2.479874744017184288e-02
1.537064745468924229e-02
-2.875123234494168789e-02
1.577541049781082047e-03
1.086947964734132945e-02
1.412109781506140811e-02
3.181874027978706665e-02
7.589998222645950865e-02
6.127069023250723140e-02
1.125784283442580504e-02
6.540164417156171806e-02
6.860163689141643428e-02
2.971365222053739749e-02
8.400519021383223706e-02
5.848928113940967538e-02
2.585575226618830325e-02
8.672851637038662964e-02
8.453307219936107009e-02
7.614654652275534841e-02
8.677205793775247256e-02
7.117165029226066308e-02
1.157889889228957414e-01
1.007764945700702769e-01
1.114840459775563036e-01
1.213928499803352545e-01
7.996909903935334185e-02
9.141028237462014983e-02
5.524244405305341055e-02
1.414232805831968365e-01
9.066453486853097432e-02
1.331422959216493063e-01
1.419929218814467708e-01
1.501796225143810226e-01
9.677152365444971482e-02
1.312533358204912293e-01
1.831692543851184130e-01
1.838915062429257730e-01
1.610540073230506408e-01
1.401374056317585826e-01
9.809414436723860875e-02
1.477664025922001689e-01
1.192457506539518902e-01
1.385201253852945125e-01
1.005317938960414992e-01
1.124339859304677863e-01
1.211891375770895868e-01
1.231351892601651316e-01
1.312435320717701137e-01
1.013736519289464288e-01
8.289861389117121615e-02
1.790801333217405533e-01
2.154627093990846842e-01
1.686219377380305806e-01
1.345312955929300058e-01
1.753984166203683692e-01
2.440972379526598901e-01
3.056597549642174338e-01
2.723406443565096757e-01
3.551054063411333561e-01
4.214671401502111392e-01
5.044502569703287476e-01
5.364762377226344192e-01
5.723065672662567271e-01
7.129259951841617760e-01
8.038862951658493072e-01
8.421965191057942945e-01
9.277703943367261452e-01
9.663903097183987878e-01
1.012061865116614223e+00
1.114747405696465687e+00
1.130029172567518225e+00
1.154133474658312064e+00
1.191214308573919523e+00
1.106644537218795188e+00
1.099556277296980022e+00
1.085207939981358782e+00
1.015762109876217956e+00
9.980400714231989490e-01
9.024886142291029811e-01
8.058773175111441089e-01
7.614793205746868132e-01
6.870544341744987404e-01
6.331190702387002878e-01
5.425638691293579452e-01
4.743999896619852663e-01
4.052759268175295526e-01
3.312711711773478895e-01
2.633303067781160856e-01
2.482159331726880858e-01
1.910442024283917906e-01
2.196757756081086088e-01
1.831879288967633024e-01
1.412824262569629119e-01
1.178361729866133772e-01
9.219778383755476703e-02
4.890145673519347147e-02
7.510697236746385896e-02
8.191877711208719881e-02
8.500584761658172561e-02
9.301390921813094959e-02
1.085979490836261885e-01
6.317236810337767405e-02
6.714973520540158669e-02
1.354217286454748037e-01
1.196893689773190772e-01
8.980205263293800089e-02
1.034910945556645201e-01
1.089593958883836450e-01
1.184205896374429245e-01
1.371437709940766247e-01
2.045257925741028326e-01
1.396747928788485971e-01
1.593334807184932644e-01
9.427835056739469755e-02
1.356642972196024088e-01
1.923147918199508144e-01
1.726388132441399326e-01
3.387497250860070641e-02
1.905887376312817572e-01
2.325541330352588754e-01
1.195760838227188094e-01
2.292639580028457691e-01
1.045201539116036027e-01
2.195660491110036916e-01
1.946487372616663436e-01
1.276110370924309900e-01
2.144021612355744566e-01
2.381440623668014678e-01
2.168176196033425596e-01
2.253988513131478799e-01
1.971185463241965086e-01
1.548960699597618507e-01
2.324105359781781510e-01
2.647073078883701025e-01
2.463022577860874418e-01
1.526171753329010616e-01
1.662836979216949507e-01
1.854686016982442787e-01
1.618186252463109376e-01
2.093416618116529793e-01
2.178805128029614735e-01
1.608941563002580233e-01
2.245100188676489583e-01
2.163047854873880183e-01
1.785951566196174733e-01
1.863381542231049015e-01
1.292132416387972160e-01
1.736674185623647559e-01
1.795352478245278716e-01
1.798216120480205793e-01
1.813553935464404243e-01
1.723485746659492446e-01
1.519439561774587610e-01
1.631524837994437482e-01
1.791783279395084416e-01
1.406805743762246097e-01
1.473979783548186040e-01
1.265250225581160681e-01
1.068815441040974340e-01
1.360974050593760643e-01
9.785148909056154420e-02
1.201779804355355696e-01
1.035315190384341472e-01
8.767735076406568684e-02
8.109943606457632737e-02
6.989998448699710765e-02
3.003496873636598424e-02
8.523979906795707551e-02
7.513398987159342068e-02
8.821423230531624804e-02
4.142910284210926664e-02
1.090044231675696140e-01
3.565065807220858113e-02
1.582631255447417007e-02
7.449325108539642248e-03
-1.942870804535049706e-02
7.405020164474293565e-02
6.484268692162202530e-02
3.753194266386777195e-02
-1.141264021083154834e-02
6.593110409837012187e-02
-2.672487381363809755e-03
-3.743062234493541030e-03
4.405571286175948009e-02
1.747547206961258537e-02
6.066927561115898621e-02
-8.189914411330240229e-04
-2.295642844100875823e-02
-3.201604390368043007e-02
-7.154362365298883031e-02
-2.682310948535376535e-02
1.367693783295131915e-02
-4.760279230771331804e-03
-2.405418415788141903e-02
-5.632825019239902364e-02
-2.137458043511699865e-02
6.141773891633200977e-04
-1.833219918903179063e-02
-2.763451037230626323e-02
-5.783245936197062287e-02
-9.104884997661912005e-03
-1.301885248265795270e-01
-2.577636241322682487e-02
3.889350102493987354e-02
-8.435047627414307692e-02
-4.715663410119164123e-02
-4.090661975366277625e-02
-5.524210855685945248e-02
-1.091427463369387674e-02
-2.842215414917040328e-02
-3.856972903159870680e-02
-1.971986284986716395e-02
-4.359423231050687381e-02
5.087808498777648958e-02
-4.036368288963473189e-02
-3.939957052623498102e-02
-9.689606653234431044e-02
-6.218171222532362097e-02
-1.172715837550033363e-02
-8.645829602397589464e-02
-1.113447072858324005e-01
-4.585048655518381838e-02
-5.879153832050572348e-03
-4.589194948004727409e-02
-5.738990568257736069e-02
-1.031847292839337127e-01
-3.396751018847356945e-02
-2.778272118771258140e-02
-1.011389495322635723e-01
-1.369618446250801813e-02
-2.478432185749757793e-02
-1.378486348781061271e-02
-3.022173496112240745e-02
-2.806157445624156421e-02
-3.196338508408391732e-02
-2.140866295145321327e-02
-1.018642107986638679e-01
-9.212815217715530913e-02
-6.892260720637238824e-02
-5.042837531637877485e-02
-3.452016699868538235e-02
-3.598655340327907431e-02
-1.170131930959820293e-02
-1.016386147834838494e-02
-7.010267291306176984e-02
-3.598534721640723327e-02
-6.767869616112731634e-02
-4.687201304098752991e-02
-3.042128535479723950e-02
-1.410460443410940790e-01
3.499415202478658310e-02
-1.874791007744472035e-02
-5.183670713139160169e-02
2.581126919044358231e-02
-4.028669493298743520e-02
-2.354359347161867275e-02
-3.958232819142799147e-02
2.735292204668435950e-02
-2.237817173636211243e-02
-1.154695198864785083e-02
2.349893304238868247e-02
8.575065748446207559e-03
-6.759348597934512759e-03
3.224162310558367772e-02
7.934288021822433201e-02
1.715715841639880307e-02
1.575746125901168748e-02
2.214906764841653025e-02
6.125400212796261457e-02
8.987897768384670028e-03
2.372265829372817436e-02
-8.885948823523226459e-03
6.911993144854924886e-03
3.207683596187409225e-02
5.107240251990090296e-02
1.108828493553652567e-01
7.883238020469507390e-02
4.017655787784082250e-02
5.029145094268731853e-02
1.177328977146211847e-01
1.143788786179022743e-01
8.521019990332012739e-02
7.453655161424413422e-02
1.246376090286773208e-01
6.377003920896287537e-02
1.075900271965455068e-01
1.658276353686186644e-01
1.051722580724727685e-01
7.664325285618422967e-02
1.126566894574043687e-01
8.621926757834338928e-02
5.802458377086989333e-02
1.199880748285214738e-01
1.312204316456828113e-01
8.676141966322922783e-02
8.292496746889416182e-02
6.339873499882126007e-02
8.573174452196155593e-02
7.149006048823665360e-02
5.651882367560202153e-02
1.427218793246595729e-01
9.999548368679103683e-02
1.045352858498025395e-01
1.169959991835778368e-01
1.190397190125750404e-01
9.179274305311010962e-02
1.241332552591805083e-01
1.238134139400349498e-01
1.657933456566224872e-01
1.891144193132897611e-01
1.996466204375532405e-01
2.099952964085509410e-01
2.997636376970072569e-01
3.415421171257978505e-01
3.497976464614910852e-01
4.865504953048048753e-01
5.701418442727795854e-01
6.906583893724257406e-01
6.788355500096560080e-01
7.503827922691383989e-01
8.072816279555874441e-01
9.165894695852210283e-01
9.795815224447813607e-01
1.003535863755681712e+00
1.066157803758588596e+00
1.043073825423915801e+00
1.147524255202032606e+00
1.099479161419174122e+00
1.109857795815300419e+00
1.042266168238922486e+00
1.028625288122492654e+00
9.870690138949929082e-01
9.346757230709058506e-01
8.813051973835939190e-01
8.366242840682398541e-01
7.389399217434670097e-01
6.685363991566715125e-01
6.070213583577203087e-01
5.077270346145934532e-01
4.210148732778572489e-01
3.894516080160626004e-01
3.347560300667319355e-01
2.721421092539046960e-01
1.660029255243589685e-01
1.480433834983957420e-01
1.350273305265616841e-01
1.424942236515155947e-01
9.955865301953223390e-02
1.200272967285100217e-01
1.150900445922854176e-01
1.046931421356124409e-01
1.007712329409243268e-01
3.167091691708352752e-02
7.727614193065300563e-02
4.604643685925271374e-02
1.741630993003399908e-02
6.176091724533838700e-02
1.142957496008613627e-01
9.305080792739513218e-02
1.448143180660558249e-01
9.492398155986553343e-02
1.685651560964416262e-01
1.061161766145318625e-01
1.072111362333665052e-01
7.394844495242045013e-02
1.514547712875053131e-01
1.088678506784850619e-01
1.102746161039351580e-01
1.738149442210505935e-01
1.757324088414699559e-01
1.804497760839941511e-01
1.409995304691042950e-01
1.555677469124024381e-01
1.603685160134435683e-01
1.905232603260675617e-01
2.183362225416956293e-01
1.872353615763981405e-01
2.396622521254595239e-01
2.113022755724857094e-01
1.810440889927846242e-01
2.163670190610568478e-01
2.458037789432117870e-01
2.573838585856620953e-01
2.355299239737309591e-01
2.028497322104823863e-01
1.973946445997856181e-01
2.226458333724531669e-01
2.566978627498758825e-01
2.202488848279456346e-01
2.212685339126336803e-01
2.092097122043329316e-01
1.975051021194541290e-01
2.017927155444218801e-01
2.096788668794450083e-01
2.557679381420713272e-01
1.952984819475625244e-01
2.019973623599281010e-01
1.720603567205810369e-01
2.168076458213094304e-01
2.332924657399322033e-01
2.377199250759419735e-01
1.915025946661762513e-01
1.987879494290599736e-01
1.728615612406991520e-01
1.889913288390749901e-01
1.780418807090713151e-01
1.656505272276325713e-01
1.631408630036836893e-01
1.675163477984064619e-01
1.399482797556914626e-01
1.361949240603043676e-01
1.892894877453470126e-01
2.139045374831131663e-01
9.091598020124430635e-02
8.367935137760491859e-02
8.714090846472069551e-02
1.071416940284462549e-01
1.315082009900529758e-01
1.167924631075828168e-01
9.867687236547532936e-02
1.039005693865595326e-01
6.185566485656397717e-02
6.996228762538816981e-02
7.144470202192687580e-02
1.938738818707801126e-02
2.705564657622903935e-02
2.335276895967754868e-02
7.515953316040738241e-02
5.497225131164057421e-02
6.146361982402193808e-02
-1.638767843588214562e-02
-9.880612266314030279e-03
5.050483091849731349e-02
-5.660970456060319261e-02
5.979297480213442012e-02
-3.517914345049590746e-02
4.144970051465275002e-02
-1.371704751017224430e-02
4.135970080011991401e-02
1.032486884265153004e-01
-6.392335281196287466e-02
2.255542632805578041e-02
-5.497787785444539777e-02
9.790061652666867675e-03
-1.135308197952763706e-02
-3.254555545106559838e-03
-3.636246334668885583e-02
1.267001761365939977e-02
-5.580669325669133929e-02
2.340298276006547162e-02
-2.749937237653494321e-02
-5.856902737799456887e-02
3.019745772698266550e-02
-2.073432789468993009e-02
3.754544513125337990e-02
1.607622445978433567e-02
-4.530586127051714623e-02
-2.462927576667541321e-02
-1.909232430057428154e-02
2.249137801203547615e-02
-1.068124673413100439e-02
-1.896612744999058228e-02
-3.064257662683437383e-02
-2.650124167361050942e-02
1.386411765503056323e-02
-2.540589112181654285e-02
-3.756799044817599187e-02
-4.281504230343846640e-02
-4.261818834444341952e-02
-6.815988298751499141e-02
-4.866889909103759571e-02
1.876316916403301255e-02
-3.239246235256042217e-02
-5.042295240113858074e-03
-1.004942678376778975e-01
-9.017354074304012590e-03
-3.082178807509936697e-02
-4.031927536324456801e-02
-2.032321308339937738e-02
-4.048423368716749793e-02
-8.916490209177205251e-02
2.397990128498249385e-03
-1.778092775296047021e-02
-3.427222249716281588e-02
-5.360142274521670358e-02
-6.845148151977270556e-02
-1.735502205796415204e-02
2.464147261780210568e-02
-1.732792860093108900e-02
-6.453498815508307285e-02
-1.589224445059023855e-02
-2.379984712112586526e-02
4.212460994487115390e-03
-2.966328006904956488e-03
-1.101467920065606898e-01
-3.556505441106149606e-03
-4.929063248341529480e-02
-6.103379696650142183e-02
-2.314685203781340073e-02
-4.180559110242926257e-03
-6.464591503071168144e-02
6.911699856652339657e-03
9.995284527161467369e-03
-1.004223896603996177e-02
-3.588386903446073167e-02
-3.748674220981417643e-02
2.458597248290114723e-02
-4.944163819296272522e-02
3.009931553054487688e-02
-4.328649709340777474e-03
4.143442705285133032e-04
-4.508439073077696868e-02
4.837969024866866502e-03
3.094464007046295734e-02
-2.403900487554409826e-02
3.474745183012496741e-02
2.641070296824745561e-02
8.592126181429692727e-03
5.791498106098690035e-02
-2.922708180080713786e-02
5.199017480826220727e-02
9.508977485959199671e-02
9.477140350500405652e-02
6.846176741141453415e-02
5.301543876290291946e-02
4.836693984435615212e-02
6.377569399965174468e-02
9.461552141361626034e-02
5.950323235975292502e-02
1.118082008906450958e-01
1.583538838824986028e-01
9.764682287679758710e-02
6.414797367402165496e-02
6.890784362964431919e-02
1.370735856361769700e-01
1.162300365289376525e-01
1.482574881829191726e-01
1.095251964047856269e-01
1.536560846962061189e-01
1.267863690919840969e-01
1.119302557608461007e-01
1.237993310411963921e-01
1.013824743028262643e-01
1.979736666352824581e-01
1.359341437523868823e-01
1.582357867504083360e-01
1.224288256099448219e-01
1.062006519148406686e-01
1.295980583455657587e-01
1.681992490515514249e-01
1.178654049282751443e-01
1.055781816073246976e-01
1.345876514269881141e-01
1.433251311423241470e-01
1.764956490085295981e-01
1.373801106238437264e-01
1.466824618396961322e-01
1.509744824754248871e-01
9.874601279561733003e-02
1.108181423260403697e-01
1.166190618211980501e-01
1.222677624613712211e-01
2.035392229062248926e-01
2.108335689800784618e-01
2.326128309232702029e-01
1.867214066209247070e-01
3.670231309583968371e-01
3.261764059417003869e-01
4.689558451376696357e-01
4.247371119856860888e-01
5.104013747282842850e-01
5.399666002751543070e-01
6.915298228339002984e-01
7.238591229124345938e-01
8.005513808554831634e-01
8.648126932499996533e-01
9.976359755191847034e-01
1.056751034776611586e+00
1.141440012517131564e+00
1.106832351919725177e+00
1.161391215798428300e+00
1.129583937197873977e+00
1.157118996702040992e+00
1.136008171040563175e+00
1.136007829767522015e+00
1.110316590490231237e+00
1.056094758426289415e+00
9.384168738089742057e-01
9.239765190250969207e-01
8.183236771611092086e-01
7.331483899468199672e-01
6.446811206506342096e-01
5.739763947498207619e-01
5.713586585617740354e-01
4.614565252360813830e-01
3.964450779708231232e-01
3.287844102443571170e-01
3.622655762161032245e-01
2.870883087380401988e-01
1.919644151600936599e-01
1.772573966446986948e-01
1.565944779850363955e-01
1.500367717204357521e-01
1.117077690878388041e-01
1.368027569996109472e-01
1.612991069843756897e-01
7.507433413417237411e-02
7.953888336885207855e-02
9.951284564871364091e-02
1.028890128901655959e-01
1.789921198647569378e-01
1.529499354525209465e-01
1.557082886615247241e-01
1.243924499653865090e-01
1.290227680019301881e-01
9.959964009897508130e-02
1.723182856517023465e-01
1.694321698390947595e-01
1.991882769922596608e-01
1.602272780897072979e-01
1.682471576665480195e-01
1.835274671617238007e-01
2.110612277566107642e-01
1.460059196420621652e-01
2.179105184373516524e-01
2.008180551438487615e-01
1.751453966510872484e-01
1.496857675583131431e-01
2.132777430001629448e-01
2.657611500438942231e-01
2.773196038021762955e-01
2.422634347298888435e-01
2.947421384339485861e-01
2.386140131926370589e-01
2.722466753402312256e-01
2.335665664726535862e-01
2.348186710646829323e-01
2.327694951238508669e-01
1.937910297809100346e-01
2.963961147622347081e-01
2.403668461714549842e-01
2.370542976722593009e-01
2.268237576911786846e-01
2.568575422695871247e-01
3.162962032204605922e-01
3.262448931971153043e-01
2.132834721038200376e-01
2.517942892403634003e-01
2.303595435346621478e-01
2.896527746110694190e-01
2.668696390688809483e-01
2.371092085160166618e-01
2.559930169762849594e-01
2.367890023478768924e-01
2.965332263074685337e-01
2.612209431696723150e-01
2.613397385186180255e-01
1.574124327292329983e-01
2.313495820894336807e-01
2.915582751134854766e-01
2.643476159962224736e-01
1.644641291393183213e-01
2.056169622859332635e-01
1.739657691605915879e-01
2.562037190093433559e-01
2.069450980135373042e-01
1.712347104197357583e-01
1.898697157887607179e-01
1.051435347592473979e-01
1.452964887130613891e-01
1.733984915786598024e-01
1.921314931470071152e-01
1.029906133430369963e-01
1.442927935882761803e-01
1.805591533857714981e-01
1.013241120706246112e-01
1.464137601661787413e-01
1.362720388870566068e-01
1.805743111519880761e-01
1.171951345143161516e-01
1.140234272007600580e-01
1.400170793080688925e-01
6.990702089008782316e-02
9.853929947110312559e-02
8.710729347800029443e-02
9.237474799192360586e-02
1.179111307046224882e-01
1.051574773193350160e-01
6.230495678162938089e-02
8.525972102617540571e-02
1.224264980327993274e-01
4.948790590861908145e-02
7.565989010223526934e-02
6.254509023852330984e-02
6.364185048978979187e-02
1.395895309035110471e-02
1.026998841544521229e-01
3.479301192995309933e-02
8.659679163945567526e-02
3.510480102110963285e-02
3.304845752250609725e-02
8.640621518338637008e-02
7.815459850265044084e-02
5.304525112727977165e-02
6.818361343101918270e-02
3.536780955207726590e-02
4.255495846759587558e-02
2.183996609114605830e-02
6.778931321528172682e-02
1.893447687795580398e-02
8.344688615009751564e-02
2.865335252062193444e-02
3.805584784526840070e-02
5.958597451618599661e-02
3.699038025849728240e-02
2.684987850887265992e-02
3.445723135578297736e-02
6.179735023102905789e-02
1.477226418895742285e-02
3.059220735434260707e-02
3.445233348110401245e-02
5.988528427356646505e-02
3.079278460222100930e-02
8.791097557355558034e-02
2.887033860637660404e-02
2.636848713160174634e-02
2.832608049385923130e-02
-6.060898738988906853e-03
2.338953868027619787e-03
1.754229816895572225e-02
6.757603728213584793e-02
3.256178813650183884e-02
1.908469515191639487e-02
7.050109348784153185e-02
8.033264907780955644e-02
7.156113170941884316e-02
8.418208581462763296e-03
1.927261444470022844e-02
8.866831026918037262e-02
4.162272533526814589e-02
2.649741907898525012e-02
5.621906716806100712e-02
6.503407578632507124e-02
1.782160862140798330e-02
4.170129752504753845e-02
6.307046069692286150e-02
6.227535820908861042e-04
3.596122582535305617e-02
2.320125534695724467e-03
6.406521347450174625e-03
1.918396417463625464e-02
5.055426168914875507e-02
2.674418008362153959e-02
1.711679165656277563e-02
3.828058138820009809e-02
2.489662510027593201e-03
4.992710634063333291e-02
7.116883329393519642e-02
3.501498779238397530e-02
3.147509023073979256e-02
4.892071887006767955e-02
-2.297419484632294562e-02
5.414616409954749188e-02
1.312592895787955960e-01
3.468278166943369184e-02
3.494890876786453660e-02
6.098966556432104669e-02
8.819940555263744431e-02
6.824557846396424321e-02
-2.551542122258068646e-02
5.621009611882273743e-02
1.166204669242716929e-01
5.828929522898883275e-02
5.130563127599428730e-03
4.837510871444300475e-02
1.650233313748555863e-03
7.720461363663833065e-02
1.169268946702753040e-02
4.274414401058079099e-02
1.493009888741361063e-02
2.441571034656669567e-02
8.553830729667868948e-02
4.420111547422305581e-02
2.446391011437622567e-02
7.024694964012014042e-03
-1.462899970610495592e-02
4.123093021471256614e-03
4.515870828789219499e-02
7.134431071489825971e-02
