1.045950632071755537e+00
1.000320888805658059e+00
9.886747441053301833e-01
9.296728883903502272e-01
9.156025751748003705e-01
7.786485166524043100e-01
7.699499637284166198e-01
6.294744103450362616e-01
5.910190142839775174e-01
5.248066842057085291e-01
4.904613893926482726e-01
3.817505535177633802e-01
3.101964462104310760e-01
3.130442354158889939e-01
2.026885225758225384e-01
1.448648914973504620e-01
1.141900220424194867e-01
1.078136425633944573e-01
6.003676602413249991e-02
7.038136149624431293e-02
2.602401059126806249e-02
5.957456823338956597e-02
3.168617731065329068e-02
2.659114931061856354e-02
1.725958711256459291e-02
3.011918050797367935e-02
6.402414894978740445e-02
9.497337123000731962e-02
5.729849966714178899e-02
1.246345424743938030e-01
4.515619235468217724e-02
1.433341468991343737e-01
8.534030075981950680e-02
1.279932364775017428e-02
1.094939688144569434e-01
4.229059690325245868e-02
9.096468650736871941e-02
1.770435038574185715e-01
1.784023142053618172e-01
1.792599400674537991e-01
1.147476653570782407e-01
1.231042818896714020e-01
1.462857499381762238e-01
1.367563320732204102e-01
1.151904604126893633e-01
1.915237062446634164e-01
2.048940896127356970e-01
1.762240508011732321e-01
1.552416540756239860e-01
2.669975633700706341e-01
2.128371431683168669e-01
2.276802003937265506e-01
1.792637635010050912e-01
2.465655077222165814e-01
2.745986094278256018e-01
2.113776887110058456e-01
2.495116528741856687e-01
2.173630919926515248e-01
2.374906813305449615e-01
2.275383068612645276e-01
2.346402424067878523e-01
2.778316000334118407e-01
2.545736052703719832e-01
2.734886348980931636e-01
2.675793147289376450e-01
2.429017413069467779e-01
2.659705307582204692e-01
2.493441328220972475e-01
2.319286326395555708e-01
2.620807332309584292e-01
2.332434322979221875e-01
2.391090556048372506e-01
2.573903571945101998e-01
2.453855952023338838e-01
2.141392445820436974e-01
2.472722715089121226e-01
1.916287352355826590e-01
2.326021589276693891e-01
1.612902990220514143e-01
2.053209475933185091e-01
2.265870829548514431e-01
2.710594747047562203e-01
2.018895359212365681e-01
2.052469624971270667e-01
1.285093200087779330e-01
1.359514435385711095e-01
1.481370163482899627e-01
1.462982220840660652e-01
1.180803459271588252e-01
1.374233936927526101e-01
8.675997544682209628e-02
1.025335101556425488e-01
1.581041881124874704e-01
1.480767196978137468e-01
8.717199912115097815e-02
1.193744756711230259e-01
1.215180053387103776e-01
6.752430636825779153e-02
6.058716696985635281e-02
8.699247556729101938e-02
1.184255830271876975e-01
1.062949931251827851e-01
8.486908618560991269e-02
1.919114445858334864e-02
9.410176710524009724e-02
3.430318870791522479e-02
3.255731311958035001e-02
3.116372080371107231e-02
7.218794721936711012e-02
2.472479572296126804e-02
8.178499846778429505e-02
6.020380130589048778e-03
6.992473452910959175e-02
-3.262316090397407442e-02
2.371098152605687764e-02
4.115028705158380040e-02
6.964901646777127420e-02
1.968550917044310095e-02
3.176777459432195139e-02
2.075039331659919717e-02
1.694519278820589420e-02
3.257608891186188071e-02
3.703800307670415681e-02
4.295027849762236838e-02
1.534896600817174661e-02
4.347760226072118483e-03
7.344284647131738009e-02
-9.988914253286976241e-03
2.956924626173314599e-02
7.560153565362808664e-03
3.925290239075901466e-02
-3.157807164516468479e-03
3.648566934988867194e-02
3.736374830296474575e-02
-4.839836251062921979e-02
-1.312100667410144583e-03
2.507643253941660433e-02
2.157505528601097455e-02
-6.798652401171823706e-03
-3.204302641186559941e-02
-1.931473776439527473e-02
7.328965873399875819e-02
6.571233887447290589e-02
2.037324600998852153e-02
4.807939691184801023e-04
-2.752991847226562983e-03
-7.382149339168142532e-03
2.910692759444458155e-04
2.800173451303216571e-03
-1.981095121828824884e-02
1.809180516627953775e-02
-5.402039353946910816e-03
4.190631353948043314e-02
2.517584788005798255e-02
2.217641220428765575e-02
1.968242936672187637e-02
5.514474737714311625e-02
8.926554448755286142e-02
1.698386666373412693e-02
8.592909015532604333e-02
9.721707768878175976e-03
-4.957802859986679828e-03
3.024491267449117005e-02
7.212643883719890847e-02
6.907603098243776663e-02
-8.430137551486267117e-03
5.585642110633810831e-02
5.657609658690903459e-02
7.283603272942654194e-02
2.528882322339864527e-02
4.971328452992027080e-02
1.037896856777192900e-01
6.200252563199300238e-02
3.482115264995618020e-02
5.689946416427059395e-02
7.213113261122618136e-02
1.349005586679812574e-01
7.629507584080490179e-02
6.420707695224453504e-02
8.840909731344935574e-02
9.390968921067757713e-02
3.460795442711833703e-02
1.251625961662312658e-01
9.994685761770472077e-02
1.575543035719051133e-01
1.895289628945428795e-01
1.174765449993029343e-01
1.122322684267358095e-01
1.563841860470940870e-01
1.493438294681479761e-01
1.899390512639065332e-01
2.691695914515442878e-01
2.129805692425931207e-01
1.604095207189054906e-01
1.621832072312009987e-01
1.696452898535877885e-01
1.929313950602365990e-01
1.782873801190760499e-01
1.793852878471793588e-01
2.155431532435266306e-01
1.664292859883313158e-01
2.128580945267102564e-01
2.322089733280491286e-01
2.428863441508873067e-01
2.037254764294330056e-01
1.372572615031099619e-01
1.598637039085243072e-01
1.479849274248327129e-01
1.717619091325841563e-01
1.463381770540650439e-01
1.424263429835582462e-01
1.013042452905271451e-01
8.731179344641926132e-02
1.438093240010327456e-01
1.570412832503650380e-01
1.473954721528653589e-01
1.226050059661422387e-01
1.653628490673684504e-01
1.229732322005018808e-01
1.570297460553490843e-01
2.438385836248354033e-01
1.970622386964218931e-01
2.798938016738065637e-01
2.631085893570365153e-01
3.600858000831124173e-01
4.638052548919204821e-01
4.912456317487045587e-01
5.850539312116275203e-01
6.433026252753880625e-01
7.279260763496212538e-01
8.309620525227371379e-01
8.974015564412991530e-01
9.857490011119069973e-01
1.058005269818699690e+00
1.022357101775121180e+00
1.056119466107059424e+00
1.057098091891448099e+00
1.068836716966612199e+00
1.068634153985039248e+00
9.567311241395056731e-01
9.307220999947005691e-01
8.494273843172359673e-01
6.901730013467730629e-01
7.067996993799658956e-01
6.148124798675970171e-01
5.086671800130047050e-01
4.401969291730856715e-01
4.234719050073190161e-01
3.174445986391721819e-01
2.937131341451819089e-01
2.563820531726612173e-01
2.545551422584951817e-01
1.287706867999177385e-01
1.818301180188302557e-01
1.844059597443246101e-01
1.510185649003273345e-01
6.060509172842312026e-02
1.561949728537976589e-01
8.638375102137425821e-02
1.021932682593052200e-01
1.297456314107820474e-01
1.090930015112658025e-01
1.231328608538043851e-01
8.876601376853790470e-02
1.684390020942763688e-01
1.685741205629315842e-01
1.464314262200060446e-01
1.484176807025092137e-01
1.791455187571472374e-01
1.257627669391052361e-01
1.430219053141998098e-01
1.959037638150253891e-01
1.574061329583796576e-01
1.231790906928502682e-01
1.746669355289570957e-01
1.664745061889555677e-01
1.762191957405162546e-01
2.097663219029201054e-01
2.502581269021640353e-01
1.755784776661983015e-01
2.676878150743788876e-01
2.587790994329808303e-01
1.986877873020095608e-01
2.270252633384975405e-01
2.706907055067574452e-01
2.647998849134372557e-01
2.481117422376911685e-01
2.927212334008322259e-01
2.651161110063946502e-01
3.190589254750737513e-01
2.922667614456320173e-01
2.770128182957830587e-01
2.669912027778185704e-01
2.659935711737018149e-01
2.786921475343796528e-01
3.376236762600253183e-01
2.928335650299041526e-01
2.784770862238400424e-01
2.891169960159465924e-01
2.592173366275397628e-01
2.909881985184912256e-01
2.996542997020370525e-01
2.917919568044194389e-01
3.627631177439570864e-01
3.086180552264731203e-01
2.318774049990849351e-01
3.268156122379928252e-01
2.948238613272513575e-01
2.460512495937431932e-01
2.830602533004389909e-01
2.476307186495397827e-01
2.963461364987401980e-01
2.363395359674956842e-01
2.908910718731939071e-01
3.204094873609057981e-01
2.853356608096930813e-01
2.464704357154706427e-01
2.336134424560598333e-01
2.015134391385740020e-01
2.298157174431108285e-01
2.315099339007528623e-01
2.130245081179505950e-01
1.896787633991496858e-01
1.717618508332134641e-01
1.953523716075393490e-01
1.408204710232975332e-01
1.819093254022463024e-01
1.583781986328191560e-01
1.006176695289699025e-01
1.444771903480109032e-01
1.078185831525086125e-01
1.515851915665882288e-01
1.385675300559501277e-01
1.082720725695021785e-01
1.622134272436276392e-01
9.454504297869867346e-02
1.004175072587211726e-01
1.043006343328960472e-01
7.588976936274474672e-02
4.838365260877756230e-02
1.370825338090398415e-01
6.972165917393545465e-02
1.049362397314208828e-01
1.219513828011410950e-01
6.745134391804090412e-02
1.088705515353836362e-01
6.805554332809049534e-02
1.256965296325530113e-01
1.513202755957135381e-01
3.801048098194135388e-02
4.882613562783861411e-02
3.091088167595363451e-02
4.822966368210862553e-02
1.575848136168544328e-02
5.961941339375139565e-02
2.499737460534213335e-02
1.145532890749537819e-02
1.652467776316008524e-02
8.169791989803185106e-02
8.616204761135982937e-03
3.187891547522789942e-02
3.351492433823419215e-02
5.087434795645147390e-02
4.146611946105996371e-02
1.972590522964153339e-02
1.576430736800789323e-02
4.963616538745871387e-02
4.521343420506052785e-02
2.760945815502612380e-02
5.222954320278606899e-02
1.112639184821863220e-01
6.984972509548133257e-02
4.145059389077439260e-02
1.171056381147965453e-01
1.157906849130777710e-02
5.243684098068734228e-02
2.365937950057178316e-02
-1.463074427873835293e-03
2.946493445638468864e-02
4.685489739391762026e-02
2.953442259390277533e-02
8.144673512519176595e-02
-2.235123770738378646e-02
9.115537047771614387e-02
5.369416313235957777e-02
3.917772181576971435e-02
7.027972311862994148e-02
4.541821300569735126e-02
-2.669913846729918272e-02
9.260939781189866937e-02
7.180097315782073275e-02
6.796905092952751359e-02
8.098423737389096044e-02
2.321542988803395810e-02
1.182903563522776785e-02
3.754427270684310147e-02
7.421311928178744854e-02
2.812763386836010515e-03
4.915401540228986343e-02
7.410206741205524472e-02
2.311701453011778817e-02
1.166416118942095737e-01
2.748208427206456916e-02
6.381604973886796650e-02
8.379803049814987803e-02
7.153904576599012799e-02
3.404056377406005501e-02
8.217862458734646880e-02
5.629208296110960186e-02
6.515581331182321301e-02
2.846464975598932828e-02
1.076065371985802932e-01
1.395647808896972875e-01
1.173654469497591446e-01
1.668452566431589956e-01
6.627292623549169148e-02
8.710134965835941712e-02
1.360150436831858711e-01
1.086303408777919560e-01
1.202497911932907670e-01
1.323891940297899639e-01
2.044167580785352101e-01
1.765239198664314002e-01
1.770705728102397181e-01
1.399661408610909930e-01
1.654397806830685824e-01
1.554828888496380956e-01
1.891857496115310899e-01
2.507270785272860403e-01
1.694727068495499867e-01
2.124446573182172948e-01
1.579014852580825912e-01
1.879178986252355854e-01
1.874027701018381176e-01
1.861959985046228450e-01
2.049442864757084481e-01
1.784375941582763692e-01
2.051858219967347408e-01
1.553319908396723070e-01
2.375016889662281139e-01
2.388074891310238146e-01
2.148699197939960559e-01
1.584420505955206893e-01
1.505132778027290508e-01
1.669594070325686186e-01
1.714845347191521208e-01
1.896327908237521731e-01
1.007402815507990185e-01
1.448546490902413164e-01
1.644536163110491278e-01
1.786396635887893547e-01
1.482897020103654817e-01
1.263397574471097351e-01
1.548498851472125126e-01
1.792208090829410516e-01
1.429520516044078815e-01
2.295071688893878525e-01
2.583128602401657536e-01
2.710215658343640976e-01
3.627863831133939509e-01
3.982800314774414541e-01
4.544646069409254419e-01
5.527198704578797361e-01
5.587162677932578925e-01
6.505748937540543064e-01
7.899086600431993732e-01
8.908261421869830832e-01
9.227483055192058359e-01
9.557651232706609878e-01
9.896791476291185718e-01
1.096160493945451675e+00
1.084844274119258989e+00
1.121633429079785360e+00
1.071927608209274130e+00
1.039635236352446368e+00
1.033629571580615636e+00
1.029409036332850302e+00
8.441454002863368888e-01
8.319760640296449683e-01
7.099396362851708719e-01
6.273564951371884968e-01
5.094895600033499949e-01
4.529825505449126544e-01
3.874806155871592384e-01
3.345796065203905378e-01
2.972495391205197679e-01
1.832314624086911481e-01
1.883626697195897037e-01
1.616841991847408067e-01
1.593479716533477697e-01
1.284630572431212370e-01
9.411240489727906722e-02
1.196265387340860187e-01
1.701445476434589044e-01
1.584081086815698758e-01
6.810940517394922789e-02
9.267014626825230417e-02
1.127270570188483034e-01
9.283719930634531936e-02
1.858049277197773297e-01
6.539281130360752314e-02
9.091051828880578056e-02
1.025934575502641111e-01
1.113476567313587545e-01
1.592375448564966323e-01
1.307386812910743823e-01
1.663735908463507829e-01
1.904949125850501079e-01
1.926438754334489634e-01
1.791209191339971918e-01
1.812576219329315175e-01
1.822671492198339183e-01
2.168425873050782438e-01
1.858846845342953247e-01
1.911373138830731178e-01
2.658149215131295207e-01
2.511257404913131430e-01
2.281654347954679418e-01
2.072454258002999206e-01
2.186237929134726143e-01
2.709989837143985114e-01
2.296741506129333921e-01
2.790986186951448511e-01
2.584905189459300034e-01
2.804895669161588390e-01
2.937971162157457794e-01
2.368894057689106547e-01
2.825649775372272021e-01
2.480866236288411519e-01
2.615512072769279883e-01
2.397679027584421751e-01
2.627234203615207431e-01
2.518719672069398841e-01
3.241642522526643755e-01
2.892124272986979494e-01
2.805347341327268373e-01
2.905503317408768549e-01
2.852013425686922288e-01
2.718155664977805475e-01
3.064524160090184024e-01
2.801034304614530845e-01
2.581849237202321068e-01
2.155655730347097454e-01
2.412339243993635862e-01
2.913569217093124886e-01
2.471842566181902401e-01
2.904676466801430212e-01
1.939205282754162818e-01
2.491982056929872291e-01
2.197130907653346010e-01
2.815046248712386734e-01
2.103548851724156288e-01
2.084749334548841315e-01
1.756317808705450956e-01
2.434162178671179233e-01
1.509655818964446006e-01
1.519593992226989376e-01
1.887074187764897770e-01
1.590477405253722387e-01
1.901685735453169102e-01
1.587110672203190520e-01
1.584303110016475613e-01
1.400751993828920905e-01
1.771113744460147132e-01
1.381114061269473337e-01
1.039112420235054207e-01
1.259043149494036007e-01
9.926483985240069918e-02
1.006982106217584050e-01
1.022673960263975057e-01
1.074507339029589226e-01
6.230399434152571886e-02
1.059157379345804506e-01
6.635203284544619051e-02
7.505105153421870456e-02
9.755285879787603531e-02
4.973866893868901518e-02
4.505501423175185122e-02
8.169695943790197812e-02
9.613379156905604850e-02
7.102719938670669364e-02
3.518258023754537722e-02
3.358319159435235735e-02
6.026421503307628769e-02
3.065400044446106587e-02
-1.132750228361161654e-03
2.054238373587630867e-02
1.699119092976854317e-02
5.959197767803188495e-03
7.098071964974989045e-02
6.313600332173885388e-02
6.258564315233999809e-02
1.187066797636863666e-02
6.222915420504952083e-02
1.692930716723865109e-02
3.967915502871909028e-02
5.974781130064162060e-02
-1.461370942502348072e-02
1.069541459527047211e-02
4.265396375072381951e-02
9.269360036462392927e-03
3.562622773171424118e-02
-1.474201776312409479e-02
1.993332377712950590e-02
7.216212911028102583e-02
7.362196190453772215e-03
9.159203732234916240e-03
6.048848734487120848e-02
3.486650509512891072e-02
-5.632803032116457526e-03
-2.317245045860478331e-02
2.169777620871725377e-02
1.166927627741467036e-02
2.628388682095757906e-02
1.345117578697459584e-03
2.038830735264094557e-03
6.409683359361111055e-02
-1.922004523799039633e-02
2.896386357341843715e-02
-7.501926940834229007e-04
1.124194550969870657e-02
-2.810345377751032742e-02
-4.989234602375058197e-02
5.222491985759138144e-02
1.854738171386476064e-02
1.405730461676844845e-02
2.704240407474851546e-02
4.001790886020915178e-02
-2.500532641079138835e-02
1.911446243546921844e-02
5.045648561278907873e-02
4.156654190355680428e-02
-2.345352711189718428e-03
5.590409013175087066e-03
3.091494374976522241e-02
1.709608493358014819e-02
4.761702826289685581e-02
9.319312178051928838e-03
4.318253663982234147e-02
1.736031657658386809e-03
2.579409652746447734e-02
4.928693693383547070e-02
-1.072494642309980949e-02
4.264487274586525878e-02
3.426120986252389339e-02
3.206248469294958880e-02
6.609784361525265772e-02
6.533188036032969159e-02
8.809433792701690247e-02
3.231260389172708331e-02
8.188166861516027462e-02
8.874163431759929388e-02
2.633900406441316150e-02
6.673406407631363169e-02
7.734047355015444269e-02
9.315110537142327896e-02
8.018618236516800168e-02
1.130103687255797212e-01
1.353781964369636381e-01
1.030404157419169131e-01
1.003199708540001567e-01
1.526922517125205436e-01
7.647082953794870352e-02
1.782465619497199116e-01
1.404683928575787277e-01
1.155045175126568902e-01
1.717016855667386210e-01
2.016185795717808094e-01
1.098656676219681994e-01
1.398136385302546081e-01
1.751326219765546865e-01
1.239635818850042676e-01
1.407898999286510966e-01
1.187481939547320869e-01
1.354425558126631790e-01
1.542970890123284700e-01
1.308007632040897872e-01
1.176369018909274311e-01
9.591862225463848590e-02
8.806391343444772146e-02
1.233092615825942262e-01
1.117981646021521530e-01
1.445155203727477577e-01
1.295280709158412036e-01
1.592681070199790105e-01
8.665073413347690323e-02
9.174168928925599542e-02
1.036889761507993335e-01
1.422501519927135694e-01
1.485942447085641938e-01
1.722458311809651477e-01
1.640814936462585416e-01
1.701154537305006320e-01
2.107200428558273220e-01
2.345233846784930409e-01
3.237271504454201643e-01
3.511664269447099529e-01
4.289330930412234566e-01
4.616201429794584699e-01
5.849069908922522876e-01
5.978220661611631792e-01
7.485572666929032337e-01
8.034737266394517130e-01
8.553074542159424531e-01
9.586160761364547200e-01
9.943159717145193532e-01
9.710991067288131662e-01
1.025987014652119278e+00
1.039257807339097228e+00
9.908214910222060690e-01
9.527931898366974739e-01
8.875971249392610174e-01
9.008553087005343185e-01
8.143532643684466832e-01
7.381599479531119057e-01
6.560903342626104306e-01
5.646407909722168661e-01
4.738824333875233386e-01
3.900882583876117415e-01
3.380265024953852393e-01
2.804045370347775790e-01
2.134474425401221842e-01
2.076214127970780754e-01
1.143565323312610849e-01
1.179209979761135507e-01
1.087242250014182343e-01
2.475460228347632630e-02
4.990743169549832770e-02
-5.196142223876812002e-03
8.155199608544701217e-02
6.370124119744129121e-03
5.323059488009027063e-02
4.146721714942309955e-02
1.015457979271346296e-02
2.945500482550312757e-02
4.633876004926161529e-02
5.559621733389120968e-02
5.539063689187329054e-02
1.307565907246695247e-01
6.438842066395808472e-02
5.112432507289497302e-02
4.555342342142500167e-02
1.286354307873540381e-01
6.431686635777383865e-02
1.017481657047625554e-01
8.789838288267848299e-02
1.466216425327549477e-01
1.637570049051884080e-01
8.242151316793502880e-02
1.150841089252365584e-01
1.391058393317226027e-01
1.809983454091387833e-01
2.104823274947899281e-01
1.745977393078129436e-01
1.379447776060061526e-01
1.745181651573503023e-01
1.783929339188133067e-01
1.735158070190580826e-01
1.790067573058899686e-01
2.149173358675271484e-01
2.237334629532103658e-01
1.840154401562980602e-01
2.433227477923654847e-01
2.302256236407979606e-01
2.083859852052549477e-01
1.794594833027988723e-01
1.925793807465766005e-01
2.156111860017014825e-01
2.035891987755633070e-01
2.094479575697793250e-01
2.006632765201580015e-01
2.217871127519828178e-01
2.245735501962681235e-01
2.281270227160252517e-01
2.181791657310769572e-01
2.441771669564793967e-01
2.356354080709883725e-01
1.700537675323411935e-01
1.561355316507546664e-01
2.326184438460847936e-01
1.872866633619729715e-01
1.517002297239506414e-01
2.247222681095458197e-01
1.566980812843098980e-01
1.866284006437257670e-01
1.815370377299719007e-01
8.630614144898965390e-02
1.823400971527319170e-01
1.035614644768092507e-01
1.869955581631055352e-01
1.629812713253045442e-01
1.152408897634002727e-01
1.729781117744854935e-01
4.626498292536627283e-02
1.557767462273633163e-01
1.174201460669769548e-01
1.514218490758944546e-01
1.504587940544968305e-01
8.036881627712458287e-02
1.285060198413675858e-01
1.060093353601013755e-01
1.217789657669079151e-01
8.120022435529944405e-02
3.226245102225210049e-02
5.165379078040294170e-02
4.305217678113598678e-02
5.238031377633797780e-02
3.080922038958270812e-02
6.055242484569650641e-02
5.531742061326631876e-02
6.518867331685351818e-02
3.704255401112536983e-02
-2.518033588141267015e-02
1.854191314250930311e-02
-4.092635194791373332e-02
1.430668184939306795e-02
6.315406734485121132e-03
-3.039810225251547357e-02
-5.392271186936466870e-03
-1.835674657591111411e-02
-3.266414358231141402e-02
2.629012197295866465e-02
-3.571046835198224412e-03
-8.410828990068761057e-02
-5.517662106602256450e-02
-2.011156457146399956e-02
-9.756024176067797787e-03
8.796848255686523510e-03
-6.249362205432364842e-02
-5.434467318954006032e-02
-5.559728573679631469e-02
-2.882486804305282868e-02
-2.401412182583850807e-02
-3.441520351168547015e-02
-4.683716486853718025e-03
1.052605614321325961e-02
-6.996008762022598582e-02
-2.351566557661397341e-02
-1.924010191034540573e-02
-6.002125686544644567e-02
-2.197990447450057575e-02
3.800851593174096182e-02
-4.554103946976776479e-02
-4.043272738972079894e-02
-2.246649931654848276e-02
-1.219843600063146363e-02
-3.797730109512235941e-02
-5.131137400145290017e-02
-1.637734844702659620e-02
-1.261637162311689611e-02
-3.195173604979602983e-02
-4.888642989339407607e-03
-3.551836354975335119e-02
-1.489283206719355102e-02
-3.526619780486989209e-02
-4.728175392032517993e-02
-3.416628107066080333e-02
-3.585175490176559926e-02
-2.882561578586227344e-02
2.207838086772610092e-02
-7.416018579656322163e-02
-8.402192954962039995e-02
-3.534149012309963783e-02
-6.440969136101604153e-02
2.580897908357318582e-03
-2.840062109184949418e-02
1.933940574888028119e-03
2.479177344358124424e-03
-4.191435604167698115e-02
4.616083368594432745e-03
-1.984036116474753586e-02
-1.066557142629343674e-02
-4.893183451376396237e-02
-3.116381045139902939e-02
8.577161494220414406e-03
-1.605770500883978505e-02
-7.681786297125664520e-02
-3.633562906630181943e-02
-8.837072892446465322e-04
1.810716668148138614e-02
-3.537844512156478743e-02
4.213290249794748865e-04
1.834832468015515361e-02
5.214392775338883013e-02
1.813041593455924638e-04
4.656897457223710401e-04
-1.690158600251351340e-02
1.102450984773224729e-02
2.310275669324526188e-02
5.497144026357110580e-02
4.756681888737325503e-03
8.504251538402021748e-02
1.576372396366462758e-02
6.140980298394407844e-02
8.885678090116172489e-02
1.111212719555985939e-01
6.938122629378373762e-02
1.041845126643793085e-01
6.949635719767613407e-02
1.030298665108501655e-01
1.165705460152239303e-01
1.105897682003941646e-01
9.738142271314986775e-02
9.308197523513368765e-02
5.861057217272429981e-02
1.183027600222660153e-01
1.234727067508196996e-01
8.377633117910213145e-02
1.512076783297438554e-01
1.437558854415855736e-01
6.322781714744109272e-02
7.728813492664346474e-02
1.452698326717257182e-01
9.194813265985282702e-02
8.190896561291294287e-02
1.125584756240239764e-01
5.496150814355493797e-02
7.193541390829989723e-02
5.444718097934296563e-02
7.337957832131650204e-02
8.839713862816517276e-02
7.364386369315130410e-02
3.447779232671554367e-02
6.211515474788148472e-02
5.009585213811157400e-02
4.570775295492107704e-02
8.098789337924496012e-02
6.007705711617622457e-02
1.934737399221562737e-01
1.291608020285945901e-01
1.740277311915168212e-01
2.851556172173799752e-01
3.358979250359268587e-01
3.422206231944135979e-01
3.963151983908185794e-01
5.531671941874042320e-01
6.581319157563942923e-01
6.505249744989545224e-01
7.457020082384111515e-01
8.234855018722551101e-01
9.073192559096114884e-01
9.124573141075745797e-01
9.844111915561458703e-01
9.857065067859467344e-01
9.420309336456473837e-01
9.540625181708843883e-01
8.874529051186210715e-01
8.520886655364223738e-01
7.797160910304372639e-01
7.991649380221370613e-01
6.484283513035938862e-01
5.846220251305663806e-01
4.949461296395336607e-01
3.919122181560487084e-01
3.715483724858018588e-01
2.525181371999773439e-01
2.715911284584845986e-01
2.289450924669030885e-01
1.127490929643701068e-01
8.563387986429371601e-02
4.214892271800424473e-02
3.756015221359177564e-02
4.006526449535333101e-02
4.630464986863306459e-02
-1.101816662171277439e-02
2.225777050733347001e-02
3.626849305670733215e-03
1.251541007417616980e-02
4.020537370180532477e-02
3.794418021575460959e-02
2.679765376627282064e-02
3.061021645527296775e-02
1.536916246384823631e-02
5.859381926848369893e-02
6.310304104055197705e-02
4.020715064383335868e-02
5.087058932515832466e-02
5.613180519487595554e-02
1.165021659435635515e-01
6.352363776910552318e-02
1.110378284974034291e-01
1.072693156385972069e-01
6.806719497750227110e-02
8.092971360189052388e-02
1.513929952365656029e-01
7.500687549458097403e-02
9.858806767462349741e-02
1.037185474301117738e-01
1.764312440500952484e-01
1.632392753978765820e-01
1.155246942173270008e-01
2.022932798254718223e-01
1.984177828568691182e-01
1.924047114461311936e-01
2.008307580103148304e-01
1.731336402231212768e-01
1.577154640590240631e-01
1.912964345159961776e-01
1.905287117525250318e-01
1.979813955183104823e-01
1.330844338596303134e-01
2.437217604535951154e-01
2.072537346099765920e-01
2.061960458176287647e-01
1.959218732505733085e-01
2.586481032307382799e-01
2.163214649708456450e-01
1.819790733500716851e-01
1.739263225331277862e-01
2.163898438271147640e-01
1.291483661093502100e-01
1.819758807623786945e-01
2.240585256171281348e-01
1.795635102248247517e-01
1.364638077963571949e-01
1.783421432529913031e-01
1.310128331662594181e-01
1.704268517241119274e-01
1.427713775629602666e-01
1.813957938610551435e-01
1.344536876897542976e-01
1.360763734978041595e-01
1.380413313510472084e-01
1.404916510601591506e-01
1.066281135573455552e-01
1.762381168854939006e-01
5.588966787674866377e-02
1.182976537020435370e-01
9.150844793022819279e-02
4.876585851787431508e-02
1.206326062279823308e-01
1.028725812859371674e-01
1.046925780680785234e-01
3.818340769285807207e-02
6.754618746181535738e-02
9.287688400350765927e-02
-6.799077524155539010e-05
4.121512494215190392e-02
2.815124396362136266e-02
4.584955799168456692e-02
1.029358737201542529e-02
2.987400214607097843e-02
3.444092600431214457e-03
2.856226713501759662e-02
2.309910040771415152e-02
-3.607194112342559239e-02
4.781632420359836072e-02
-1.225412242385599815e-02
2.904374338801881533e-02
-8.475960389059955524e-03
-7.982024752718171190e-02
1.862527094676810768e-03
-1.140782315907991340e-02
-8.571508942571945400e-02
-1.580344038768533022e-02
-1.500426433550217792e-02
-7.004439478479736192e-03
-6.165927761818087993e-02
-4.661781787658130644e-02
-1.440878958266493537e-02
-2.329674483659997797e-03
-5.022412611223384116e-02
-2.195024827286509717e-02
-3.794005483813336910e-02
-1.398321077846604449e-02
-3.639896120901496557e-02
-4.018322032938875799e-02
-2.564094463239713351e-02
-4.091728644614897603e-02
-3.146448420876608865e-02
-7.863538931015937039e-02
5.669681371193398267e-03
-3.341245587038727677e-02
-7.491541294738141010e-02
-3.763544134703103450e-02
-3.244232530532593917e-02
-5.618358669790843307e-02
-4.331913066809231494e-02
-6.397369426707924522e-02
-7.218867444846253922e-02
-3.557927423487715346e-02
-6.997776314953113586e-02
-3.439968522708471144e-02
-1.958069004682727945e-02
-5.656909830496988090e-02
-5.925840552127748656e-02
-6.650700230090880738e-02
-6.089307037251834309e-02
-7.070888244530110223e-02
-7.282489614152376500e-02
-9.498221220550380484e-02
-7.750633069069667869e-02
-3.916838446462955758e-03
-1.873518743171570522e-02
-6.686586467629167252e-02
-1.796564354771764890e-02
-3.844616391008389561e-02
-1.138072235982844904e-01
-3.403900804878456920e-02
-6.063504790888153695e-02
-8.312431612996208641e-02
-4.454066854848040546e-02
-8.026297404149260184e-02
-5.218598692664579847e-02
-1.334824195558053511e-02
-2.677866737448018897e-02
-4.265260232027024562e-02
-4.077502562404784064e-02
-3.512524622152721210e-02
7.562651098514644454e-03
-6.447364176588393780e-03
-2.957863226591908590e-02
-3.525636900673263796e-03
1.847745873472396438e-03
-1.793426151003375130e-02
1.160486476778494619e-02
-3.537538766523522227e-02
1.473982784132047558e-02
1.478619319196437104e-02
2.413921444490402246e-03
6.110769775699415735e-02
5.682282838547290937e-02
1.942788518462482822e-02
5.117179099753568772e-02
3.981003310041832111e-02
7.570754437519008895e-02
3.256139081325064993e-02
8.114467041596745700e-02
7.536692471894838874e-02
4.709488062766784000e-02
3.535113574081719806e-02
6.505034044795397763e-02
7.312410973947711113e-02
1.142595253212600193e-01
1.139708577753312940e-01
1.385871168721618807e-01
8.250057870625894518e-02
1.542781305233383859e-01
8.661321149408102160e-02
7.799243001575556500e-02
1.300498439764286029e-01
5.946967309450607725e-02
1.383959292772345973e-01
9.748544009825380052e-02
1.171340718175299389e-01
1.444482767544402191e-01
9.288607784024663361e-02
8.970433872143870890e-02
1.134297340533441667e-01
6.966983742111815259e-02
8.631016118072101784e-02
1.170390298502339832e-01
1.449907475819651737e-01
4.460258319861462595e-02
5.095273684915772872e-02
4.421151128854978324e-02
1.069561978433732491e-01
4.985229914642884397e-02
6.464127153765439338e-02
8.574995918080910440e-02
1.020479149307660094e-01
1.259118759103193264e-01
5.794296336342204257e-02
1.220071940520793263e-01
1.772690749717313607e-01
1.971732589132684788e-01
2.198189321375530747e-01
2.036488578202041988e-01
3.685645636251072554e-01
4.073207292609454244e-01
5.339956925903457385e-01
5.559168703819787893e-01
6.514768412999455416e-01
6.960899075240039036e-01
7.251269945659842842e-01
8.525903323330599193e-01
9.006403023570382915e-01
9.607997438472388740e-01
1.014143502819125464e+00
1.007021894289788388e+00
1.001657748107482204e+00
9.961278685839263236e-01
9.121607058964948944e-01
8.348647801064814633e-01
8.039969143149281461e-01
7.479269639547787563e-01
6.614073015517414333e-01
5.729657229928516449e-01
5.774239381583491371e-01
4.170663291458198141e-01
3.599423094305564952e-01
3.333370220160503106e-01
1.985234875463558757e-01
1.851244306023648312e-01
1.682707232140375764e-01
1.593700540102953311e-01
9.062460200096711382e-02
3.890251809109718933e-02
5.271630752967923494e-02
5.230773753867524328e-02
2.728548498479547307e-02
6.366227608776905966e-02
5.247742218596497532e-02
6.058378684430905381e-02
8.796389678531804646e-02
5.490652070291932030e-02
1.745048114531239786e-02
2.756402249544523744e-02
4.308149539557858121e-02
2.771829044538006229e-02
4.990635574053526452e-02
1.067009152849705267e-01
7.885923985798579117e-02
5.109632713810834115e-02
1.140808784010239885e-01
6.814331835396311710e-02
1.037050073472347983e-01
1.409546767453798144e-01
1.475392925479308004e-01
7.256336450500275315e-02
1.314801100384855870e-01
1.819704259797352008e-01
1.757391017166935188e-01
1.225935298568481269e-01
2.028437137916709321e-01
1.794041057307106390e-01
2.062200638148263543e-01
1.853015408905842043e-01
2.014299981357024205e-01
1.750937107439457519e-01
2.433324362476272096e-01
2.266047141901264828e-01
2.056618522924607007e-01
1.666916399504085600e-01
1.883906392117226936e-01
2.575839411971637682e-01
1.899167873862380451e-01
2.245432032637522113e-01
1.943879087361298774e-01
2.285309664165334764e-01
2.349528319339687366e-01
1.874915004245855388e-01
2.652979491533032919e-01
2.023890501971664369e-01
1.883487688215776668e-01
2.339699254973918729e-01
2.055565754680606649e-01
2.226653941408533455e-01
2.592272899513484719e-01
2.000136101523010967e-01
1.810283997516139165e-01
2.343138728626718015e-01
1.617330492156566768e-01
2.440073003025305942e-01
2.067839961540239857e-01
1.864685285052303243e-01
1.441121533585289494e-01
1.265725151928313030e-01
1.450821631499545350e-01
1.706146818888187311e-01
1.614806220090732047e-01
1.261784480035497702e-01
1.392732276853388129e-01
9.480707298743547284e-02
1.764312406979426373e-01
1.626739313804553000e-01
1.334650778556826789e-01
1.147880655297196656e-01
8.301911720366393632e-02
1.138761188700702365e-01
5.547065707663242223e-02
1.361577303161760621e-01
1.006553310388301342e-01
1.058630947824660828e-01
1.045114764045139248e-02
8.711938751416700710e-02
5.824143403896368809e-02
9.875804842099072944e-02
1.025591860328143728e-01
7.479091927293252118e-02
8.370933980009172271e-02
2.428856478030261279e-02
5.164812580720522933e-02
6.289431144196701295e-02
3.797154463337797103e-02
3.361015577694696777e-02
2.347979773704594354e-03
1.967418183760492878e-02
-2.398716453633148796e-02
4.975420821832581691e-02
5.932909899418633420e-02
1.686777487482467308e-02
1.025176734367596286e-03
-2.326133345353794367e-04
-8.492361066885745560e-03
1.049018381752496454e-02
2.297389024653940029e-02
-1.504739427725239331e-02
2.610087668560205285e-02
-2.175353340693725324e-02
3.748989536295439101e-02
1.817884067106424750e-02
2.044142634521966054e-02
1.510264578518484384e-02
-3.173714171396681792e-03
-1.892492143757408193e-02
1.524185180637692948e-02
2.461888630115225546e-02
4.469734689846099202e-02
8.288942776160372616e-03
1.804424398424916628e-02
1.928173118220949042e-02
1.523747474106642436e-02
-1.677302328018205266e-02
-4.516947088055680258e-03
4.734764479567818429e-02
-2.851354810517320315e-02
-8.090097006087816969e-03
4.750053613691726517e-02
8.748201694568288889e-03
-1.536214230166487588e-03
1.934392640419096282e-02
5.172853006387065182e-03
4.277395296142495751e-02
3.104971893987827115e-03
1.704087919247113114e-02
-1.651635812764325716e-03
-5.378983230957718603e-03
4.142910263261745385e-04
1.332415181008079000e-02
2.380527500382792830e-02
7.567769848121186360e-03
1.281028794720638631e-02
1.447126975987998374e-02
2.358864368156914429e-02
4.029322944215715796e-02
-4.840397752982911195e-02
-2.685503729988845609e-02
-5.042136389100540864e-03
2.727428675129338342e-02
3.465593002045508353e-02
4.513836397442014953e-02
-1.117101167524794415e-02
3.651382606337345155e-02
3.541122872579607894e-02
3.991566766002162259e-02
5.604999004501677595e-02
4.337077390006959660e-02
3.567490104868721590e-02
-3.174221208486609561e-03
4.250903198234518704e-02
6.313818318369485844e-04
1.130855912442140232e-01
5.036126697243218514e-02
1.831410058065461796e-02
4.832912574553473867e-02
4.596606186742942940e-02
1.207743839142955133e-01
4.127939290717392434e-02
8.980815951848446221e-02
9.545106071081707610e-03
5.470854635349067796e-02
1.085321377792444753e-01
1.291316171457138340e-01
1.538096962424136960e-01
8.553729324538376921e-02
1.496194891351377010e-01
1.484474340638622103e-01
1.667351185035492733e-01
1.343793260409191503e-01
1.789288906864955619e-01
1.783550001597309087e-01
1.452538725485238991e-01
1.194894721223715289e-01
1.844712489487829177e-01
2.137658362383604294e-01
1.517986070294190526e-01
1.152900475980232486e-01
1.740922969164164780e-01
1.598601175548068631e-01
2.050031805279857455e-01
1.679519593671755240e-01
2.141889986001551394e-01
1.747185093104819953e-01
1.668407265242068671e-01
1.627998566295766614e-01
1.471573574186102462e-01
1.190120172639071022e-01
1.080767607441779632e-01
1.359374110440284278e-01
1.129569138590970773e-01
1.401142417510418126e-01
1.377268891223384362e-01
1.557926989997652223e-01
1.647326345795914471e-01
7.139375396362435122e-02
1.046620548707696136e-01
1.384523414841600797e-01
1.471504987399190612e-01
1.717895419554048564e-01
2.268282293791372695e-01
3.066975437476094357e-01
3.467603587856215031e-01
3.543370933393254485e-01
3.494189430302366284e-01
4.488673633443958644e-01
6.003485863348083651e-01
5.543796361501115433e-01
7.133876943251754588e-01
7.713118546156566557e-01
8.696456676497208438e-01
9.825700101859201618e-01
1.032027782185226394e+00
1.092024110921144597e+00
1.043075121034479080e+00
1.007986786177658356e+00
1.055628175500507249e+00
1.047094234110832911e+00
1.020453888027186506e+00
9.660957489942700871e-01
8.799578202783685521e-01
8.115201868211988634e-01
7.050104409047491805e-01
6.628794174187728760e-01
5.451210896295296537e-01
5.159894552298636139e-01
4.026026540880272564e-01
3.320028135561810534e-01
3.076694341647767672e-01
2.329219484310878774e-01
2.134286306588568105e-01
1.434501001995388270e-01
1.124368515320752077e-01
1.543384159975096925e-01
9.257408574847583727e-02
1.037244072950625762e-01
1.150001966823558514e-01
1.243860468752320814e-01
8.834595678506641792e-02
4.383613981199631360e-02
1.051953015661881846e-01
1.161660296862239150e-01
1.011608662600188557e-01
9.489275642759370522e-02
1.368373944862993352e-01
1.422151826217208925e-01
1.259491471871312662e-01
1.575641303456032372e-01
1.682138126058911609e-01
1.168390693353013599e-01
1.427844714439061580e-01
1.244832322045218986e-01
1.131666932536814635e-01
1.571397400155660762e-01
1.850125376719976289e-01
1.825573227722778746e-01
1.861139354030675042e-01
2.277834695196978565e-01
1.533090489520520794e-01
2.305564176212029914e-01
1.945971287293645213e-01
2.535443984461993594e-01
1.953099435590348876e-01
2.365144682066831483e-01
2.244047741247468253e-01
2.581152575766825219e-01
2.401798872619879954e-01
2.506620960018935418e-01
2.801000686376363680e-01
2.186413173428424506e-01
2.763047592894390392e-01
2.654345906861277915e-01
2.692577704852633924e-01
2.845761540028205472e-01
2.779562763276508530e-01
2.998960466256984647e-01
3.055593847931808438e-01
2.794720455320258701e-01
2.851273942964266395e-01
2.696965171340937051e-01
2.801668415976515392e-01
2.217697436311225900e-01
2.886551274614344575e-01
2.996772237313838905e-01
3.028138255475358309e-01
2.682275430253853732e-01
2.843503665292588245e-01
3.330948275309608131e-01
2.681547588846572849e-01
2.447104346364139538e-01
2.658664199892925573e-01
2.745037627680037007e-01
2.800838140448556057e-01
2.386263759250220606e-01
2.510121965250931009e-01
2.765123519363767990e-01
2.311754187728910226e-01
2.337810855912016983e-01
2.795096725429155882e-01
2.119220323847889054e-01
1.955228191868620125e-01
1.672550567163030300e-01
1.872831230250579793e-01
1.845735365934699779e-01
2.310101246488085458e-01
2.105196902028812767e-01
2.406312793870656330e-01
1.188733394713598346e-01
9.875769256790781214e-02
1.370362929087714232e-01
1.072176197393358010e-01
1.244201656263103917e-01
1.227475037677700498e-01
1.497114998780638140e-01
1.462517499866947124e-01
7.072398298886978241e-02
1.125399101296973847e-01
8.698406690513865724e-02
9.033666855279043340e-02
9.332352501014187784e-02
9.782910834829718072e-02
9.185600665644030882e-02
9.332641415810466468e-02
6.778419911126359887e-02
4.702835121254152206e-02
3.355474082814484393e-02
1.020902975976473864e-01
9.019078713061867703e-02
8.649510282627810576e-02
8.223608744189933595e-02
5.572793294238740508e-02
4.614879328254842261e-02
5.664935101712457316e-02
8.373682591233230776e-02
6.237760479668069680e-02
6.673506845906386487e-02
5.569408390858182623e-02
4.301476878947066429e-02
2.807585805582862859e-02
-2.085291649687311122e-02
7.986415910049693423e-02
4.012577043922800624e-02
3.122513608692538412e-02
3.276588689330400817e-02
5.333955249551518979e-02
1.204482337428474520e-02
-2.575394581194712096e-03
4.639101493868322268e-02
4.549886666737781166e-02
7.771868374574113225e-02
4.048995795425101157e-02
1.131283061284950320e-01
1.895043585932637900e-02
3.112132528936357653e-02
8.418006314051197647e-02
4.399574161803779249e-02
8.684334006105796921e-02
8.662201399185238959e-02
5.494382125890544255e-02
2.936356067709876977e-02
7.234538374109726611e-02
8.732328740866948658e-03
4.158654682771623090e-02
5.364044776801704661e-02
6.715397820691712538e-02
4.254841057170895974e-02
5.168503090144860312e-02
5.885275607912558021e-02
4.190540934350048263e-02
3.678700427714949595e-02
5.551438908881469597e-02
9.014242901403105024e-02
7.731704636844231870e-02
1.792625553689190798e-03
3.574640096670159140e-02
2.722104369859755166e-02
5.139621813973828390e-02
7.224755273071542527e-02
1.277115133881154829e-01
9.963444655864706068e-02
8.012860906693940188e-02
2.168448814160649912e-02
4.435129085405540433e-02
7.728614755945287240e-02
6.446778088814483776e-02
7.896374145787871113e-02
1.051147631249766401e-01
6.479184327141809807e-02
8.390421740598755229e-02
7.286589729357237366e-02
9.847926908024320913e-02
1.148539321670330460e-01
6.892187301955715606e-02
4.702710208587718849e-02
1.531300887974574310e-01
1.376567674203162672e-01
1.204865447504804843e-01
1.182828911882996548e-01
1.859088718020203423e-01
1.840665871883528093e-01
1.375527231688823959e-01
1.254497908795871031e-01
1.880882557890807549e-01
1.199955125439148840e-01
1.471358849575133965e-01
1.595899579822203651e-01
1.744177099990844304e-01
1.944151284440162331e-01
1.457952839525246680e-01
1.646463034426348948e-01
1.797320115204726065e-01
2.521673609053094456e-01
2.071582967245132190e-01
1.933491733272859614e-01
2.125412270149205640e-01
1.494178868336997479e-01
1.950155299328426850e-01
2.167930503093245531e-01
1.597164182363862706e-01
2.211489023423898193e-01
1.587921938601124516e-01
1.901312525736727765e-01
1.900067723056518276e-01
1.664497831446658249e-01
1.595113334627960011e-01
1.705598282394133469e-01
1.908871289046779329e-01
1.874174146540292796e-01
1.591996024247336050e-01
1.344763296534357000e-01
1.557934691119857995e-01
1.369713635628975745e-01
1.138310915284501262e-01
1.453832879210350815e-01
2.245593267994175357e-01
2.079945684679923301e-01
2.436675253508774341e-01
3.401277397445724437e-01
3.597231463338362856e-01
4.004725696064992402e-01
4.264733081176095286e-01
5.167827926941781502e-01
6.152750448358419444e-01
6.763106457168460706e-01
7.572982437643621667e-01
8.226644707652275290e-01
9.593199512186267874e-01
9.222985600804907147e-01
1.027334432280655019e+00
1.115634522941284956e+00
1.086935550949800211e+00
1.131745192994211058e+00
1.056682415292580890e+00
1.007369071918633230e+00
9.783587764851409130e-01
9.243894346847780774e-01
8.885126791365316468e-01
8.728720407620906840e-01
7.286026413965726034e-01
6.953872865009652626e-01
4.950276997967936188e-01
5.191866228492489910e-01
4.446645957062785315e-01
3.192902097829651842e-01
3.193171462042966313e-01
2.372126268697773432e-01
1.994233349344993744e-01
1.449939712707579154e-01
1.296209838641249334e-01
1.071858234103361951e-01
1.122551073716222536e-01
1.212200260996593726e-01
1.356462266293280983e-01
1.299191215476703520e-01
7.244150726352277525e-02
1.232189340439055480e-01
1.119755716710233440e-01
1.494853134290738683e-01
1.309808575217808191e-01
1.414095115166512928e-01
1.515164073601143468e-01
8.809008222708800129e-02
1.481922025410487009e-01
1.395524150833245547e-01
1.590707714640441917e-01
1.080969974714158510e-01
2.159105517474405878e-01
1.687249837582513456e-01
2.124195935395937485e-01
1.346476412848938708e-01
1.962325804511495242e-01
2.299543864978569607e-01
2.190722960479229153e-01
2.421540411349142052e-01
2.398529018288604042e-01
1.943203451023560457e-01
2.535845833787952475e-01
2.429402259190205915e-01
2.266949089412646501e-01
2.173521652198473486e-01
2.387405441344751522e-01
2.648514561275462365e-01
2.307430007038495934e-01
2.418005235816000908e-01
2.837040133611337667e-01
2.856348169890838840e-01
2.579543881953579310e-01
3.257438627627418093e-01
3.084420908451479537e-01
3.423772653165993995e-01
2.746067553431494335e-01
3.399867052771226028e-01
2.459336098914427782e-01
3.734595802231245321e-01
2.924087282042373559e-01
2.573031141518543063e-01
2.388924756838973762e-01
2.918532871409481588e-01
2.954178880928263196e-01
2.815852570064015237e-01
2.931771936977962123e-01
3.008306134365350548e-01
2.427391705312513803e-01
2.340012313655321363e-01
2.427528044462829993e-01
2.732880437042180533e-01
2.412071137201016457e-01
2.910747746040862061e-01
2.436885512919157448e-01
2.489794367640026374e-01
1.664626890145830262e-01
2.018005256243119161e-01
2.321502939616178485e-01
2.032797910801985020e-01
1.594890632860376245e-01
2.186316597771514880e-01
1.730784346770128934e-01
1.741675126053748857e-01
1.862956729976396053e-01
1.749630281562528922e-01
1.266541680416912730e-01
1.580039746564887992e-01
1.524929198561301158e-01
1.107861062781351769e-01
1.620943116173625131e-01
1.642222350974522072e-01
1.080617187453448286e-01
1.042813629671154874e-01
1.560285533622282339e-01
1.053375419802108082e-01
1.413043084456352405e-01
1.684904365006685834e-01
9.066556591709673540e-02
1.048506699840923984e-01
1.197806686436606594e-01
1.058873086741934089e-01
4.572722821530533083e-02
5.640016998310398710e-02
5.737104838330368828e-02
8.321703823146882339e-02
8.226599840722330359e-02
6.403181177533466550e-02
7.489978532191304827e-02
5.713323229158556726e-02
5.100252037212667927e-02
1.203755515675664772e-02
6.513074151870167083e-02
4.891150868590010692e-02
5.621586699559157768e-02
1.062189859268572456e-01
6.300492120268769147e-02
3.257829284500073780e-02
1.690881825395613991e-02
6.334669639594346646e-02
4.639190699758165282e-02
7.731418136448572898e-02
6.850657996327641497e-02
6.851222345320351348e-02
1.705310217982921803e-02
7.090463223072276944e-02
2.622365188342107301e-02
6.458799061195452662e-02
6.758377309901883456e-02
7.551119313256830778e-02
1.314123951519645742e-02
2.484363255702868450e-03
4.174723752025460977e-03
1.851952406874658036e-02
1.602352695700691790e-02
7.328625402141086820e-02
6.535949594479990854e-02
1.788607968155788569e-02
2.873228468112630149e-02
7.917492639403424237e-02
1.647533377075588099e-02
3.820417066369940357e-02
-7.104466127030757694e-03
3.127217809812923160e-02
4.588694233900600383e-02
2.879784422523028881e-02
4.959701158330526161e-02
1.488102384971125985e-02
3.552908557006571877e-02
4.747958836506301072e-02
2.361888059395780143e-02
5.228368416660537921e-02
2.010348720988631641e-02
7.920896667551682868e-02
2.923120899920381155e-02
-1.250294200651615173e-02
5.828374376666194817e-02
5.558238010937688323e-02
6.568099124492987606e-02
3.269371963369598066e-02
5.215413245152313026e-02
3.863197909025235799e-02
2.273587824097536569e-02
3.572831939020373881e-03
6.793976241011312478e-02
2.973217451093325067e-02
6.131077504089392505e-02
4.446026865238884157e-02
8.663618326264180269e-02
4.017378744368990673e-02
8.024309534359856666e-02
5.561247587119500652e-02
1.057533821155187959e-01
4.774042256502381010e-02
1.236061133812807328e-01
6.226753433943230109e-02
9.965843834931401024e-02
9.116296406589755041e-02
6.252557379226733603e-02
1.515306871063316907e-02
9.946044000949026687e-02
7.190987966863610081e-02
7.942644391954309380e-02
1.908249918988542959e-01
1.349102023407012518e-01
9.312958996384131105e-02
1.640347877725336634e-01
1.730723561843839076e-01
1.464041254261231884e-01
1.642246275276754430e-01
1.681546019786897550e-01
2.093459802311613549e-01
1.687608877439436272e-01
1.478354393812776613e-01
1.168968227099704965e-01
1.780739596261505797e-01
1.709265575523893077e-01
1.417368304297383919e-01
2.101125100822503755e-01
1.306502328568628912e-01
1.198218094975229964e-01
1.568659446593596019e-01
1.866087980611772779e-01
2.037455250144953878e-01
1.664676664330163869e-01
1.426301409184193569e-01
1.617759070305025138e-01
1.443688708887271854e-01
1.176695831572135698e-01
1.710754223554199482e-01
8.958237033666063831e-02
9.787507034247039384e-02
1.351503092154230090e-01
8.924141314575764761e-02
1.071419715360541064e-01
1.180554687561372468e-01
8.998182093734283238e-02
1.459304368209016212e-01
2.143828487057460042e-01
2.252071421849411448e-01
3.088757872992404785e-01
3.692712473953058128e-01
4.126165610426932862e-01
4.496964881501064881e-01
5.484425893506091887e-01
6.473191309790183867e-01
7.187226160730265656e-01
7.435933203302130812e-01
9.006897165180763887e-01
9.653478870208967999e-01
9.893777194886609339e-01
1.021684459503192643e+00
1.031818361852461896e+00
1.052812371349773679e+00
1.018861696170057174e+00
9.615502266864959235e-01
9.361956202573992192e-01
8.903569118557104201e-01
8.336887595588571287e-01
7.967312347490924651e-01
6.192090117461820364e-01
5.810766713276371842e-01
4.752902857290519090e-01
4.768343506474734261e-01
3.794412977014694488e-01
2.746924503945327167e-01
2.633964283107785853e-01
2.291610023726040335e-01
1.990809376056435487e-01
1.550001931149397882e-01
1.634337816828915768e-01
7.584186850378626943e-02
1.645688503085305510e-01
1.335907838139363257e-01
8.998519632607421270e-02
3.194423790112571604e-02
1.865428880895717706e-02
2.872096932268340674e-02
1.230205103455165178e-01
6.698112950049420200e-02
6.975379315627823484e-02
4.360614607479754851e-02
8.822937649946668848e-02
1.027185187870492122e-01
1.366698053591933470e-01
8.387610161695016608e-02
6.096681830074002217e-02
4.992111847115185408e-02
1.349184229210673158e-01
1.140993672964903394e-01
1.024659734888939550e-01
1.616698585964141954e-01
1.692006224484653154e-01
1.904357826365042083e-01
1.714378797912011754e-01
1.723716601548392902e-01
2.048054584161270453e-01
1.883680207719619359e-01
2.366502071871127988e-01
1.896320155705755461e-01
1.740944947343546212e-01
2.378355098990565519e-01
2.242100782529227454e-01
1.927173344499520935e-01
2.604059061540423547e-01
2.044646443796652724e-01
2.234287979324039997e-01
1.746933397265980070e-01
2.746796467773601202e-01
2.586777674515373104e-01
2.637329128888106222e-01
2.395845827837723707e-01
2.606593596265250889e-01
2.662609009945008931e-01
2.746269020885716561e-01
2.318341606084199091e-01
2.423513249436508310e-01
2.021692149097688018e-01
2.766702357303003068e-01
2.308787421095416237e-01
2.121933190190926632e-01
2.205025849020837703e-01
1.953692338447876042e-01
2.125074341618015672e-01
2.180829635608953765e-01
2.547000944632402120e-01
1.687973872023998123e-01
2.280545720446104652e-01
2.193875246795893019e-01
2.323214794111402859e-01
1.837848676622079180e-01
1.790516011496828264e-01
1.460150941055953500e-01
1.798846845622877610e-01
1.871924368760782553e-01
1.747061725513397723e-01
1.729380018822571086e-01
1.465180002744987664e-01
1.051980258434992987e-01
8.687429530954110524e-02
9.423463462693366932e-02
1.303840853510145892e-01
8.241952258503383588e-02
1.400935268333600159e-01
8.468905206219690118e-02
1.393864893960529427e-01
1.690082649021393268e-02
5.377066538819676167e-02
1.784531961814088755e-02
7.346758961752072881e-02
4.081257230190407648e-02
1.046614911571646343e-02
7.531887447782931178e-02
5.938881863102747627e-02
8.332255571177372977e-02
-2.518199399292365970e-02
2.202960710635856745e-02
8.744644469021359279e-02
1.012489394748932736e-01
6.024891077019452201e-02
2.993982906882412462e-02
5.078240805921325346e-02
2.075206624319936299e-02
3.358163824044792245e-02
-5.433439772609271676e-03
-9.541134060727166077e-03
-4.811223066450315278e-02
-8.493805082812255422e-03
-7.383191825757223770e-03
3.499964776965444613e-03
6.348976240148067329e-02
-1.187605616547165663e-02
-6.404783697701708911e-02
-2.735003852747340536e-02
1.218120067774669524e-02
4.183264597124861095e-02
2.919337244629592598e-02
8.779291555630407834e-03
-1.268347440317479924e-02
-1.405644833316561926e-02
5.585907832944979334e-02
-3.732327776669590313e-03
-3.457262344244796393e-02
-3.121496432751843381e-02
-6.454313526820479319e-02
-5.556762537920590522e-02
-1.941963047420744090e-02
3.195504987834943411e-02
-2.320440863538731496e-02
-4.283971156363537702e-02
-2.035005022393835197e-02
-9.972521509189584410e-04
-6.832892586726607709e-02
-6.259659915690857224e-02
8.637867711263479131e-03
-5.875226364987840011e-02
-7.673980262053836654e-02
-6.876779114502451495e-02
-4.333444660644367175e-02
1.679069102158371740e-02
-6.918162677500072633e-02
5.978112058939027973e-04
-5.920458202732888781e-02
-3.872419046718231228e-02
-3.571506796143682910e-02
-2.888577545604245622e-02
-4.192302835694157459e-02
-5.205445908690791573e-02
1.851960865731213518e-02
-7.855831567743837285e-02
-1.218014854044548005e-02
1.913861356964513191e-02
-3.500305743796248981e-02
1.446630390107359054e-02
1.849308065086326808e-02
-1.307119747106532878e-02
-8.258138035584533521e-03
-5.451490815717410787e-02
-4.707327348411009110e-02
-3.157020116901403106e-02
-6.191722437495252029e-02
5.644366671305316857e-02
-9.105940444558206087e-03
-2.869706291709327173e-02
5.006586507209324910e-02
2.570776637221593164e-02
4.409324845285914063e-02
2.239762662771017238e-02
4.951247926003515820e-02
2.362964646030609600e-03
7.994132953212847170e-02
-2.227927067360824243e-02
2.385871315539661586e-03
8.891207374950492459e-02
6.013148420864385807e-02
5.464036330772482908e-02
1.734723025075034925e-02
6.006481638625254388e-02
5.773797157460156676e-02
3.889986260860782419e-02
1.220611753732483706e-01
1.251517440781386437e-01
8.073605177017879886e-02
1.300402216970074076e-01
6.342651126108336812e-02
9.667131697597411422e-02
1.422837197957758926e-01
1.662364170019619003e-01
1.153128271460474863e-01
1.487088822317621239e-01
1.021022116364674048e-01
1.325482196309412941e-01
1.399887144012107176e-01
1.359757422519561887e-01
1.134318335190575844e-01
9.082666739547226586e-02
7.758610897910428461e-02
7.504036387783699635e-02
1.338256978132338904e-01
1.103116179266944996e-01
1.456055984217664856e-01
9.049483714922487709e-02
1.061777356918094800e-01
1.391913957981405492e-01
5.129963320392311177e-02
1.063664286125667879e-01
6.756852129474483215e-02
6.126780832054503495e-02
3.951978304650663465e-02
5.741392207896562488e-02
7.116350164389884103e-02
8.785726621074826936e-02
2.057139487647891563e-01
1.309863421555532703e-01
1.331586916003459353e-01
1.990391785762797294e-01
2.846424016000137502e-01
3.248757863576046123e-01
3.417698092985450575e-01
4.245380650616201734e-01
4.309896536956169255e-01
5.974398714145795486e-01
7.409912221118900577e-01
7.296494399526204377e-01
8.903662347257919052e-01
8.918520732232113613e-01
9.877275865410152234e-01
9.574732880986762673e-01
1.030991457494917052e+00
1.003967505265944249e+00
9.453365359284086056e-01
9.226666165949504173e-01
8.937129087298193442e-01
8.577955721187042748e-01
7.420182056619243349e-01
7.315027743208082356e-01
6.248161661323098359e-01
5.360960758477676391e-01
3.667341210500246196e-01
3.905469733254521847e-01
3.174295515869773321e-01
2.727758892369675503e-01
1.949188557817438383e-01
1.611086695706728245e-01
1.136603379902144939e-01
9.897226047553028816e-02
3.177834454257010000e-02
-5.437281903951124429e-03
-2.456765921582740320e-03
4.197963930821613232e-02
3.837711482396859164e-03
2.494888228199679259e-02
-1.064749666872388811e-02
1.707133488901490387e-02
7.489237155368039245e-02
6.403073234864027630e-02
1.774827946601992279e-02
6.076830027090520531e-02
3.100809094961688023e-02
1.207424496099428896e-02
6.667908135776542955e-02
5.467419780898099407e-02
6.493562046620390826e-02
4.503514512769472844e-02
5.833852641988377524e-02
8.267868406769768308e-02
7.530930777223709960e-02
1.465627412520013884e-01
8.055928032733794542e-02
1.082258562034709715e-01
8.499716358908573910e-02
7.874635313644641477e-02
1.040502499520251645e-01
1.056227221496139068e-01
1.234546893885783148e-01
1.184371278841904046e-01
1.601967402605736501e-01
1.781293888455423025e-01
1.141610768363555684e-01
1.621050695562368527e-01
1.169776883075545060e-01
1.659150046907320319e-01
1.779137916616281290e-01
1.750369226099447451e-01
2.040530892736708846e-01
1.603739215338231272e-01
2.039669345903116493e-01
2.254113734957100545e-01
2.038003597514517484e-01
1.980127370022313205e-01
1.816217612786401037e-01
2.056230597277813876e-01
1.600918235657930178e-01
1.707987784543561482e-01
1.984259328641543307e-01
2.040489825348381081e-01
2.099581981965972233e-01
1.896662555128320604e-01
2.198426145502954954e-01
2.160955832637961593e-01
1.730912909418325096e-01
1.640984577494878638e-01
1.375903172086571369e-01
1.657474576528261134e-01
1.695719903574731680e-01
1.319235626952403595e-01
1.427569614186770530e-01
1.818307234689868768e-01
1.199076760684832654e-01
1.476847095221124895e-01
1.408912434527982427e-01
1.075519620681083671e-01
1.568728949593413413e-01
7.580925311400740774e-02
6.615635370422098815e-02
9.393920761415872067e-02
7.117122910252018930e-02
-2.558883083731160885e-02
4.693882935291972258e-02
8.610876224429711567e-02
2.818581164009313633e-02
7.145565826959443534e-02
6.904852914603226699e-02
5.878323864095220258e-02
-1.018212590928846417e-02
1.485725035704450053e-02
-1.211568156968073628e-03
5.530020548760491289e-02
3.600479314961581301e-02
8.679790221383126836e-03
4.666156938843398633e-02
7.830627777106416443e-02
-3.690407501685567804e-02
-6.237614842935375326e-02
1.589934467529186685e-02
-2.354865772527086482e-02
-1.582445042266930613e-02
-5.452939870375530379e-02
-5.232437473997036959e-02
-1.205105119530007485e-02
-5.329278499875630959e-02
-1.277831923650436796e-02
2.043288475947444699e-02
5.070652051481147615e-03
-1.968986158752115967e-02
-4.491006870515679150e-03
-7.254814879708958164e-02
-3.443296320491667784e-02
-5.204399113903569740e-02
-5.926659746465544332e-02
7.492373121852510809e-03
6.180529684017457837e-03
-5.358501971183022433e-02
-6.178110029573369993e-02
-3.463440733753928719e-02
-4.960271689536501633e-02
-3.493974209570789580e-02
-3.711148797095028401e-02
-1.601912201390495727e-02
-3.125508599316227654e-02
1.831263270539312815e-03
-8.896468656721118196e-02
-4.140830891361906019e-02
-6.519119631927780545e-02
-1.206652883741792109e-01
-9.575920932163274613e-02
-1.248401927965061692e-01
-5.127170840468080193e-02
2.920808292071266909e-03
-4.502328272856670477e-02
-2.509932808498259796e-02
-4.419590357251235169e-02
-7.178873274549286976e-02
-7.328821027072543459e-02
-3.208705806536988475e-02
-5.080843478811108288e-02
-4.966755683186873521e-02
-4.787760054779222063e-02
-2.974827176453516062e-02
-1.866553025347980968e-02
-6.176312001142589270e-02
-4.797948493698041966e-02
-7.160157658552293580e-02
-6.904672342322312750e-02
-5.230359833928030500e-02
-4.217021280633040381e-02
-7.548364826435743913e-02
-5.214160913318228313e-02
-2.632025443399066411e-02
-7.943628461565634125e-03
-1.327936867832525403e-01
-5.076666267710597258e-03
-6.057482662168450771e-02
-8.248780833826110936e-02
-5.790554110197509291e-02
-4.054184701677668312e-02
-7.460636047844949881e-02
-7.289427820493818433e-02
-2.161748908916555009e-02
-3.480923211773759296e-02
4.529589454728771836e-02
-4.769251610900308164e-02
5.062833598595350981e-02
-3.620144979018940362e-02
-3.231192861881072853e-02
-1.601865435168578489e-02
-4.546708557877607304e-02
-7.445217055643424398e-03
2.971149858866581339e-04
7.502322857317031413e-02
3.419706998349153482e-02
4.992807263836206155e-02
3.496265781407303930e-02
4.437413850782019609e-02
7.932172155513214640e-02
6.767499320483118253e-02
4.966822489309644095e-02
4.800256913839526934e-02
3.660648194641656639e-02
6.401840773689938813e-02
1.361366015309365962e-01
6.091843738037223954e-02
9.341883774576473232e-02
1.110383314360035290e-01
8.180223798954375236e-02
1.532297584489012432e-01
1.069747371276494330e-01
1.018791924591571085e-01
1.281392844726922386e-01
7.589057642636162782e-02
9.746181991083732732e-02
8.238557241754781990e-02
1.658236691317155898e-01
1.491607475823528983e-01
1.175993422795942878e-01
8.746095958684652061e-02
9.964300502424691675e-02
9.906661643883565849e-02
1.125928106600487810e-01
8.745208240499083296e-02
-1.974367898918466535e-02
4.872116923840866948e-02
7.766268205382650947e-02
4.856195883647324019e-02
9.474464183226158354e-02
2.231140619682133591e-02
8.759150757139119725e-02
1.411003251243537482e-01
1.328334959567206153e-01
1.498154587878371968e-01
1.500680281088636603e-01
2.501479481156295703e-01
2.169417225450023246e-01
3.257663595547009017e-01
3.509441819386591721e-01
4.153230550459036663e-01
5.416077941058632383e-01
6.164618887179738049e-01
6.871676038982874601e-01
7.674457274674361118e-01
8.106254613334653580e-01
9.283237874463672323e-01
9.517361043192306136e-01
1.066984815818245558e+00
1.035695939315881553e+00
1.006601296211787622e+00
9.727985080585632716e-01
9.351444591968406383e-01
8.972415006042897545e-01
9.101834087092369741e-01
7.537517599515118905e-01
6.637548798282379980e-01
5.713550338147233010e-01
4.956286389649304791e-01
4.138848881965606075e-01
3.989733000123046880e-01
2.824912067064352938e-01
2.705792870715208465e-01
2.413070483763071483e-01
1.260882004951981994e-01
1.103369386407885566e-01
7.831450018165307669e-02
8.124198219606729165e-02
7.332795036383032983e-02
-8.911180239606769637e-03
-1.135987168489280275e-02
4.013297650792453652e-02
5.716546900542973653e-02
6.401291185151629370e-02
1.623748420040481422e-02
7.291527940140998809e-03
1.929075421439076926e-02
2.934806230417202205e-02
1.044861870237202145e-02
3.986742272035391499e-02
9.467943680347259972e-02
2.885163612345184592e-03
6.739882788234279054e-02
8.074133968668292805e-02
1.198966247192131684e-01
6.604565889557423297e-02
1.669518492771799589e-01
7.365031331793560343e-02
1.124842160727682200e-01
8.125277153009524689e-02
9.593159635133141627e-02
1.416301427304628158e-01
1.396124603801230379e-01
1.530604719032213901e-01
1.163464475762594902e-01
2.019237215044742129e-01
1.713431628305508991e-01
1.659901377709275261e-01
1.810291527004750378e-01
2.125885675338531899e-01
1.564944321532693583e-01
1.594317632029398912e-01
1.745828893012158489e-01
1.056451253484001346e-01
1.549570310664740713e-01
1.667999079450126487e-01
2.066961757581273762e-01
1.956577070567391829e-01
2.482156351457609211e-01
2.122200822032182521e-01
2.041219515270612794e-01
1.978112310816532993e-01
2.716798116751222847e-01
1.956144785402420538e-01
2.220901986135892237e-01
2.311284575841663358e-01
2.173609765133358573e-01
1.666700233746992166e-01
2.491011086541123909e-01
1.943576056095668303e-01
1.524295373716202939e-01
2.048941696586823180e-01
2.455316949307397301e-01
1.440458884954520236e-01
1.918039052161447100e-01
1.727699853422295928e-01
1.540762094419346195e-01
1.279440522055892981e-01
1.766977092083960310e-01
1.631031086089775040e-01
1.439139356776032164e-01
1.597812526735321592e-01
1.502918423555149596e-01
1.076717625394292138e-01
1.080584109048434160e-01
6.010778870363239768e-02
1.084337933157006606e-01
1.405004227346831613e-01
7.439301545563339890e-02
1.077055876008257834e-01
1.083542907857358989e-01
1.291237344601159631e-01
9.039491204098010213e-02
8.085063550680406108e-02
1.139810847045583386e-01
8.515770132055137942e-02
7.525973918882458702e-02
8.811239950341557409e-03
1.951003895211831513e-02
6.763733591240002341e-02
4.207313288121349720e-02
5.162796059562856088e-02
6.084745252419997141e-02
-1.111030908735734929e-03
6.260432954805077166e-02
1.011520544973713506e-02
-1.869777301390861471e-02
7.891537890114652676e-03
-6.645204068559843608e-03
1.197884159913096755e-02
2.428186256961345491e-02
-3.879509150291649694e-02
-2.196880404032863082e-02
2.704374259840916159e-02
8.658479676892091165e-03
1.141248816823263804e-02
-6.526044984008914224e-03
4.640881313173069594e-02
-8.694840529427025344e-05
-4.034777372482870744e-02
-5.963658501512500085e-03
-6.029138243383798390e-02
-1.049188792181784402e-01
-1.371490778625511497e-02
-4.426322876128130357e-02
1.760516993008320180e-02
1.135639946188506458e-02
2.868517186687683657e-02
-1.732566924001973513e-02
-1.818613739592532530e-02
-3.331786803068116642e-02
-5.279675667524933586e-02
-6.660279693388475308e-02
-3.093570135742933214e-02
-4.541706159028149545e-03
-5.337449368449133369e-04
-1.008092374797013233e-03
-8.636326618891587009e-03
-1.341108263882674970e-02
-3.000385695302683342e-02
-4.053699418352018843e-03
