1.168347260597841775e+00
1.185084018830896646e+00
1.125282883055392702e+00
1.087686251192091946e+00
1.038883343970738116e+00
9.731777039965268106e-01
8.291116422856631418e-01
8.015286978476798829e-01
6.775145843249787969e-01
5.787816849135292152e-01
4.769046288054621940e-01
4.122826501117052844e-01
3.047850414222672555e-01
2.820233902577327090e-01
2.087922261424463577e-01
1.792921312557763935e-01
1.591201661947383161e-01
9.098743142351196911e-02
1.413399499309719587e-01
8.270690503492192369e-02
2.863067016198806575e-02
2.346556926687592623e-02
5.969987497046195385e-02
5.904133185760840341e-02
-3.312741796680059025e-02
6.940077644692652092e-02
5.935139994759798532e-02
5.648168042323313542e-02
8.601884111213685402e-02
4.359507428285068487e-02
1.615407852242445319e-01
8.401053487317261537e-02
1.131370098576837679e-01
7.926449140458204090e-02
1.184092809137468477e-01
8.127671492350051208e-02
5.124078777526271111e-02
8.956303401073339998e-02
1.289671407718303575e-01
1.151365179512233300e-01
1.556999424444353852e-01
1.232637098075827775e-01
1.419152631285216237e-01
1.744609459739482060e-01
2.043708887415657816e-01
1.709721256962692670e-01
2.054888783643879224e-01
1.435178666529089986e-01
1.816831194440470809e-01
1.932168320396305539e-01
1.893371557845791864e-01
1.974894177484859126e-01
1.773336108781938258e-01
2.349348287413565994e-01
2.232783351252740633e-01
2.197735676315057118e-01
2.396298999094065851e-01
2.959526949340515745e-01
2.883481152718275764e-01
2.260629119136645104e-01
1.988665886178356823e-01
2.593013279174524732e-01
2.539301693984349906e-01
2.717616296527122222e-01
2.408478941876526502e-01
2.553917764528501610e-01
2.368887109245658706e-01
1.859934597754054619e-01
2.024366018424539893e-01
2.428513630735891771e-01
2.676814062337661837e-01
2.457574723935155858e-01
2.365447990359397512e-01
2.181045520498579027e-01
2.253859719574182463e-01
2.317838982565852135e-01
2.286632077910514538e-01
2.279748030394381508e-01
2.120405932869028343e-01
2.419205405796390762e-01
1.784767303393619553e-01
1.582291615060230361e-01
1.784039241351772775e-01
1.414982426965808449e-01
1.412961836051275510e-01
1.467602176082513921e-01
1.383416815978588676e-01
1.523810110476992441e-01
1.677997774564010391e-01
1.277874791733510096e-01
1.051743255447260134e-01
1.394971111760913707e-01
1.016711150557355336e-01
7.813082834317468250e-02
1.543994654754955731e-01
6.488583689391977383e-02
1.122422264411334358e-01
1.079743258227547076e-01
5.610960746066887689e-02
8.327938045646671172e-02
1.073031109943408390e-01
5.723942511002949596e-02
9.173926946789774661e-02
2.905711606663992710e-02
1.090023129755606501e-01
-1.310521262682327881e-02
6.066836961238016024e-02
5.746142004991593166e-02
6.879380778991278644e-02
6.043554225361114779e-02
3.215956085762590455e-02
2.660014273168861271e-02
1.560017052348750682e-02
-3.437169892746436139e-03
-1.408450630251735503e-02
-3.228139319267415985e-02
5.229576465104141675e-02
1.193283435282402327e-01
2.685746948715005133e-02
-4.723824936926277612e-03
1.235522651665984205e-02
6.220664374670291374e-02
6.180354146070551891e-02
5.412554342266395757e-02
1.857582711182394555e-02
6.294882692429333571e-02
-3.226947455304483153e-02
2.998119819253566160e-02
-3.936504684803761311e-02
6.573436459961097544e-02
-3.505518693489566295e-02
7.096141527226946383e-03
-3.625255117581398234e-02
-3.514202703846437681e-02
3.404630496501293707e-02
1.789084793475334209e-02
4.979074408047848982e-03
6.194887684711004872e-02
9.138742248923146030e-03
3.094396574319996027e-02
-3.133824769356464285e-03
4.160725032270846946e-02
4.236334106529571208e-03
3.332590291534089089e-02
4.177463514914347975e-02
7.680420756547701178e-02
3.070309542306111361e-02
2.311252847663708421e-02
2.905140337437120412e-03
3.556737744882551566e-02
9.893388186350531716e-03
-4.274807849957470984e-02
4.172600802862502789e-02
5.848980287305595438e-02
1.989679574816343582e-02
-3.071213901657728410e-02
6.301145125089079035e-03
-9.091702176144685760e-03
3.903892834959320907e-02
-1.777031924305834051e-02
7.833807094047992581e-02
6.298240237298075028e-02
7.202144342186285464e-02
4.493350585086855475e-02
8.122095867041459472e-02
3.729384286320738817e-02
1.098444711892801115e-02
8.542706796766252886e-02
7.767863161931654048e-02
1.331643213442999241e-01
4.423724646785365949e-02
6.918534899063510935e-02
4.592082567076834210e-02
1.097568934373503030e-01
6.988972643171942334e-02
1.552953877815256289e-01
9.238545097998560052e-02
7.334733188352213218e-02
1.444038124674974222e-01
9.703368211798463205e-02
1.139119567938878391e-01
1.300315863759856638e-01
1.612738237534035723e-01
1.701140569567304306e-01
1.504751859245263557e-01
1.589588153921953906e-01
2.151149138681926476e-01
1.642910907533702836e-01
2.219354679300998834e-01
1.551450976362723777e-01
1.845362796968751662e-01
1.261405326268407734e-01
1.685467516423667100e-01
1.931159666246123341e-01
1.936986474011253567e-01
1.598775151314469622e-01
1.700673510547442147e-01
1.837351876154076913e-01
2.049028413791212366e-01
1.568969760607054897e-01
1.897319502091507348e-01
1.718112296176876053e-01
1.099822200758095447e-01
1.877763710882035531e-01
1.348877430411251910e-01
1.487207874299297239e-01
1.641704141505590797e-01
1.471369820138947460e-01
7.962662712682672117e-02
1.226280590814536609e-01
1.681524407742923388e-01
1.657676565792948753e-01
1.701443873680265617e-01
1.136977903745938767e-01
1.716517050452173732e-01
1.720596921521724554e-01
2.345853095203142280e-01
2.811244414370919764e-01
3.427120367730571160e-01
4.026783395542612998e-01
4.836701710983886682e-01
5.857170061753707024e-01
7.042558308339313955e-01
7.163003862360007856e-01
8.423931219235998302e-01
9.243568694215784642e-01
1.084676596172563734e+00
1.091896547300915010e+00
1.140284956152299412e+00
1.244286034055565038e+00
1.204018973655798463e+00
1.219341263499758021e+00
1.218965949066958210e+00
1.160811001979405788e+00
1.161858886196563301e+00
9.805316982707164009e-01
1.007890905067641452e+00
9.400631013693829807e-01
8.031661787849736500e-01
6.972689478722108314e-01
6.012082601840496032e-01
5.490198684514578931e-01
4.336754678054338674e-01
3.247388035147849572e-01
2.761832129623074117e-01
2.521639375248577730e-01
1.986655060185273658e-01
2.150523961286427421e-01
1.430091637390321635e-01
1.705450232300450009e-01
1.153934651460046118e-01
1.121789645583966960e-01
1.213729591630226257e-01
2.020449048588094515e-02
1.271922407514154973e-01
1.084748769747934383e-01
1.206697701530622668e-01
1.026759516771486580e-01
1.480799532203473934e-01
1.670886840073532442e-01
1.019009923867801176e-01
1.253252979003398049e-01
1.950878193351844314e-01
1.416574123573401955e-01
2.126400057721843373e-01
2.299824676188629846e-01
1.193998542908823179e-01
1.927154776251037427e-01
1.088698151381710388e-01
1.678086033057821780e-01
2.369822876560934710e-01
1.860468610104099030e-01
2.375595187604913061e-01
1.895333937692000870e-01
2.612305957246123245e-01
2.266475399344340114e-01
2.659494959004605752e-01
2.049388280137385554e-01
2.616889959682129896e-01
1.867234112316898675e-01
1.837855036975694911e-01
2.637694367336879120e-01
2.743288890855346551e-01
2.832834567968611772e-01
2.610729973244780844e-01
2.736539441797871675e-01
2.557946418280299117e-01
2.883894226548092687e-01
2.533242585459999363e-01
3.223273432740803024e-01
2.156021371278646903e-01
3.257659740808819815e-01
2.891027463729868852e-01
2.878425371967904267e-01
3.076894568732931878e-01
3.184113369476955779e-01
3.020340239813322780e-01
2.882373395649290293e-01
3.073375231555382503e-01
2.670764776515875960e-01
3.004080299658018482e-01
2.877269889883891096e-01
3.434135339334926096e-01
2.756253283457025249e-01
2.518528428123142926e-01
3.094620926264491922e-01
2.680477463160512719e-01
2.429944920056931745e-01
2.508210196098178413e-01
2.465723198863616350e-01
2.285876642969829897e-01
2.488325386246991733e-01
2.226814785851607970e-01
2.418663219159008504e-01
1.666587914228486733e-01
2.510670922993495924e-01
1.693638000556123013e-01
1.641448266517438748e-01
9.682775463790427306e-02
1.630965116738688492e-01
1.540210209544798370e-01
1.398295270083351194e-01
1.061844054693263095e-01
1.701444309573957592e-01
1.361913523387085212e-01
1.533434863928645198e-01
1.713164039692932905e-01
1.398003085361494979e-01
1.252994553136655975e-01
1.104133201924119984e-01
1.660266618006709938e-01
1.195288433264161815e-01
6.940730737437750264e-02
1.721080112539886686e-01
9.679789384668616159e-02
1.179664569667632223e-01
9.371008105715963876e-02
8.213812050234867157e-02
1.202268661840981134e-01
5.925764088729228857e-02
5.648554588772175533e-02
1.197283313342516198e-01
7.846900332227840780e-02
5.483272195806535021e-02
9.332569904041423947e-02
7.268918127643742011e-02
6.377090813407504388e-02
6.466106749620632865e-02
6.961118307530871074e-02
6.758274685410871341e-02
4.758779844402992454e-02
1.281510250525128847e-01
-5.786371370179038687e-03
5.727696170327470360e-02
1.157069666365180827e-01
4.526240838534417721e-02
1.496176811541261031e-02
5.643490230268683600e-02
6.613481792420523864e-02
7.998781617678678291e-02
6.269585348350943665e-02
2.179974299261067811e-02
5.184043390155287229e-02
4.729052574366390121e-02
6.416299757656623859e-02
3.720317588044151635e-02
4.444283834972584390e-03
5.956725591153891330e-02
6.358121426466953330e-02
9.860015153415238598e-02
6.899356544245563438e-02
5.299167437860596852e-02
6.261348704397887155e-02
4.629500411505065721e-02
6.088063536336080911e-02
5.321444099404183670e-02
2.074511288102160594e-02
6.208885834716273283e-02
-2.379579006106857797e-03
6.804554331149913204e-02
2.256868803006966892e-02
6.746841616042847933e-02
2.070447646164451025e-02
7.777094435905372583e-03
2.839217736596305608e-02
1.163767980518424783e-01
5.688668611510583339e-02
6.634058813685198008e-02
5.353478701184165994e-02
4.662418232129536544e-02
2.013768993291634862e-02
6.448375797980618329e-02
6.861443114626998574e-02
4.147456827739329221e-02
7.203543229952460991e-02
1.004846713921549450e-01
6.280283054414478872e-02
6.720434921572834841e-02
6.189439944898589285e-02
5.595369554441144422e-02
1.340770665611382417e-01
1.304443264945285841e-01
9.298618926169460730e-02
9.111786597044492508e-02
1.005076381625491511e-01
1.443034607407670256e-01
1.224052190506894622e-01
6.711232303695408019e-02
1.574499387575913900e-01
9.014598895782159615e-02
1.849669756906370810e-01
1.387384704076115582e-01
1.598194420795229498e-01
1.107821976568530153e-01
1.326014641855201015e-01
1.997436888155465218e-01
6.966395306308885427e-02
2.099149151536257030e-01
1.784704781269997043e-01
2.607181816218386849e-01
1.674615865845737184e-01
1.162064870797413357e-01
1.721632283978681843e-01
1.719658653602752496e-01
1.980019573574900160e-01
1.787052248883813921e-01
1.855794501618636405e-01
2.021793891903110874e-01
2.063176805601904806e-01
1.773498830270503202e-01
1.768087815320146805e-01
1.985861299739387076e-01
1.849601391835009601e-01
2.285632168392212060e-01
1.689423931479075436e-01
1.886595501704508848e-01
1.483551146367340923e-01
1.161562810978018917e-01
1.709892707293252379e-01
1.770054729624062906e-01
1.006089896078725676e-01
1.534612350830575345e-01
1.605326836082237585e-01
1.953201112561560038e-01
1.925606659522845487e-01
1.363038273832601621e-01
1.882013724157015344e-01
2.708604282154700171e-01
2.870586791355433931e-01
3.925499851098835924e-01
4.347828383974506883e-01
5.328748413654118554e-01
5.199909465791786589e-01
6.675129145623538429e-01
7.402876869658465697e-01
8.820814835037240620e-01
9.716781154712519353e-01
1.011674573281602374e+00
1.077087662112763189e+00
1.182506158539487151e+00
1.238038043694582369e+00
1.209205954089208390e+00
1.223030806927414504e+00
1.200672712288919142e+00
1.175054073177620007e+00
1.089919550137775861e+00
1.087644649531508856e+00
1.019960948366006370e+00
8.135801762637761003e-01
7.726176903271276819e-01
6.353041151853501267e-01
5.702751996268782264e-01
5.230199689570664834e-01
4.814192778177222576e-01
3.824119925729648761e-01
3.059618161692453375e-01
2.760696430890655639e-01
2.220162480701647345e-01
2.276535099321801703e-01
1.326299413349270317e-01
1.261183037680092545e-01
1.383430859546677660e-01
1.423143807028490471e-01
5.720595834470400959e-02
6.324039299660111357e-02
1.063660418731495749e-01
1.171832254727762923e-01
1.057370647458113488e-01
8.678619861859267204e-02
1.036582828946865514e-01
1.469049463733347327e-01
1.442837185289959356e-01
1.886960674407474059e-01
1.723323788504965981e-01
1.704828210101622943e-01
1.174873666618994617e-01
1.482209146365025265e-01
1.257075129153087389e-01
1.988225083022320538e-01
2.252422198537717135e-01
2.055140768283400809e-01
1.360504298424686787e-01
2.068127757966659597e-01
1.917689358666301025e-01
2.680975355231265955e-01
1.694408261673560623e-01
2.071168312958627522e-01
2.117124448523808600e-01
2.003568988681401764e-01
1.826713960549336546e-01
2.542542508891521558e-01
2.501816726248837774e-01
2.543892688790828638e-01
3.135731511134289828e-01
2.574681602802359470e-01
3.552850623297600374e-01
2.567776397032073832e-01
2.804606516525358639e-01
2.783556257866576789e-01
2.091013073535217814e-01
2.484912109366646804e-01
2.751749733141503063e-01
3.160890989393405626e-01
2.801101235385028421e-01
3.003574336388949995e-01
2.354177253498707933e-01
3.142553058825027779e-01
2.976808745549578417e-01
3.310390308860310382e-01
3.265745311819548413e-01
2.807338791955319990e-01
2.366124866373919555e-01
3.129865423547671388e-01
2.717191004048359892e-01
2.509500972755886461e-01
2.203718759215136380e-01
3.159018812453154856e-01
2.185392717525011519e-01
2.607855014567201923e-01
2.767935922831540330e-01
2.154685254149921181e-01
2.072092696794918532e-01
2.226547647323240953e-01
2.070654020866837808e-01
1.809583266166688020e-01
1.688851618501551466e-01
2.207235758440572182e-01
2.018543406746832192e-01
2.025386551549692715e-01
1.631165770294164818e-01
6.881588075388110626e-02
1.402246689363935428e-01
1.581648256396574470e-01
1.404728215188583984e-01
9.812133530969568973e-02
1.220734967855942738e-01
1.214064575052690442e-01
1.198351255484625955e-01
1.117940662367146593e-01
8.141695293795547794e-02
4.042070770364064591e-02
8.508551436520957190e-02
7.001948134573199312e-02
6.664456981473054764e-02
6.319450913730045860e-02
8.529452785339715348e-02
6.013326725834414188e-02
6.086303225237792158e-02
7.100132443152584738e-02
5.825622116762272512e-02
9.652201190651306384e-02
3.119405725969211576e-02
6.634444789268294229e-02
6.186818360268324379e-02
2.165943871173129157e-02
5.154936587886388422e-02
3.886030351232765828e-02
5.133720376764248916e-02
5.662884581954586577e-02
8.527396368764636470e-03
6.781441470770011026e-02
2.200359212077684923e-02
8.196632791659227979e-02
6.446549529020645375e-02
1.822933977917636644e-02
4.528435795843559208e-02
-3.632442546711855957e-03
-1.448857252067657295e-02
1.735460025428276626e-02
1.009827920467703394e-03
5.109821499795982880e-02
2.013423383999148747e-02
3.741325233218890239e-02
3.266954815112196875e-02
4.234047736830655329e-02
5.055317226657356916e-02
-1.917823791248301699e-02
4.343911882603707086e-02
2.336147686339713411e-02
-2.316838620725414355e-02
-4.988482376262235590e-03
2.351831310838527200e-02
-1.275013977568344170e-02
4.269709819152030933e-03
3.284929311816800479e-03
2.317835980028617321e-02
5.506655855705706870e-03
3.956800488213645106e-02
3.439477325475216729e-02
2.055869153562975976e-02
4.064636410872755901e-02
-3.658316855446065718e-02
2.913583385582745738e-02
5.970501615432242948e-02
7.147074160220823202e-02
2.032712333077009437e-04
1.218706475507950332e-02
5.938186401824325361e-02
-5.897716635737695889e-03
4.542721256415355180e-02
-7.554091364500033212e-03
4.751576757329987327e-02
5.655330504764715521e-02
4.070114881281982483e-02
3.689248662906237375e-02
5.682935573505640617e-03
2.354536811853430792e-03
2.324029439081980869e-02
-2.744138057366565103e-02
-9.571372389215663037e-03
2.180845925122995924e-02
3.980008453274605507e-02
4.715031042678757833e-02
5.262866604698188816e-02
6.496367026111316001e-02
8.731735375834748236e-02
3.238839377996510088e-02
3.136894545696500280e-02
1.333410403032025127e-01
1.346191542703565058e-01
9.655974637045575126e-02
7.092442086410276347e-02
9.321345568991945552e-02
1.499600873299067050e-01
1.266203724048078350e-01
8.316450340539630059e-02
1.365769759923000093e-01
1.647639253178507235e-01
1.710048337799879303e-01
1.671984856941726716e-01
1.702339088830238656e-01
1.369071959547047967e-01
1.314339944651302938e-01
1.445893999719847223e-01
1.766120089820986672e-01
1.099769716038515172e-01
1.574711224005038435e-01
1.943027096398679820e-01
1.560048289141356403e-01
2.122280697883953682e-01
1.640157202345844945e-01
1.496938427986271303e-01
1.187242844931288843e-01
1.125219481896067159e-01
1.753163452630906449e-01
9.481627929664634968e-02
1.491625555376886736e-01
1.082348456426225763e-01
8.988514800975455632e-02
1.547958919330034711e-01
9.688236354877254042e-02
1.181310165620004654e-01
9.750610780510106379e-02
1.805797031134468711e-01
7.251353874779020714e-02
1.278656637947716002e-01
1.831563777226005996e-01
2.373214185307346569e-01
2.808726868296455015e-01
2.706041557060025471e-01
3.290238178139164305e-01
4.354685337377122156e-01
4.822190628906193877e-01
6.132926963395283204e-01
6.136557723759311633e-01
7.038693990426869718e-01
8.580783377184643124e-01
9.022885067513511936e-01
9.855449808920273558e-01
1.088154686289511952e+00
1.116795685396599680e+00
1.147495401760815659e+00
1.191502028660605284e+00
1.181592460291251978e+00
1.180328611264610084e+00
1.132332339831656709e+00
1.050357614160786213e+00
1.013417145441885880e+00
9.161354449653058563e-01
8.557904280024390964e-01
6.612887009996660792e-01
6.638165121242288746e-01
5.762737803110165036e-01
5.235528624155999511e-01
3.769443390699023233e-01
2.665496053394972309e-01
2.707600239056185965e-01
2.162696607838504037e-01
2.103959274419073822e-01
1.557232407827358611e-01
1.258143322703459965e-01
9.767563387541899900e-02
3.208764526467783318e-02
5.339125213473463333e-02
7.835951883574562848e-02
5.538446182274168322e-02
4.864020350138696658e-02
9.989647233730004905e-02
1.847206435251744910e-02
5.511018614477022903e-02
1.066138408248629710e-01
9.260904317646556638e-02
1.091086036083964012e-01
1.199122795908275085e-01
5.824775454432173233e-02
1.595317361279615931e-01
1.094287926592737298e-01
8.947414383620821976e-02
1.494345236037451785e-01
1.040285602452827862e-01
1.366998721927226434e-01
1.419711623615518004e-01
1.509426395541294263e-01
1.228446087295698153e-01
1.586177087224605320e-01
1.388608695803751625e-01
1.419466158277377099e-01
1.609120834370702247e-01
1.770560836966318385e-01
1.648834755290790044e-01
1.969662570978655824e-01
2.033330244155358291e-01
2.109859837229361434e-01
2.067599065449655105e-01
2.501829875782090595e-01
2.174305177139736200e-01
1.790453793926304327e-01
2.340049849085824585e-01
2.440480375169742921e-01
2.253272928653527185e-01
1.855601210167333592e-01
2.217726301801342947e-01
2.288017141116879816e-01
2.537988265882228922e-01
2.375874482779594954e-01
2.299078171873268350e-01
2.291912992926488091e-01
2.783740963939085877e-01
2.290681704147776165e-01
2.798919896070802271e-01
1.912579489077440020e-01
2.430139743010011344e-01
2.331616183062598380e-01
2.084266088437366771e-01
2.023914915586437768e-01
1.820604161651439012e-01
2.090076187559269938e-01
1.885951895071370510e-01
1.549906894748803998e-01
2.252167175070635685e-01
1.339079126014829368e-01
1.231763132984218800e-01
1.785142177640537398e-01
1.644202794342968232e-01
1.537739254219885054e-01
1.306403016756315649e-01
6.968102255231219122e-02
1.380383585091874421e-01
1.144594461568134575e-01
1.390301907528773140e-01
9.961209726161780742e-02
1.317078399354983387e-01
1.195180989483276418e-01
1.380473621425546416e-01
1.292753364571810060e-01
9.025329820577708551e-02
8.081816388469344192e-02
6.516547230471812779e-02
7.846597252754709817e-02
8.858827571604498130e-02
7.855764713506073471e-02
5.262417748251670829e-02
2.461844818528960421e-02
1.983763792359887618e-02
-5.043143271172931263e-03
-4.633033499621254381e-02
-1.241325591929339639e-02
1.113551549651242700e-02
2.904551980172236092e-02
2.311358053414314107e-02
-4.080601487229326696e-02
-1.661833524700523368e-02
3.013291607048194584e-02
-5.599244162422106763e-03
-4.135209093529851332e-03
2.983410979396996024e-02
-1.632822690075982214e-02
1.664462054195379667e-02
3.450749949471609845e-02
-2.476595628176076272e-02
2.611872493681529836e-02
3.046053205525844562e-02
-1.865866027059124438e-02
-5.992325395468107996e-02
2.392063439354249685e-02
6.845187744330509527e-04
-4.764778410391131563e-03
-4.399827338394705911e-02
1.691052096166796581e-02
-5.281162424849956960e-02
-2.755037618062610577e-02
-4.622814751039888703e-02
-1.539272963197782854e-02
-1.792958685464299262e-02
-5.484904614731125894e-02
1.351594991824967007e-02
-7.695919407914636468e-02
-6.425467339874271766e-04
-6.799283323442155413e-02
-3.282740709301544546e-02
-7.791055870066981859e-02
-4.808193090315137502e-02
1.430618004732281401e-02
-2.390480357799576461e-02
-5.572145241446410657e-02
-6.761918797411858861e-02
-8.169672299167013430e-02
-4.494760006239143652e-02
-4.922445140820298076e-02
-6.305014238335851506e-02
-5.329733665592636949e-02
-4.177795920970261284e-02
-5.364130211348037969e-02
2.690723317220652250e-02
-2.559169690600224256e-02
-4.214187729119911463e-04
-5.473721153509006343e-02
-3.069838307698349172e-02
-5.861917097745721061e-02
-3.421851005256932449e-02
-5.334523505809372901e-02
-9.408198210626317337e-02
-5.450443205792215168e-02
-1.102557209978843183e-02
-3.884809257808040373e-02
-3.413712352754397911e-02
-1.206605339501813298e-02
-9.361010696603649234e-03
-6.894167101570652934e-02
4.228351164655885785e-02
-4.349111672419388175e-02
4.090102085096813944e-02
-2.517499095413891497e-02
-3.858287189586326327e-02
-2.217799137076161692e-02
3.887906536815330383e-02
3.493154860134731199e-02
3.690200737333854120e-02
-3.109067999261930226e-03
6.439157293409153437e-02
-2.653010082022462524e-02
6.937191659228647556e-02
4.863425222868667658e-02
5.458900261636453338e-02
6.858929166320484883e-02
6.415646226797147578e-02
3.515411294036354523e-02
1.140330089017763393e-01
1.463487626662509922e-01
3.800036550821677545e-02
1.419222733137076864e-01
1.213337234176458945e-01
1.236516037414064767e-01
1.424544930861094960e-01
6.506883710528332809e-02
1.599734491527856628e-01
1.314427760730854378e-01
1.101693467302362062e-01
9.510841667016500800e-02
7.368146545054238272e-02
9.492129859387785085e-02
1.495477392652985738e-01
9.030177103314834808e-02
1.279491084472586249e-01
1.231164588057947207e-01
9.592061831850651199e-02
1.215781840684819898e-01
8.384465745044747398e-02
4.249596557210771897e-02
8.886828144674896457e-02
2.488948917329338734e-02
5.668351426257468850e-02
4.264628829658349829e-02
5.870783453128679275e-02
6.928291267972991330e-02
5.172818603765978740e-02
1.066823156026851793e-01
1.126436508077795495e-01
1.408019520543128678e-01
1.647630772559978418e-01
2.519101734016518379e-01
2.333718590793426861e-01
4.355082612083840954e-01
4.380504799941291050e-01
5.355053576372024171e-01
6.254670537880654413e-01
7.027224486338894405e-01
8.133223290793634153e-01
8.448953810793075059e-01
9.646706755324701010e-01
1.024598825801679158e+00
1.143770737221345479e+00
1.115744396767281543e+00
1.128354209925126916e+00
1.066648348979869487e+00
1.113839498155431373e+00
1.058810145349032172e+00
1.049071843275904303e+00
9.379215922654909887e-01
8.340434172681810976e-01
7.356107997035058466e-01
6.869500284822391833e-01
5.736875207588100212e-01
4.748014683023483173e-01
4.005514452987150031e-01
3.439394904893149363e-01
3.049926572435930905e-01
1.958114517698016921e-01
1.418459285181326857e-01
1.003979519346313715e-01
1.119023153602708986e-01
1.060233997932696764e-01
1.041316194312961463e-01
4.757880270728528926e-03
2.591858979937521762e-02
9.005473615001896581e-03
6.476172701875264337e-02
3.780724381673553069e-02
1.916905261329736321e-02
1.139235945454795951e-02
2.455762595255609609e-02
4.501173189096849270e-02
5.194897954511125404e-02
4.570097180076462817e-02
2.086431584024382724e-02
4.572188466238322202e-02
-4.634185914189383609e-02
5.262538496047206721e-02
6.145487316445541470e-02
4.849884631098340393e-02
8.253062461848570397e-02
8.631489386769033989e-02
9.052509330430671963e-02
8.139178660947127275e-02
8.723172330740246172e-02
8.660266937803931531e-02
8.378867244796263380e-02
1.752630633830234153e-01
1.213411989246506728e-01
1.202283577476181975e-01
1.085351043810624527e-01
1.704963983513137771e-01
1.571036349372928742e-01
1.171895093959625933e-01
1.811323214058401521e-01
1.698132961680878517e-01
1.718713853172258166e-01
2.124754133631751030e-01
2.186722011554321776e-01
1.693996222731230794e-01
1.630036942255952137e-01
1.987161094999052302e-01
2.003149081539040421e-01
1.554102485890279661e-01
2.211093914142698846e-01
2.449082626043250221e-01
2.379549142809177231e-01
1.994229617284777878e-01
2.292922940090105777e-01
2.041252544232586286e-01
2.220436605694991183e-01
2.001697634127405923e-01
1.877512271731702764e-01
1.874676055450371637e-01
6.987703205366611880e-02
1.816081345548712644e-01
1.585077931913419780e-01
1.412431596644168619e-01
1.542036022735313594e-01
1.855730080388333370e-01
1.599959205739730217e-01
1.720452445481112647e-01
1.451805353927059228e-01
1.275390507458333822e-01
9.020982468057446579e-02
1.419032683224772662e-01
7.615721036992911808e-02
1.050118010780913963e-01
1.057860488409547717e-01
8.613628551297122793e-02
7.824142101340866851e-02
8.822473262433290497e-02
8.136859368219312438e-02
5.387248142053494004e-02
8.389635707687785604e-02
2.230456332655578883e-02
-1.040002076830512379e-04
2.973041259346900084e-02
1.904292265428555314e-02
4.129809196311402114e-02
5.554900856997838088e-02
4.906073211554333457e-03
-8.169685131984100179e-03
3.499547897218230341e-02
6.831125402198154339e-02
1.464190157250751245e-02
5.498539412656443248e-02
2.519388316704659903e-03
-1.593292831972958207e-02
2.851513775445373849e-02
1.398298783702166953e-02
-4.083905769267866942e-02
1.714139305840557681e-02
-5.090128448987780302e-02
-4.006096107498378911e-02
-7.113544860555841287e-03
-2.115191882350764968e-02
-5.708577235689884372e-02
-1.706290495759538173e-02
-4.499077380897179707e-02
-3.540836047164107325e-02
-4.339804262216145209e-02
-9.322501201356386824e-03
-5.278366560950163017e-02
-5.010364142162060386e-02
-1.699143059988294374e-02
-1.912943131518628215e-02
-1.067733508142123394e-02
-3.856304408166048858e-02
-9.510357309600098175e-02
-2.459763354186207673e-02
-5.990396665204933413e-02
-5.143581631733799842e-02
-9.885333771185625396e-03
-6.942662203595580117e-02
-6.308155996961772871e-02
-7.068531326867326381e-02
-7.275478318366705721e-02
-4.980428276281795991e-02
-2.877661337317623247e-02
2.852715247274470456e-03
-5.703213135645320703e-02
-7.229514164754527461e-02
-5.656507414235174142e-02
-1.894290595394154328e-02
-2.283325970368488278e-02
3.379773892514918721e-03
-2.798047048112124388e-02
-2.477639923586363868e-02
-6.943399791798958443e-02
-3.366843926347791449e-03
-5.672683246173704230e-04
-2.672479483966387973e-02
-5.241987027990167858e-02
3.770700622199626983e-03
-8.248939566726551376e-02
-1.085742092881425008e-01
-3.843318819742831682e-02
-5.473376827809400824e-02
1.082978803504527215e-02
-6.061870728883771153e-02
-4.309491966321902373e-02
-3.116241397711043415e-02
-3.266573869583114242e-02
5.835071032820347836e-03
-4.973386991753088460e-02
-6.343375297539724511e-02
-1.129417829457989714e-02
-2.658876538175955831e-02
-1.040185084718279890e-01
-1.667565814394816881e-02
1.620576206898290128e-02
-1.590187228104193717e-02
-1.657694286977740711e-02
2.688011845811793393e-02
1.096643219502965727e-03
1.289684867312548833e-02
5.717793710104568383e-02
-2.709006390070260728e-03
4.475340422415634983e-02
-2.310030001108423492e-04
7.434554643847982036e-02
2.500466977670930124e-02
5.991934202132503939e-02
6.637372123696375081e-02
1.174992509940975399e-01
8.556952887677887754e-02
1.091380411782205684e-01
5.515779098943560110e-02
7.942451059981255057e-02
9.638385627144142875e-02
1.169675751491101590e-01
5.981461822964038999e-02
7.751203835247140461e-02
1.043691707601886731e-01
1.186323097150572270e-01
7.868220176774304297e-02
1.283247920647704876e-01
2.603691135916019750e-02
1.275996779496984534e-01
1.395726389119128219e-01
1.035553324209031456e-01
7.589699173365815899e-02
1.307348123527673489e-01
1.294293276742096710e-01
1.096626166310000761e-01
7.594151792937114953e-02
1.143844271605177765e-01
6.803174758282473644e-02
7.157706816857403731e-02
7.432171913047949663e-02
1.386485888620206386e-01
1.873058069495849021e-02
3.370380517393892217e-02
4.775031365783560799e-02
8.595662556380470609e-02
1.272545575217378100e-01
1.087496379220444787e-01
1.008880216164549093e-01
1.656788145361726972e-01
2.128879145379901083e-01
2.971881014989657399e-01
2.937317439622857407e-01
4.122162643404468363e-01
4.596604532319207848e-01
5.399460957308119813e-01
6.579533917479966076e-01
7.129732691124104349e-01
7.770879529521421691e-01
9.111340353820158722e-01
1.024479381933802724e+00
1.002385225311531514e+00
1.105529472591650686e+00
1.162889575082802551e+00
1.169298972279265714e+00
1.140844809607616694e+00
1.111761690486756438e+00
1.060898990112050244e+00
1.026091110365907166e+00
9.616076859918637476e-01
8.709801404489464494e-01
7.748794502793316941e-01
6.754348484139662823e-01
5.974735257189418558e-01
4.962391480556515022e-01
3.519184210227830345e-01
3.851673018175296170e-01
2.712207073634892995e-01
1.968245938025743047e-01
1.407581287344862875e-01
1.387389448883740162e-01
1.444307586424245504e-01
9.360329055713323410e-02
7.354130661563627880e-02
3.322196172705399464e-02
6.407014279750541941e-02
-3.171527952300010056e-05
2.419867711150203160e-02
6.188180063160086952e-02
5.898458331834977725e-02
5.650773968810698239e-02
5.383973749193539382e-02
1.154804716265769443e-01
6.457362000480487696e-02
4.134580546856075206e-02
8.333103809938259554e-02
2.337988974920679475e-02
7.877768961087006083e-02
8.461272890027692062e-02
9.870336080754642250e-02
6.974928348981003501e-02
7.991557556679126928e-02
1.092555706760989231e-01
9.054913312391373037e-02
1.441301045212371457e-01
1.521071252223108738e-01
1.566800741138963393e-01
1.745023435564971304e-01
1.338749806422847022e-01
1.597629728858900033e-01
1.756911706968969644e-01
1.263930390091403400e-01
1.598802995001013527e-01
1.663944730106677317e-01
1.566087515743237735e-01
1.461835649719587238e-01
1.733754910220008383e-01
1.955532503223346152e-01
2.055743913175980819e-01
2.019932796080987913e-01
2.577690731751106634e-01
2.172617951203340558e-01
2.622175303743826680e-01
2.262924120957107432e-01
2.301283131294866446e-01
1.516494892953164364e-01
2.702342528016278833e-01
1.744661424863608867e-01
2.137247482450647107e-01
2.021291811071780908e-01
2.790195348310151036e-01
2.736019894807322217e-01
2.092592978505512236e-01
2.298165870835082725e-01
2.016367205401846108e-01
1.975486622429026284e-01
2.249948100714953270e-01
2.167995189556324864e-01
1.465773058691495212e-01
2.372259870954184502e-01
1.507384566828683103e-01
1.793231393743326962e-01
2.013542519246083740e-01
1.322475324629465154e-01
1.237407358550658004e-01
1.809062321047232025e-01
2.017883541145780724e-01
1.301657050328019483e-01
1.197467016767210651e-01
1.190080852113667431e-01
1.347981758192260959e-01
1.675085481520671993e-01
1.238661536042999639e-01
9.916405623946110415e-02
9.646544659330325011e-02
1.153817749516507229e-01
5.465181859557083355e-02
2.472500144016208379e-02
7.072737751683469409e-02
8.723967246389056907e-02
7.534556454634276645e-02
7.052182837154971629e-02
6.648487985590308125e-02
8.138729234279297453e-02
6.459856601395929515e-03
1.533965784791134837e-02
9.069239832402073431e-02
2.406886434916009898e-03
4.103723546093488578e-02
2.438444909944589151e-02
1.623341196939116077e-02
2.906267615120206732e-02
6.505617399365561451e-03
-4.371487340325364013e-02
4.938411337226325179e-03
-7.913698329607551582e-03
3.576751952466400430e-02
-8.277562283509603408e-04
-1.977219392470567355e-02
-1.297442434486316062e-02
1.198198126875579632e-02
-1.395850626004372513e-02
4.064028797797875764e-02
4.101130909688140494e-03
3.518355516921130993e-02
-1.013925900163588530e-02
4.915895959197555398e-02
4.584326934285538196e-02
7.339790391479367182e-02
1.158227196905160794e-02
6.614879593133470015e-02
1.587618305768587895e-02
2.743276426477878061e-02
2.007712827002179970e-02
9.037723694324482568e-03
1.497095844041959958e-02
-3.362880872849057651e-02
-2.851986878624105520e-02
-8.494597814587152504e-03
-1.510479970225453439e-02
8.207736054580451468e-03
1.907066771839129038e-02
-1.646777138454687608e-02
-4.005354221542912346e-02
-2.618014680677767034e-02
-5.095433780702211118e-02
-2.826853872730307471e-02
-8.203605635879136770e-03
-7.827989421095686573e-02
4.542579199607654772e-02
1.798120726161354238e-02
-2.446277579625386750e-02
-3.235636804813552675e-02
1.532096027156542271e-02
6.143163875297266187e-03
2.949505023723596187e-02
-1.294554469252211931e-02
-5.235370127069722190e-04
3.678945064385036323e-02
-2.444786321469485241e-02
4.318035798104128374e-03
1.307727135664062817e-02
3.582831658921733012e-03
-1.541137835231018959e-02
5.243596377013112764e-02
-2.288291063768174705e-02
2.717385511888801859e-03
1.548794674287932126e-02
6.574100221495507435e-02
1.535807584955739546e-02
5.591772406121999633e-02
3.047705184586663174e-02
8.815234550635769883e-02
9.050747941176147393e-02
4.622336364760017829e-02
6.251523651152000871e-02
8.398510392610503139e-02
9.769750758455453266e-02
9.189210932603851523e-02
1.065292069461690472e-01
6.537517184446996199e-02
6.782110119968150219e-02
1.230858421862604940e-01
6.484736598620177705e-02
1.697762611491649420e-01
1.432448445795031777e-01
1.349847533138422429e-01
1.165282196345974464e-01
1.438275609380752496e-01
1.403462875010417499e-01
1.474207169289136199e-01
1.271824262443949638e-01
1.447043181654762700e-01
1.525334093627786491e-01
1.551581848475013514e-01
1.505101836802415494e-01
1.826933743568830426e-01
1.600600109528670656e-01
1.131885008531670622e-01
1.234442774609080390e-01
1.930005230052686538e-01
1.550425156177250019e-01
1.915330567304207310e-01
1.238145193538567335e-01
1.954903831119597646e-01
1.822278199794420128e-01
1.689217923161472068e-01
1.332686249528295952e-01
7.973123274787644044e-02
1.103764168717377703e-01
1.455313926102705380e-01
1.857777824674134715e-01
1.258505876419454550e-01
9.773372600594446014e-02
1.335138893544325633e-01
9.426041131039558651e-02
1.240473646952017506e-01
1.151371696975477810e-01
1.148002219616336000e-01
2.241942376317344332e-01
2.631794262973188303e-01
2.519172812617244683e-01
3.307841531736082641e-01
3.838052753191155686e-01
4.254132267389353350e-01
5.347278548399018172e-01
6.344406039632491945e-01
7.072590062297838820e-01
8.150223294829098686e-01
9.329716130018883558e-01
9.599566941055128755e-01
1.016545349189175607e+00
1.158774498002202780e+00
1.144529996471515654e+00
1.132990761910277699e+00
1.211148840390204429e+00
1.210167564506159144e+00
1.104038510181013066e+00
1.111067671690737724e+00
1.065779575405131574e+00
9.408813950831861339e-01
8.985501540343516780e-01
7.770605482130558128e-01
7.071265948950675728e-01
6.522887216215806916e-01
5.214878225035002313e-01
3.948699784218592801e-01
3.600266004596498481e-01
2.690927071065783993e-01
2.791691436882506316e-01
2.115367304343105936e-01
1.461300637028623006e-01
1.311672163566882654e-01
1.000377519827101158e-01
7.594893577363681647e-02
7.819650865655472516e-02
9.007709460151754055e-02
9.934094240437277290e-02
3.512067054961391654e-02
7.442740311969900380e-02
5.071655405737038325e-02
9.469999668827247530e-02
8.834499905247403251e-02
9.067324832865358841e-02
1.544329163968971852e-01
1.143585849595189635e-01
1.484347613193656990e-01
1.477135472172581010e-01
1.114205667118618459e-01
1.195712153306793119e-01
1.475402566679495375e-01
1.312919869681667129e-01
1.803535885643484382e-01
2.279937108726965422e-01
1.364876561846954939e-01
1.639123976379720238e-01
1.866273040773636371e-01
1.810784890863879615e-01
1.665559309057869086e-01
1.953981425674794492e-01
1.939178116648303529e-01
2.046792351618915984e-01
2.611459790477713705e-01
2.626565484641342207e-01
2.433197733417941933e-01
2.384949333036736896e-01
2.203541048262998570e-01
2.252044065280997542e-01
2.595267040892626498e-01
1.970784404583982297e-01
2.421954447433488089e-01
2.720997656566081502e-01
2.497001453042310137e-01
3.076881071790983913e-01
2.940300736439486751e-01
2.879683710611749548e-01
2.949498777989848497e-01
2.988334638325521042e-01
2.559750793582776796e-01
2.415786976064567826e-01
2.591554444188918227e-01
2.639698651198262302e-01
2.933416807259137671e-01
2.760447918796317679e-01
2.639390249767578078e-01
2.459063568424534607e-01
2.154810280543734413e-01
2.710734722958830223e-01
3.088484424978315546e-01
2.435636298671644828e-01
2.729958283908038852e-01
2.409563518130149185e-01
3.129031992566456699e-01
2.078786836473996702e-01
2.251417097333001383e-01
2.116452024638244001e-01
2.221759048021213212e-01
2.051250302844273565e-01
1.390582322269507398e-01
1.959983154563010033e-01
1.888057797650503078e-01
2.031132333229360987e-01
1.740536552625681632e-01
1.678002377877363671e-01
2.250969624862851626e-01
1.035598598853530450e-01
1.004420226611166117e-01
1.653551944826812947e-01
9.630310199587144293e-02
1.944063924833845936e-01
1.253513777072927660e-01
1.559606737917149932e-01
8.551949594795288379e-02
1.325822280527662045e-01
8.516423981488228934e-02
1.167184007972323356e-01
1.525404465516996544e-01
7.435684153587407419e-02
3.368379003007643951e-02
6.980858603268473572e-02
9.378766052540146725e-02
1.052008851589854577e-01
1.393950325464215212e-01
5.536546538281127139e-02
7.350932046124022956e-02
5.829495711617169174e-02
1.845269954256022887e-02
8.577782383090773455e-02
1.161018699265391058e-01
1.898624390628515443e-02
5.342333333299375403e-02
6.439726639305858036e-02
7.527286914675969387e-02
5.513736971240197626e-02
5.490079442671377818e-02
-3.764425962890317889e-03
9.747985297244972369e-02
6.687969004583796395e-02
1.030701277279504058e-02
4.515804409968918881e-02
5.106263215165418590e-02
6.991945144932705525e-02
5.392824227473302229e-02
3.062692888189328180e-02
1.023725123270629450e-02
1.312244989815546450e-02
1.590339219141624627e-02
6.521063283201559979e-02
1.934307841636473055e-02
4.903031443252257870e-02
5.798070834471705931e-02
1.339372796488957559e-02
2.800919070324645738e-02
1.622739185979526350e-02
3.825638270665068785e-02
5.618738434138650928e-02
2.691931933138229371e-02
3.562423078435953544e-02
2.388077710277523857e-02
4.831908522409496254e-02
1.404153961749534871e-02
4.245175515384189829e-02
4.436313658391677350e-02
6.293687468162580123e-02
5.490921871307856417e-02
4.184782829226720013e-02
3.028025077365302867e-02
8.407268949465016017e-02
9.683738714553941085e-02
2.713456418755535310e-02
4.160308222626883656e-02
-1.278803669715060376e-02
7.011057524081590331e-02
5.810532958044811735e-02
2.881901751922506111e-02
4.075271808104145854e-02
1.025684488709935893e-01
5.984177416570303498e-02
9.791009195630479001e-02
1.106141909772190013e-01
1.234165281873529363e-01
6.570355071698366634e-02
8.158176179409061535e-02
4.933151752111000765e-02
1.054908646717522269e-01
1.149564925390617193e-01
1.050110773336463410e-01
1.146178258584079068e-01
1.293793913421326103e-01
1.104641684374240429e-01
1.062410087244398671e-01
1.599831267514722766e-01
1.252509639940605490e-01
1.862808511012001844e-01
1.740927410991650603e-01
1.756203205948575763e-01
1.574277170748429600e-01
1.508446945532951611e-01
1.802308359757019418e-01
1.639757169086684951e-01
1.744869315620469485e-01
1.144088838310034217e-01
2.379831216920393622e-01
2.076014090005209034e-01
1.906685990036862677e-01
2.025684718112609750e-01
1.837289067827494460e-01
1.545472312598000220e-01
2.225112045672520966e-01
2.258991813559494966e-01
2.540974064396252508e-01
1.965735483920975357e-01
1.964483294803962277e-01
2.306108599586705332e-01
2.253905808863874149e-01
2.209110141553570217e-01
1.625530228244346231e-01
2.362261838033593297e-01
2.153063212318102326e-01
1.645571198610796537e-01
1.539909892611575348e-01
1.943870331780231386e-01
2.022838001563395660e-01
1.841400952201224239e-01
1.645033185808458531e-01
1.173796814202459626e-01
1.445851821289066419e-01
2.000870445072644443e-01
1.453561525692056988e-01
1.576547165799975780e-01
2.481312279935499465e-01
2.466936008340251674e-01
3.780036701845445046e-01
3.182587317494098844e-01
4.151027257401076476e-01
5.475513686558485249e-01
5.788500063780112059e-01
6.580754183263607393e-01
7.171169766895979514e-01
8.197885342639292805e-01
9.592171607456048132e-01
1.046148536730730827e+00
1.080731817178523846e+00
1.168624960517956168e+00
1.254280064757985702e+00
1.224207079832423606e+00
1.216920587697657874e+00
1.273191021637387843e+00
1.197239458046203131e+00
1.125910215093971267e+00
1.112818947515024970e+00
1.034809385562015294e+00
8.949106817636283129e-01
8.179720844626164888e-01
6.789388079658005282e-01
6.496594218546793975e-01
5.201780618779019427e-01
4.080566676156559547e-01
3.314510517599541517e-01
3.648379399424010461e-01
2.740760691935817950e-01
1.802228171626726883e-01
1.927941620428862413e-01
1.539815442322071404e-01
1.719898925589068706e-01
1.050230421611607068e-01
1.741771784124785116e-01
1.381548805746363184e-01
1.266183879034968318e-01
1.197555688975728977e-01
1.112512047801058335e-01
1.860086878246426101e-01
1.142674913633257294e-01
1.436765220891365047e-01
1.252737309574662450e-01
1.311244992068644755e-01
2.124130562028306024e-01
9.843691458895387214e-02
1.552277416883851013e-01
1.366125736582773920e-01
1.765883620158786860e-01
2.166624046534743608e-01
2.136065353989459181e-01
1.680602286524844891e-01
2.073461402241293383e-01
2.095658691861397305e-01
1.430778886185100351e-01
1.983095936982650076e-01
2.359947734776502437e-01
2.041095094545913036e-01
1.681411400431715442e-01
2.168517723766643090e-01
2.853243765608620142e-01
2.629949766931327648e-01
2.603191058529736868e-01
3.243544874360098085e-01
2.476189457397116045e-01
2.772231631872941748e-01
2.476809963656765035e-01
2.779131367406327824e-01
2.909719277365156453e-01
3.020849515631719995e-01
2.867320227248037479e-01
3.099271522105399579e-01
2.788926051069319234e-01
2.663931734581664879e-01
2.484367411319073904e-01
2.636887523311091108e-01
2.866490561781251389e-01
3.066486904757368959e-01
2.364037769945471212e-01
3.287476140541617520e-01
3.103901825696644967e-01
3.171698405139906085e-01
2.854512278916089829e-01
2.877043314992362988e-01
3.021720557669859142e-01
2.151996958931408632e-01
2.564507828104562459e-01
2.819778512238118040e-01
2.697255079919494980e-01
2.983138174119573938e-01
2.557827297448943549e-01
2.927530032728817289e-01
2.612954692322577710e-01
2.871971676110980365e-01
2.633766198532975222e-01
2.408733839317105385e-01
2.671980957995473971e-01
2.180491293040729694e-01
2.380226505507197221e-01
2.511531453730530550e-01
1.699717523066177072e-01
2.214002444663882019e-01
1.583585369390256292e-01
1.927083844699687409e-01
2.127618071611647732e-01
1.923401722835081096e-01
1.273915031200554271e-01
1.395537485521117227e-01
7.008541944792992529e-02
1.335280780246304866e-01
1.474792297721606582e-01
1.450474351993589206e-01
1.989840693411497885e-01
1.532050704611990777e-01
1.131160128000094356e-01
7.002419899767568789e-02
1.251137915135005774e-01
1.091426541002845224e-01
7.322720993334937145e-02
4.270184915950520077e-02
1.356149347620924650e-01
6.955449042953701366e-02
5.371116637058262477e-02
8.717043005018842994e-02
7.884008943747673748e-02
4.772822999528264498e-02
6.177738421075767983e-02
6.553236491635132388e-03
5.335396891822102861e-02
1.742520336679834192e-03
2.783569628444046429e-02
6.903208877201612303e-02
3.430727946092945041e-02
5.981895410144269509e-02
5.329579169915049652e-02
2.319839066456132193e-02
6.030436467375076270e-02
3.706484202280060924e-02
1.285814481701490902e-02
3.551322552033009394e-02
5.359106109560828057e-02
-2.393667552931594972e-02
2.576974209696717560e-02
-6.023915355022599338e-03
2.804046622289686763e-02
3.997655615555893716e-02
7.490070230376147387e-02
6.045502491429077807e-02
1.526368395785841769e-02
7.564889937232106842e-02
3.545691725554706714e-02
-1.811547677936236472e-02
6.450011392051621661e-02
5.880396334408738435e-02
4.863861050070821673e-02
7.617321782701129418e-03
2.226659134335999546e-03
7.484844209991601410e-03
1.053860260904318363e-01
9.232505487397971167e-02
8.404206878697115246e-02
3.660321828840247538e-03
1.091557523638221963e-02
3.154828191448071084e-02
1.222478384383012817e-01
3.933114144591551981e-02
-5.076628544578874747e-03
-1.164920856847859176e-02
5.422742897235977716e-03
6.019675942294172577e-02
2.159269431213226703e-02
5.006056743895042488e-02
-1.246929370632245127e-02
3.444458769625687033e-02
1.367459840372071619e-02
7.919433372876617805e-02
6.210915036152484664e-03
3.708192526447467996e-02
8.123227474735460196e-02
4.927837112925793905e-02
1.033894817914002284e-01
2.999193222321894919e-02
9.730744452434483827e-02
7.510549000867969283e-02
6.789082562161165291e-02
9.158427129040602743e-02
1.840701082132055466e-02
1.130362803980999586e-01
7.814172003275721146e-02
1.036838313645264964e-01
1.356064174629157681e-01
1.297977697749857495e-01
7.243338611591775000e-02
1.704228166150162371e-01
1.477201248151525648e-01
1.812980846883677222e-01
1.572626356374215717e-01
1.296686295828263780e-01
1.592778925855903860e-01
1.553608230252634947e-01
1.528237525444386125e-01
2.302049178079074443e-01
1.609955497206430053e-01
2.595135099421973512e-01
1.950546803972188492e-01
1.870227619820239995e-01
2.036202866950389267e-01
1.864286162439561245e-01
1.148119384966190676e-01
1.740718792161392581e-01
1.676707343042193876e-01
1.498155057193027162e-01
1.842175723706286072e-01
2.207623596745539041e-01
1.468071644302302858e-01
1.541419936184227346e-01
1.135121615368082371e-01
1.001902553144661395e-01
1.738237752381701917e-01
1.657452056916425276e-01
1.490887324975730954e-01
2.005174225657458120e-01
1.445529848391056138e-01
1.486676100419605240e-01
1.973303482446780444e-01
2.007400709126561378e-01
1.054969371255365940e-01
1.231804155051684224e-01
1.714364625687372357e-01
1.890942432971223219e-01
2.082092028089001512e-01
2.932034677749648099e-01
3.174069743949105571e-01
4.411916858341310976e-01
4.552752756140833745e-01
5.593185236605662247e-01
6.918907425339811956e-01
7.491855094304741280e-01
8.588607898970560539e-01
9.510019244956925411e-01
1.012900723304633654e+00
1.091197182936645582e+00
1.180050053935414400e+00
1.165745608351065776e+00
1.218257761521821081e+00
1.172876252942463893e+00
1.163177482307237609e+00
1.094308047433741438e+00
1.111592635824163233e+00
1.005841548118754814e+00
9.842746366484582676e-01
8.558589409252924662e-01
7.735497665624350150e-01
6.904720922806396599e-01
5.624731237872693246e-01
4.878259329446062997e-01
3.693552014239417924e-01
2.815082907188400929e-01
3.198001540983311242e-01
2.241787364397841986e-01
1.889048094012490131e-01
1.773453587154174560e-01
2.062275135592193942e-01
1.503319671478192676e-01
1.364745539265100616e-01
4.843588499723791574e-02
5.740907512483968411e-02
6.750312919877318740e-02
1.185391436677507432e-01
7.458124720439597566e-02
1.337828923235712952e-01
9.903489367366155594e-02
1.214665308061267657e-01
1.231758898630641169e-01
9.265578511834481057e-02
9.109385255235739887e-02
1.151276004572589218e-01
1.138444765541515580e-01
7.092493194403534651e-02
1.208130513677111439e-01
1.602108186432519565e-01
1.486834082845471805e-01
1.602150158919083411e-01
1.191196059409436736e-01
1.313276008047107868e-01
1.834554214350777590e-01
1.442059610335966191e-01
2.249172149989139835e-01
2.344482175783441369e-01
1.959103274696639696e-01
1.602707457093395516e-01
1.823416502983973841e-01
2.254265662302808448e-01
2.456961482327541246e-01
2.543341298008366946e-01
2.986588833226768158e-01
2.437958363288402208e-01
2.307691109273790064e-01
2.413181508836460543e-01
2.065888697096939508e-01
2.454695480905605687e-01
2.270240299845239229e-01
2.517388747319917464e-01
2.117300663522622139e-01
2.426188117302980063e-01
2.467603626112464810e-01
2.575239285579949966e-01
2.837024958107529637e-01
2.272631967789945640e-01
2.014992686210478334e-01
2.307524832133384662e-01
2.867987231310604734e-01
2.087338659500120597e-01
2.309756523678205831e-01
2.141332072896404703e-01
2.546143750273031636e-01
2.526937803179248321e-01
2.140902459415895964e-01
1.756114257122408651e-01
2.593022831874685075e-01
2.413020693130391026e-01
2.345312435667182838e-01
2.201534240894219840e-01
2.060269525672557278e-01
1.817536423529460821e-01
1.800266374597719043e-01
2.037519089898724711e-01
1.280262932403465614e-01
1.297658834831794950e-01
1.628316982142329894e-01
7.428636245922638770e-02
1.452551580961188027e-01
1.603340461276158424e-01
1.094974489620270663e-01
1.403429393202653974e-01
7.685687618278591593e-02
1.036319679346986294e-01
8.071219046328191593e-02
7.720551685269801123e-02
5.064388964120139502e-02
7.899540120371444096e-02
1.465906036362563114e-01
7.006819841749795108e-02
4.219723730003691747e-02
9.839964421407300377e-02
6.775142752175807026e-02
7.714258655077060878e-02
-3.577956638058649164e-02
1.524279694221572848e-02
4.641437744456751446e-02
3.971790108433310984e-02
1.132588414234702440e-02
2.241403947129708314e-03
6.092122630779205766e-02
2.689838794478255357e-02
-6.516389680915258241e-03
1.253625617070159258e-02
6.494716088769715567e-02
3.430879673816657899e-02
3.832004285033108193e-02
-7.752724243498976091e-03
-2.402211687556656677e-02
-3.592616735253096466e-02
6.277657219438331770e-02
1.155916291859530008e-02
-6.748942373150291010e-03
-3.139497841992217042e-02
1.631628996815265645e-02
5.334566101218964768e-02
9.944540592977611435e-03
-2.063383067767856488e-02
3.009982597469314930e-03
3.587147914072903732e-02
9.151807716803673359e-03
-2.350132793721325386e-02
3.602465957889135900e-02
-4.224046787105531324e-03
-5.199069388893692856e-02
-2.886353842677480755e-02
-1.141858738964948196e-02
-2.307307691886049950e-02
-9.625390901438072785e-03
-7.201068015079397505e-03
-3.524443582983565609e-02
-4.729446116100942399e-02
1.577429541847238936e-02
-2.343570548411433307e-02
-2.218247091539185881e-02
-3.341759154504707341e-02
8.883804526083408093e-04
-3.247806162950400699e-02
-2.026686342700986798e-02
-4.834791633238284814e-02
-4.559548652145942876e-02
3.497665476753954866e-02
-3.254472233346636725e-03
3.774050734458013479e-02
-2.242797350872828555e-03
-1.270509577055271844e-02
-4.690398209007124591e-02
1.262683086417606265e-03
-2.080440628286579774e-02
2.346349947426691271e-02
-1.954618230239212051e-02
-4.219588100086694993e-02
-3.999130362368467223e-02
-4.219453670663718403e-02
4.281574028024741352e-02
3.288766642755902581e-03
-5.030197808845260007e-03
4.148861425627987237e-02
-9.997864470646041640e-03
2.681090879350461406e-02
-3.636719514865326824e-02
8.004316565041059983e-03
3.464211495619966968e-03
-3.791759528966529014e-03
6.186761814932031922e-02
2.772620292289836724e-02
2.887320034788306081e-02
4.225503206865946493e-02
7.580823172503134422e-02
7.098070256778271636e-02
4.537592220123576325e-02
8.312160818794464556e-02
1.321950123004532740e-01
9.376767887569889548e-02
1.323406697984542690e-01
8.826669006152267072e-02
3.373500225089169635e-02
8.816215929819257169e-02
1.232720661003416374e-01
1.056103981778431372e-01
8.410299545789996778e-02
1.300984911890738782e-01
4.634525864681683649e-02
1.479282732803189337e-01
4.802945231292443662e-02
7.040055092316427343e-02
1.253662513000192158e-01
1.709211466255199374e-01
5.623316757325451387e-02
1.242718336534823775e-01
1.371252467885109294e-01
1.029756079402272539e-01
1.537605392387688119e-01
8.798221769810840587e-02
1.138151446088036811e-01
6.597438733719765414e-02
9.244483038473441661e-02
8.853037596796214936e-02
1.159014057518120561e-01
1.456825144577596765e-01
4.224143802320930868e-02
5.415420808316763479e-02
9.813616980450459715e-02
8.641313973333056286e-02
6.761509557248426838e-02
1.010059721560157137e-01
1.622437819002853499e-01
2.207977911934398685e-01
1.934643113163222183e-01
2.650637180683385052e-01
3.164357748832986039e-01
3.641139725206800626e-01
4.225268164129857285e-01
5.362317988347107267e-01
6.386049168753505922e-01
6.773548047208651779e-01
7.883030352677486974e-01
9.094522923092206446e-01
9.642893900311719779e-01
1.021607352113824918e+00
1.102137195998190933e+00
1.081294566034223248e+00
1.172037982111371113e+00
1.173566585032900234e+00
1.157751452861845554e+00
1.059452819239331989e+00
1.036323314245821248e+00
9.951280459720407423e-01
9.065753842317951783e-01
7.943202556064224984e-01
7.364268938472513515e-01
6.153501958702575214e-01
5.283923964813231899e-01
4.411456751496991013e-01
2.988795733103495889e-01
2.605540430950200048e-01
3.024753072632650475e-01
2.053600316367841516e-01
1.948984306863380256e-01
1.520044292731028979e-01
4.579115744136032229e-02
1.854835460001655334e-02
8.404019486480075740e-02
2.200409483295338170e-02
6.972645532336516072e-02
7.228775575407861420e-02
4.017004939828994897e-02
1.817526592818300563e-02
8.774228527853956960e-03
1.156360008483890006e-02
2.489537658782246116e-02
3.076842184229368338e-02
1.140464960446942871e-02
6.856952949060093894e-02
7.505252193511774417e-02
5.488739183800011440e-02
4.441285024498659029e-02
8.743195983297072371e-02
4.441616517624053656e-02
1.013573129196028433e-01
9.007996553396446782e-02
1.007251823271458763e-01
1.792817500492452087e-01
1.095892589426143982e-01
9.721816813768976995e-02
5.462265898403543402e-02
9.605273398500260851e-02
1.866249653518545215e-01
1.325246827230976976e-01
1.395700499027524299e-01
1.750010368325289889e-01
2.257842743540442454e-01
1.730016303980743131e-01
1.220566224685347423e-01
1.671040043108870110e-01
1.227507456293080168e-01
2.108983991622106757e-01
2.066701771482110650e-01
1.426228179990199629e-01
2.450388084270335443e-01
1.801436629608565709e-01
2.346879852305320813e-01
2.453767491160722125e-01
2.133272976865172033e-01
2.001595693501535267e-01
1.814806505159650141e-01
1.886050296492113865e-01
1.406911993386792403e-01
1.970459308209436822e-01
1.404270831793270891e-01
2.266622323654926552e-01
2.187396096641307519e-01
1.941585396048599310e-01
1.882874630605417821e-01
1.407819126698096057e-01
1.515499179030519172e-01
2.225046809823478244e-01
2.079533493048214554e-01
1.542843612508858764e-01
1.683553863854797272e-01
1.457802898820254878e-01
1.816629682174348281e-01
1.335039731913357786e-01
1.024832585762772974e-01
8.509388164219364170e-02
8.921200403587187244e-02
8.641609266909189291e-02
1.426681072446301379e-01
1.192331212962517983e-01
1.024420794613699059e-01
6.201073646012486562e-02
9.667781465414077013e-02
1.078714590396215034e-01
8.492155345557614310e-02
7.645384563143824141e-02
7.030511524622881647e-02
4.903203561889288992e-02
5.147516334211565958e-02
3.300145010698678910e-02
7.995845440642757040e-02
3.335489371276570414e-02
-1.134315028526336477e-02
6.330873423609464923e-02
3.009569712112913908e-02
3.507355983055167326e-02
2.535075954657036584e-02
9.458961173901089814e-03
2.533828730654892614e-03
-1.641072158968238243e-02
-1.971285488755365745e-03
-6.400144435522052422e-03
9.601674251128872184e-03
-1.428802885345102636e-03
-3.640434626935877549e-02
-2.244668318370782525e-02
-2.395094764652279384e-02
-3.505024122839124623e-02
-3.142891239767908740e-02
-4.777258330210086557e-02
-2.634832534121619302e-02
-2.428007913046519722e-02
-1.393650274840874809e-02
-8.187401054175834358e-02
-1.028065535050512597e-01
-7.103265944859875336e-02
-8.740321466008046936e-03
-1.569257303007724758e-02
-5.731763719469096241e-02
6.474796440929297958e-03
-7.074920490094571690e-02
-4.093279287733316701e-02
-3.071805548883956363e-02
-2.692598181519089556e-02
-2.231652890490182575e-02
-4.377537875630777009e-02
-5.048051098853191532e-02
-6.109321201630640852e-02
-3.864673456082909353e-02
-2.939697696887182479e-02
-4.355654574272924129e-02
-9.954536020473189750e-02
-1.194500736033804467e-01
-2.649914694620237807e-02
-3.584707989697452635e-02
-2.512927610201474635e-02
-3.286514924164228579e-02
-7.018523699007135630e-02
-8.194557506906163802e-02
-9.449082962365168425e-02
-8.326440546547680954e-02
-7.529462059418141895e-02
-4.928725989637925547e-02
-4.760019457955438210e-02
-5.639453783968079170e-02
-4.433559010520565780e-02
-7.849171988231345987e-02
-6.647929641054448058e-02
-5.886113594597713883e-02
2.302849828864604598e-03
-4.927181127545138262e-02
-1.134633619673165172e-01
-4.620775714684592639e-02
-5.242167444825569095e-02
3.535855020440965835e-03
-6.522956261079876361e-02
-4.242036625113267817e-02
-8.415091632261731402e-02
-6.155473132621839399e-02
2.365129880516143868e-02
1.990703792574949338e-02
-5.493548511452069766e-02
-6.710463995778923052e-02
-2.162390999819698012e-02
1.839049742723350422e-03
6.830442685796134228e-02
4.409226868951360290e-02
1.507672581587828076e-02
-1.408156794653516591e-02
2.854223758979537728e-02
6.112856448896951400e-02
1.791711800372475238e-02
3.072367242606534321e-02
6.558274043483260096e-02
4.740271584284358464e-02
1.314090054905064642e-01
8.251073097938467493e-02
8.051199045316187464e-02
9.885914147178273548e-02
8.216312909867296010e-02
1.025807018994327885e-01
1.288900826266516364e-01
2.234137763743286598e-02
1.227835387994662131e-01
4.055553874414675325e-02
1.273209607446829095e-01
7.809415166730034052e-02
1.311862047636591366e-01
1.350749947911621951e-01
1.012906238609714571e-01
9.654717609937474299e-02
7.827992694960400621e-02
1.004397238852679092e-01
1.052550774631522135e-01
1.013524730945808139e-01
8.015653276152368001e-02
5.408438957577554884e-02
8.117929484441556431e-02
5.434208905705951997e-02
5.855880511178720993e-02
3.478858453711880516e-02
2.995583062899687121e-02
3.442378546453825350e-02
6.016095154309577392e-02
1.594180924469368321e-02
3.824679581998970818e-02
7.225539923527674047e-02
1.273582743079571811e-01
9.534648597168393636e-02
1.120977944039776714e-01
1.595202635256640911e-01
2.438681392342465504e-01
2.673405170640889006e-01
3.372645923540604773e-01
4.271801756772712899e-01
5.547937578228657740e-01
5.522158001061101551e-01
7.042038425227259424e-01
7.772069078992426272e-01
8.719047636799256429e-01
9.334963649728256208e-01
1.007493105507252018e+00
1.031289904382435063e+00
1.113086794380286904e+00
1.124661269015684972e+00
1.142622312448078326e+00
1.144867338824670400e+00
9.964923390442738116e-01
1.053619547772122633e+00
9.465162922991403605e-01
8.700132737053040133e-01
7.245447800325390819e-01
6.982077720799617637e-01
5.477802953031091215e-01
4.626809623038737329e-01
4.292851694462664347e-01
3.742171684914356589e-01
2.573800805048570561e-01
1.795279157768779332e-01
1.802184060988325232e-01
7.851759111084072318e-02
1.223551507846593889e-01
7.541986588307658668e-02
2.661895565189376089e-02
3.068900208965640725e-02
4.866196440566882692e-02
3.935437965631626012e-02
-1.749204984837202104e-03
3.196277226470515404e-02
6.530565756214633255e-02
7.753942092844391676e-02
4.015909252773234434e-02
3.845273719118588035e-02
3.615296587173778831e-03
2.452480707682674205e-02
3.874002517237531279e-02
3.561094334890554242e-02
7.302638824153225017e-02
6.705699435207890247e-02
8.932031665208836624e-02
9.684739032456618490e-02
1.067732980244369967e-01
1.268839927464641970e-01
1.379855269789236616e-01
1.215912228242734816e-01
1.336307289201333348e-01
1.089435184124140227e-01
1.817034603123779402e-01
1.413033751603157140e-01
1.957551563656962368e-01
1.536248079653640963e-01
1.628521177180894952e-01
1.488369072958746764e-01
1.527021100214791260e-01
1.691018294400917221e-01
1.790586928694116453e-01
1.831134603663517879e-01
2.008023409531799475e-01
1.791176905023268429e-01
1.330132682917057052e-01
2.035786076727002514e-01
2.048331875688514381e-01
1.762450327057378252e-01
2.259741993802970028e-01
1.493831784279752994e-01
2.074588929371597446e-01
2.200502833171525119e-01
1.972491216035569261e-01
2.281673914565210681e-01
2.625390537147448411e-01
2.667926387340543437e-01
1.999641609349797899e-01
2.298307152584415369e-01
2.004219803488403728e-01
2.129145680986573308e-01
2.046002448347176428e-01
1.635665546460343400e-01
2.236044270930968580e-01
2.000939462740939923e-01
2.548451503290630749e-01
1.389803967705757481e-01
1.353204654858041200e-01
1.634660172271011902e-01
1.660633156245842068e-01
1.448817576258097928e-01
1.056241858161869052e-01
1.749854944696324632e-01
1.576328610854455248e-01
1.089333262514588507e-01
7.536643710498863724e-02
1.393014560176371042e-01
1.549174062685086950e-01
1.013609196051277334e-01
5.914767239287936629e-02
1.184633778355236866e-01
3.936992956624530554e-02
7.743731172919751660e-02
2.591816535417276052e-02
6.204988901773168114e-02
5.558179153726565402e-02
5.113320534865468253e-02
7.408181574376127010e-02
1.497810239929145415e-02
-2.821527621815783649e-03
3.162931279961031517e-02
3.280981766406845801e-02
-1.584646272258863342e-03
3.745299916105742505e-02
7.068437105821757938e-03
-2.237903858034832189e-02
5.777135869822522252e-03
6.534586324936836332e-03
4.678382996578599184e-03
-9.964388723231437650e-03
-2.622739362932921883e-02
-2.835136142827381425e-02
-3.700652950385881906e-02
-3.200050748164597753e-02
-9.798240607481953357e-03
-7.317956453749965146e-03
1.625469435403190110e-02
-6.862286628652746606e-03
-8.038730373682974328e-03
-3.365605295524489587e-02
-7.700750347982709965e-02
-3.394816707582664489e-02
2.086108505321207160e-02
-6.904103853728721374e-02
-3.334298179585785948e-02
-3.039546963175159683e-02
-3.063245483786819490e-02
-7.416625946773361400e-02
-6.524688362742046832e-02
-4.456254268181356060e-02
-4.136299381488847682e-02
-2.994337665113154870e-02
6.905644070365105081e-03
1.329192835342582479e-02
-3.652530859304096988e-02
-1.840100856258004153e-02
-4.489292079176186723e-02
-2.207498915590202018e-02
5.645339701462363108e-03
-4.068598120141295876e-02
-5.700714341334046920e-03
-3.085873731887853189e-02
3.835902090760290317e-02
-5.171084560748927250e-02
5.232970737436070524e-03
4.711601509859059816e-02
-6.263009709662126223e-02
-5.081037775378004911e-03
-3.346579239699039310e-02
-7.152484474965735417e-02
-8.175708666307082706e-04
-5.501914639860958772e-02
-2.260622778778965947e-02
1.066066876642302735e-02
2.455631849208289585e-02
-1.107972385641988085e-02
1.107685783512997804e-02
-1.511375314746798634e-02
-5.773609848864352800e-04
4.179775489629057594e-02
-2.791502697308011205e-03
-3.710211721617602543e-02
1.856601666606985321e-02
-4.425411584587445740e-02
1.148784727278799947e-02
-3.022447786785217166e-02
-3.668794493464217626e-02
-4.910660543478755774e-02
2.066513421620536084e-02
8.909495219431455559e-03
-5.555724821350676440e-02
-1.433113175352796267e-02
-6.255779389583434463e-03
-3.837638680735090679e-03
-2.935579347058434735e-03
2.890548192496375166e-02
-2.141864253233177057e-02
-6.043756236242130153e-02
-3.644458722276394669e-02
2.404996397206336442e-02
-2.183006348331793453e-03
-9.065820626650517022e-02
-8.186638577942712339e-03
-8.071108863850352810e-03
-3.134687943094102702e-02
-4.998497074339350310e-02
9.817460036973906651e-03
-3.071840723273332532e-02
-8.443548879561616621e-03
2.068280381801188700e-02
-6.106921592330941118e-02
-3.277556880383589860e-02
