1.055167337443378983e+00
1.051330831277672795e+00
1.013485662079248950e+00
1.003287520220981888e+00
9.224693709416180720e-01
8.600985951118146344e-01
7.613614062884141998e-01
6.974900010809996775e-01
6.386313765483965232e-01
5.000980417241339682e-01
4.306387805304809357e-01
3.913108274509378148e-01
2.570554472770238963e-01
2.707609013235354745e-01
2.147871772563614556e-01
1.222007859002026131e-01
1.229542667137883266e-01
6.020485611623432876e-02
9.216475964438274049e-02
3.523569435211615364e-02
7.047850156753354689e-02
8.379152076875487354e-02
7.465837254953808233e-02
3.620417690642627195e-02
5.901551898387981387e-02
4.493538061481799906e-02
6.575600030185344003e-02
1.178567234984547879e-01
9.698266396815041768e-02
-9.126497843070551647e-03
1.140424177952138601e-01
6.462721171025252731e-02
1.040364122037451822e-01
7.856109478871278751e-02
8.228058728730851257e-02
1.067736939361769305e-01
1.297144229963441697e-01
1.182986469129806290e-01
1.018056874021564390e-01
1.126768847369686577e-01
1.096034544092822638e-01
1.416284124664374811e-01
1.575646894284537247e-01
1.701923514484871280e-01
1.620932956214919118e-01
1.787936064372809275e-01
1.995083431977619226e-01
1.288138946769577520e-01
1.871691945343821606e-01
1.559043265693681735e-01
2.183926203647892361e-01
2.332975233444721519e-01
2.045758154985888588e-01
2.508677252891009513e-01
1.716092840980465717e-01
2.514445556366331491e-01
2.514159947060368161e-01
2.541510176666386678e-01
2.243158531444869874e-01
2.623222174177031185e-01
2.639266507051521438e-01
2.451835357791319059e-01
3.029654931093163084e-01
2.467515843226854577e-01
2.593028012666631077e-01
2.398313868460673071e-01
2.768745205520008468e-01
2.563656388576210921e-01
2.446600702785508563e-01
2.781255009460126271e-01
2.389064140327286923e-01
2.274571043224781486e-01
2.138704603860146769e-01
2.743612560019117463e-01
2.332237895586643239e-01
2.613823508124401007e-01
2.609807522529287160e-01
2.131154691271134605e-01
2.073711936903415431e-01
1.910110314448376645e-01
1.884818405593766122e-01
1.901808578555019835e-01
1.416827527073189208e-01
2.364345193289285052e-01
1.485431142530401205e-01
1.295550677852039811e-01
1.722557153243501338e-01
1.798292672789736646e-01
1.592460634931795460e-01
1.292869622854991851e-01
1.158080102304656772e-01
1.351087119965005412e-01
1.024147705427398136e-01
8.153841160977438884e-02
9.818836101942540751e-02
7.511117990619689544e-02
8.248257444340180433e-02
9.120190733213601186e-02
7.047407356878990226e-02
4.001686094710257130e-02
8.322540449523077588e-02
8.274401331771516488e-02
7.567523400012501900e-02
6.682452785850268029e-02
3.616722459460157413e-02
8.791120062329840779e-02
5.082685166637224833e-03
5.671423012223900106e-02
-3.895244126209880531e-02
7.477497774812133513e-02
5.655780477699991204e-02
2.548785012803160555e-02
2.811829959594713130e-02
8.127767256530897544e-02
4.145787007861546219e-03
4.333524783210988829e-02
2.224128473602595898e-02
-1.307070556163993091e-02
7.015215030642953098e-02
-2.935714177827179749e-02
8.091046724192973993e-02
4.331223902165350775e-02
9.120245050997679084e-03
2.952971918798504361e-02
3.486739141594263208e-02
-2.632436835559769095e-03
4.630241447379356001e-02
3.615907594740644382e-02
1.276531571443578067e-02
6.626382613174168490e-02
-6.017947274673095953e-03
1.918433927145905132e-02
3.625855451156873022e-02
4.409411794888672131e-02
4.967738434877423670e-02
2.046101410212343083e-02
4.733351362501835025e-02
-1.402916839325500306e-02
-1.942143714535077628e-02
4.908369663936014426e-02
1.552334899469137719e-02
6.518762903160295330e-02
1.131000308701673139e-02
1.595416758420239306e-02
6.143470938658832786e-02
5.790668736196005750e-02
4.059076236657874204e-02
3.150612411469783103e-02
4.690120022717206294e-02
5.559544066434516513e-02
6.137644191703322399e-02
1.009872225601637502e-01
9.305065369854784163e-02
2.683514430455850169e-02
3.885034316989981196e-02
4.457752293694076939e-02
6.925802513684023443e-02
1.406914684728295672e-01
1.271765231836419763e-01
1.443626841078221312e-01
1.090816758130370712e-01
1.057941552738815016e-01
8.711786096038022509e-02
1.250090720061390326e-01
1.061352879218119549e-01
1.273675457583010873e-01
1.741018483573620879e-01
1.275114775719840554e-01
1.680552360774589804e-01
1.081454023127684794e-01
1.147697519965446000e-01
1.314566614229677743e-01
1.632711328113554405e-01
1.413616766843360795e-01
1.721084653169799028e-01
1.891646605123074032e-01
1.385510600660174729e-01
2.284363728974798113e-01
9.398123815630510247e-02
2.152091779543651162e-01
8.455125119178931448e-02
1.503333625477932256e-01
2.126293587106909133e-01
1.804527570333317177e-01
1.432922107095987163e-01
1.578020907322819077e-01
1.329504628400682842e-01
1.381730921013024360e-01
7.433784678001439938e-02
1.494459050664486699e-01
7.918185897162600961e-02
1.079902934250265567e-01
1.220584220534516179e-01
1.798585230950151548e-01
1.508094070890439453e-01
1.961548990166733786e-01
2.631144315676265943e-01
2.784818372979432910e-01
2.692616982682246585e-01
2.890911425926035450e-01
3.463657445908961963e-01
4.173270900640567715e-01
4.374135103785997125e-01
5.618933225239590712e-01
5.957898975903003214e-01
7.197877673741518434e-01
7.785708331314815656e-01
8.818609742785745720e-01
1.020265563869520831e+00
1.014231768634965780e+00
1.030233772813979654e+00
1.089646308940966923e+00
1.099653244570871768e+00
1.109217563619046887e+00
1.031066845903739093e+00
1.005406596887880255e+00
9.770059555356207515e-01
8.925501529552171132e-01
8.705325047989909137e-01
7.518492477922222861e-01
6.457279945637671714e-01
5.579850505690325813e-01
4.943994916545189633e-01
4.459396257692387344e-01
3.240725339201483979e-01
2.673553252293234817e-01
2.655709143102402692e-01
1.663528329746918055e-01
1.719618683314590724e-01
1.602073844528458524e-01
1.047281577357604965e-01
1.778651683259156457e-01
1.351894712857152903e-01
8.317922515883194312e-02
1.339693549756269253e-01
1.643414591109344514e-01
1.383090766245382575e-01
9.177441493444257747e-02
1.085310515446417240e-01
7.977627388636984729e-02
1.049088577113714282e-01
1.153731503355432952e-01
8.770147298700514682e-02
1.329418653136718032e-01
1.861799242608222771e-01
1.514037228347546726e-01
1.460119043737236055e-01
1.916840161528817199e-01
1.844073391118711269e-01
1.320768008944310234e-01
1.808236468490961035e-01
2.295117235071792439e-01
1.646367175240100456e-01
2.183918128890506294e-01
2.311792626135620865e-01
1.938563800964649420e-01
2.658293513091344873e-01
2.062649576144092167e-01
2.778613746877357515e-01
1.942596395591732472e-01
2.455579007090672450e-01
2.446073090237390057e-01
2.970977666098618686e-01
2.836787091918390180e-01
2.819514896478135246e-01
2.753047376669500723e-01
2.799768455756287966e-01
2.595177264784832571e-01
3.617721334933692301e-01
2.935948030883311910e-01
2.953739717776202589e-01
2.759835108261256553e-01
2.838112057386078524e-01
2.812422868187612890e-01
2.524233132918598521e-01
3.127552288816018988e-01
3.240295820445461827e-01
3.133647865180556602e-01
2.527771001731739520e-01
3.100452622630112121e-01
2.501618609002190241e-01
3.384587823463233169e-01
2.734088688120182575e-01
2.647106694745470779e-01
2.303389400275248633e-01
2.580901951784695392e-01
2.844685096745669939e-01
2.388508758552917721e-01
2.368345847771418655e-01
2.525427754010330372e-01
2.279600845899497630e-01
2.146752104574022324e-01
1.961148035337290929e-01
1.941299156327954134e-01
2.463443301598907120e-01
1.943075266254485900e-01
2.020659145825942360e-01
1.800845823135159562e-01
1.789212577790273706e-01
2.125787958203843864e-01
1.515685104680226658e-01
2.066768483431506431e-01
1.638445856179736593e-01
1.874431446851791139e-01
1.069057336467265501e-01
1.941637147433505350e-01
1.246786489859677965e-01
9.427460349490564273e-02
1.389740694899809226e-01
1.562913287716647948e-01
1.262078613467400579e-01
7.654570252687958876e-02
8.490169753916256001e-02
1.075750372200497962e-01
1.489126315198526784e-01
1.052032222877658241e-01
1.477994263720680268e-01
8.393995719876165551e-02
7.784732312617445582e-02
1.059842696373858445e-01
6.342406608417065772e-02
9.809073891058880945e-02
1.178840719901503853e-01
1.218931113650408848e-01
6.524901726028853322e-02
3.681716007489867215e-02
9.230314630533134612e-02
8.423829343868496911e-02
5.283054188757468211e-02
1.403879428632958670e-01
7.342140654547114897e-02
4.528094117584624545e-02
5.600820639510431520e-02
9.236744309745743842e-02
8.023297210427332571e-02
3.466076628069125753e-02
7.480242637901637903e-02
7.275529936594814229e-02
5.782778736348737070e-02
4.301145063776543737e-02
9.905776322018775004e-02
5.572747666394073374e-02
5.442462061096416809e-02
6.806563353734004784e-02
5.137038972589155761e-02
5.456208771939634328e-02
7.538880443244666552e-02
9.389901100127986955e-02
9.811846858486550360e-02
7.985243732022179186e-02
9.014356822661646895e-02
3.475414083765927808e-03
5.273202397198334390e-02
9.568206390918111703e-02
6.671010763157869672e-02
3.209579838130103419e-02
7.446789130828275483e-02
8.106793937627350399e-02
1.104948319861001338e-01
6.887449165875435264e-02
8.596782373837602576e-02
1.351076431149121349e-01
7.097515038399715426e-02
9.795169050078744721e-02
7.245216097783663267e-02
8.400202771734097129e-02
9.547810034194960382e-02
1.446267489780616033e-01
1.676022812244524762e-01
1.891450751530109331e-01
1.496396494368705810e-01
1.485724946359321397e-01
1.721417973614938202e-01
1.413695530791842792e-01
1.575314506224367306e-01
1.656485455843620669e-01
1.652022235087372004e-01
1.834883700326229716e-01
2.186281320387979399e-01
1.957890617782607479e-01
2.126280831335080335e-01
1.735160552819006718e-01
2.384117642571256246e-01
2.003154902811090932e-01
2.241008184901485678e-01
1.759318300972830817e-01
2.199745001267004452e-01
1.629742349047931249e-01
2.359405812000333891e-01
1.835301105693795121e-01
2.277344745935657722e-01
2.124231187823928946e-01
1.625118333148381500e-01
2.021417965254743709e-01
1.945491714449376075e-01
1.810388638388682747e-01
1.676109241399137417e-01
1.804080075432315244e-01
1.932273777915447244e-01
1.590815906457136164e-01
1.733881318696779417e-01
1.587571235829593752e-01
1.522819671257854002e-01
1.265566129196418754e-01
1.818478194234046108e-01
1.885633848592602468e-01
2.005261559064178134e-01
1.845579891006927653e-01
1.935339507016933802e-01
2.478060026893748047e-01
2.696680414879420451e-01
3.354293251380872642e-01
3.779504113156708089e-01
3.902196187438006225e-01
4.869152732951102514e-01
6.195539640865230790e-01
6.882193681612628344e-01
7.298605776403843670e-01
8.357152057671874967e-01
8.825039660374534023e-01
9.335561974667809793e-01
1.035688760110139439e+00
1.035128251718829828e+00
1.106387910635037608e+00
1.117684997882818054e+00
1.136277630670392780e+00
1.105943785300275817e+00
1.039557414659070034e+00
9.691719474944731072e-01
9.339707528339269427e-01
8.762542584326452610e-01
7.898780744628536299e-01
7.357154063548428935e-01
6.010182182457088906e-01
4.901539965919127217e-01
4.575281201654601282e-01
4.451545460988444169e-01
2.437279046767000801e-01
2.844584354055735842e-01
2.468116771388340069e-01
1.499384048027161964e-01
1.636664980840449868e-01
7.886029967490740256e-02
1.130819061130512448e-01
1.558242974733958230e-01
5.933790775469244966e-02
9.420627475457160616e-02
5.811331340443019050e-02
1.685237161328157207e-01
1.314510585458013026e-01
1.129066781742330411e-01
9.514263746696835500e-02
1.246272817852284720e-01
1.221677069801539450e-01
1.242496507326224520e-01
9.192148610285405530e-02
1.571307786714009613e-01
9.067849338842426388e-02
1.432008841310631331e-01
1.679146594099534540e-01
2.019689278131683863e-01
1.241577822057193525e-01
1.822807082214806529e-01
1.858385643224320649e-01
2.404535627781375917e-01
2.115846231722332271e-01
1.805375204358816155e-01
2.018142326820023258e-01
1.943291432737907776e-01
2.389221270769485428e-01
1.963776678830007338e-01
2.665595085178446566e-01
2.578595081152637580e-01
2.231526352756984244e-01
2.082372028163999578e-01
2.622439922613011842e-01
2.954798880930831206e-01
2.599807192491716545e-01
3.108604426077815064e-01
2.895997537102881769e-01
2.659627633326101526e-01
3.317842719924967709e-01
3.233659248435052924e-01
2.875555448775091172e-01
2.623105035037079924e-01
2.817240752741330123e-01
3.087583357882003887e-01
2.567588270303936548e-01
2.635809812860682166e-01
3.136628544855531997e-01
2.557549443149033097e-01
2.599931206841784581e-01
3.184013534465590656e-01
2.502846787908928894e-01
2.409977992227694821e-01
2.434686944880862514e-01
1.931577284085337354e-01
2.660805490858411115e-01
2.541253439171260453e-01
2.428831914974864670e-01
2.304201271504552617e-01
2.311931647760914754e-01
2.437883800178583249e-01
2.677409561386334125e-01
2.342374019725178003e-01
2.399890157874150776e-01
2.748622570271007648e-01
1.843758364722384580e-01
1.850230166121851760e-01
2.182655627417126598e-01
1.592297600439943617e-01
1.438848425506365492e-01
1.393334259393809449e-01
1.516468858931139529e-01
2.085204998248928188e-01
1.206452148906655697e-01
9.441881258426182422e-02
1.385121978393030751e-01
1.488747472304694508e-01
1.173637333944516914e-01
1.132146164835463736e-01
1.144791656007846936e-01
1.765636247705124340e-01
1.054247610705633942e-01
5.290573012211767512e-02
1.170625041494401108e-01
1.029294590180604013e-01
1.051068431939750358e-01
9.456941395562171171e-02
4.041360515402501324e-02
2.321185505643597741e-02
1.348876851563842738e-01
4.692627331099476218e-02
6.601291209079257483e-02
6.309902469125962254e-02
4.111351151411172383e-02
7.853741924299517674e-02
4.173786255737071266e-02
5.891184225730868723e-02
2.769543640785895183e-02
-1.783635793100622063e-02
1.791750462690335638e-02
7.735224112730251789e-02
-1.905512709764231594e-03
1.968843172789007390e-02
3.263478959151240588e-02
5.364529350860460649e-02
1.103658713276820524e-01
2.732554550939289215e-02
1.436246063110304186e-02
5.485724837199873472e-02
7.619078897356554997e-03
3.849167700755172505e-02
3.953599684369735190e-02
-3.578144429522853165e-03
2.868762151729724666e-02
-7.602491107472974380e-03
6.024437104411048405e-02
1.467645082768756840e-02
-5.414327953756195577e-03
2.101098158522926584e-02
4.256353790946504345e-02
1.302497710668631091e-02
2.832134946770867995e-02
9.874312279425683653e-03
3.592237084908400657e-02
6.771275883865029988e-03
8.377931700603216680e-02
7.933546972990446200e-02
2.704643322556553320e-02
4.379649358344239740e-02
6.088494346891524384e-02
6.460664294788970308e-02
7.012888702250141826e-02
8.020964264049783299e-02
3.514203216231792659e-02
6.184247249567615540e-02
9.041687061518469126e-02
3.879323614617548321e-02
1.257426465709367003e-01
7.662072206011778797e-02
9.387018653417045222e-02
6.267001073521527577e-02
1.032940784550713392e-01
1.184114053149775275e-01
1.570036434168693429e-01
1.453002023039277057e-01
1.425472601497296543e-01
1.519806914599638459e-01
1.183711197620864741e-01
1.786363109301761509e-01
1.741455894469565169e-01
1.240901404679733838e-01
1.794305234008840289e-01
1.914352050870804789e-01
1.597504794232788017e-01
1.931127266015645050e-01
1.218103571615299086e-01
1.562759386877189960e-01
2.227349157059836937e-01
1.816766072576369018e-01
1.486007308079942968e-01
2.117890365049406587e-01
1.542334597779929650e-01
1.754316633938895476e-01
1.397505442446677904e-01
1.745198507716892167e-01
1.433848244141889550e-01
1.267383526964700191e-01
1.278357786878612512e-01
1.734570627639165363e-01
1.143385821491628429e-01
1.611990435716873227e-01
1.419209626935398483e-01
8.695937653812699231e-02
1.317002316353614033e-01
1.229244533828307007e-01
1.287344764940100694e-01
1.038322826551952016e-01
1.696560618997279557e-01
1.705559731459659056e-01
1.653015811123140499e-01
2.450608496898567523e-01
3.441501653429651642e-01
3.084872644925668594e-01
4.131023080302583805e-01
4.367771054144258258e-01
4.980537390312972934e-01
5.891777257048735894e-01
6.716348498865790662e-01
7.426487383202891035e-01
8.343930338597705942e-01
1.003540584052740492e+00
9.740451070107299936e-01
1.023197231600625035e+00
1.102989322080886403e+00
1.085606147492970797e+00
1.050776860720404215e+00
1.038121605449435103e+00
9.430966845898955953e-01
9.471421619313101781e-01
8.627677818540694377e-01
8.185000427046260629e-01
7.740747594266743636e-01
6.668764716228109402e-01
5.449444203795744679e-01
4.563707043099453631e-01
4.591686976813898480e-01
3.309475965626081928e-01
2.682982393132504750e-01
2.613047709607680402e-01
2.032353527426940809e-01
1.618864620694107082e-01
1.392584385611130571e-01
1.638837221161738855e-01
3.764860295340748120e-02
1.017809955355314933e-01
3.151955692866954817e-02
5.752562199770500095e-02
2.052034860419377563e-02
8.187716406178087436e-02
5.874176155971983643e-02
1.144086277463797208e-01
1.166980088522085873e-01
5.270057837629141262e-02
5.060236117535471534e-02
5.359836994237281854e-02
7.944813562166214149e-02
7.035820048742047472e-02
1.146845574394450284e-01
1.308928173132071215e-01
8.447666486829462362e-02
8.528068113790153448e-02
1.595285537926087738e-01
1.419525048961659264e-01
9.760390584391656632e-02
1.554384135108756448e-01
1.589747496744355060e-01
1.774104807441175546e-01
2.503560585706713359e-01
1.405556777532206147e-01
1.737098427110581600e-01
2.191259552713927250e-01
1.427959651344274383e-01
1.695467099877878969e-01
2.275227895293735758e-01
1.534383469358540086e-01
2.284663267188925817e-01
2.017480194774373126e-01
2.206478617850471391e-01
2.373855066879605180e-01
1.972969444701292707e-01
2.189625585107707328e-01
2.304296080881814146e-01
2.594020508551890813e-01
3.052097496070058091e-01
2.755243090351099378e-01
2.313841816409946406e-01
2.684614802563295988e-01
2.842308075399917477e-01
2.471886356715061739e-01
1.866880506748595792e-01
2.718127421765980656e-01
2.268478953204129400e-01
1.960001022114153946e-01
2.662694570479151590e-01
2.666948955643360097e-01
2.622841332437182427e-01
2.132435932495530262e-01
2.448450565722946060e-01
2.379112142583159062e-01
2.172418909254744124e-01
2.229724585780406831e-01
1.966588498274599861e-01
1.397247048832478966e-01
1.614607099482207320e-01
1.538526551830346201e-01
1.537605083722431154e-01
1.655828923306486011e-01
1.675977919711339192e-01
2.011911504514193871e-01
1.913692762099165889e-01
1.165528301538768935e-01
1.481282253273761562e-01
8.986753700080338247e-02
1.809234995734663176e-01
1.323842109495863562e-01
1.174052461684921556e-01
6.641190717367762009e-02
3.087220008782076003e-02
8.083653305374269293e-02
6.604202530504137136e-02
6.783478037817103345e-02
6.322457891032801092e-02
5.446522310798804223e-02
2.379642116653165815e-02
6.204664080976717011e-02
5.649639870246059292e-02
7.916311287898379623e-02
3.836775084989134388e-02
4.104055764617351582e-02
9.782170267598852553e-03
2.762742879172110089e-02
3.975659918222827077e-02
7.046609002807457944e-02
3.064109421301162983e-02
2.918816026466438882e-02
2.778909911272986824e-02
3.839589265848881300e-02
-6.445777934767929485e-02
1.766187165469775694e-03
-1.502158218730321494e-02
2.789188603561612925e-02
2.965989972388032719e-02
6.931036815680460816e-02
5.208570979307082516e-04
9.030191433083204627e-03
1.056914136749020905e-02
2.679234263553686990e-02
-2.347824480346875561e-02
-5.151113568594388459e-02
-2.551577190119328972e-02
6.719743619880216845e-03
-1.630989120114830632e-02
-1.288351426489233419e-02
7.856067027145162418e-04
2.457037301814223029e-02
-1.810238143125539323e-02
-1.195018180548491384e-02
-8.091168440367425829e-03
-3.756370402994424484e-04
2.118566642791402249e-03
-4.908099725712028460e-02
1.580543893891113438e-02
2.016677818506737441e-02
-3.683925778262867046e-02
-1.359324445529475414e-02
-3.890753969774190385e-02
2.201794524843925238e-02
-3.601710851176775918e-02
9.714410512871422126e-03
2.917779521943848070e-02
6.567514096508023785e-03
3.328345789797169940e-02
3.056181223605083583e-02
-7.895150201716414490e-03
3.416759180572800925e-02
5.072150995750869529e-02
-4.293309359267927228e-02
5.343544975994911350e-02
3.258112804391043171e-02
1.660975497087278235e-02
5.038195272099123961e-02
9.118507051835891830e-02
9.434111018051570541e-02
7.571329182603360464e-02
1.033848735147066961e-01
8.578333231268499282e-02
6.937578903467613023e-02
8.577260550932161443e-02
4.812813557874987686e-02
5.412189445314209701e-02
8.928320307423719127e-02
5.558167436115124538e-02
9.832337693788319177e-02
9.120510035464160503e-02
8.800853024856393481e-02
1.158395967095594420e-01
1.033237232011826601e-01
9.314091844447737467e-02
1.063801334050306080e-01
1.394996475792602830e-01
9.520580001323518393e-02
5.102168822876003429e-02
1.180437006534889310e-01
1.218898260053590671e-01
1.149969736551556959e-01
1.050782716552279006e-01
9.622332596490093537e-02
1.171201051548474148e-01
1.582005960627601293e-01
6.383373054283414394e-02
9.843856036296994017e-02
6.883602690470047580e-02
1.135915151448329552e-01
5.708657291131970929e-02
9.750074154389574976e-03
2.950086995124027306e-02
1.074386548857451384e-01
1.368670265064286240e-01
5.519212633952693542e-02
1.651183075149958712e-01
1.338481335882869827e-01
1.772556457021350895e-01
1.910827172001682006e-01
2.157609278019575472e-01
1.988867271845497220e-01
3.048978577260600398e-01
4.442873525999262441e-01
4.639728557837816125e-01
5.197986176428103233e-01
6.437747013680883423e-01
6.970228886389201461e-01
8.486647641444264867e-01
8.329859981814048409e-01
9.715299747069215952e-01
9.767196815874116256e-01
1.004799102087012175e+00
1.023268609691876607e+00
9.815253091046818312e-01
1.006768059509051350e+00
9.430288769407497718e-01
9.302621483164444927e-01
8.593634820879374470e-01
8.202468493746454259e-01
6.841369951400737559e-01
6.065761751273228697e-01
5.322633662961224754e-01
4.685655645733662888e-01
3.699743746110024101e-01
2.501132831278626845e-01
2.624725751657507322e-01
1.729374993307790653e-01
1.511961952041674939e-01
7.985043876049562062e-02
7.120922088813255724e-02
5.165230347459406901e-02
1.000136016511582460e-03
8.662843508974280016e-02
-1.327584239212151879e-02
6.332956540955204938e-02
4.773759149832314946e-02
-1.233895436042901916e-03
2.464652560954538191e-02
5.800094394336610670e-03
4.125042469621947872e-04
-1.687951460377257185e-03
1.397338813005261082e-02
5.717990490987783642e-02
2.949587180482399901e-02
5.485582920072449437e-02
9.080982170743923110e-02
5.738862155403044729e-02
1.312442301287548296e-01
7.814875210199684341e-02
5.224606285891929269e-02
1.225164567118873504e-01
1.219653061097462632e-01
1.675862555284477751e-01
1.172785535860617900e-01
1.119581759885701633e-01
1.026650801136549385e-01
1.054710382579703010e-01
1.430438239045674909e-01
9.882144756615374170e-02
1.546902299867010944e-01
1.493665795600360169e-01
1.339556495813505610e-01
1.743770336710962765e-01
2.390676797473706983e-01
2.108574023931711339e-01
2.023039447537796631e-01
2.049087092981952962e-01
1.752554576759904892e-01
2.120408486641948698e-01
1.936390124535825041e-01
2.145072550454644178e-01
2.085283882955552837e-01
1.689217069328810550e-01
1.885524333963525812e-01
1.640733989565382467e-01
1.820513374560342179e-01
2.012782002561549766e-01
2.193261985132489156e-01
1.853028175419473289e-01
1.811065551022000841e-01
2.348379171276361310e-01
1.010383818252146709e-01
1.778515666828437702e-01
1.805019794356688412e-01
1.841871949038901002e-01
1.769907775933363958e-01
2.061992950226073373e-01
1.397242227423939054e-01
1.702409366537286362e-01
1.415425461183197064e-01
1.528080606294005550e-01
1.273071427426316904e-01
1.246421905185740031e-01
1.082737697669142046e-01
1.051807923601119771e-01
8.761304693528007559e-02
1.001038434698647561e-01
7.495508300715363059e-02
1.080514931065746365e-01
8.927616121049855580e-02
9.573164784258325621e-02
5.816426494001525338e-02
6.674290294300186388e-02
3.682585543583326293e-02
9.309939159939861764e-02
6.264264406160760523e-02
1.154993694939147053e-01
4.373920339648033895e-02
4.861856029892951819e-02
4.777871810845969736e-02
2.837098014400021850e-02
-1.782221890968845729e-02
5.889886148378695174e-02
-4.090759575722718866e-03
-4.020459307766857671e-03
-3.349875363460950300e-02
3.598789347837173802e-02
3.115010327271375279e-02
-2.150208954111273996e-02
-7.377074558162367846e-03
3.634900265645985701e-02
-4.423318255048529213e-02
-4.374230207370447682e-02
-4.323650892892437481e-02
3.395204354958436532e-04
2.848243316302417200e-02
-1.506718353875751565e-02
-3.021697750072804833e-02
-4.481023094733963680e-02
-3.123213714594520740e-02
-7.054126080657768805e-02
-4.370073934128941573e-02
-1.042975556884478960e-02
-4.121716570616690278e-02
-1.789062377741831855e-02
-9.582905833651197969e-02
-8.502634878460979539e-02
-6.993749574995028473e-02
-3.868391097961832586e-02
1.811711047933499408e-02
-9.496967269574117798e-02
2.463497029185021669e-02
-7.322036910661505749e-02
-5.273377122218263213e-02
-8.109747240180834038e-03
-6.365076535666912283e-02
-3.161236831309882644e-02
1.454564314900144706e-02
-3.200046392687885821e-02
-6.170041891176245019e-02
5.522583557733808102e-03
-1.300762083339424002e-02
-2.149922063809864975e-02
-5.105370617654205606e-02
-2.145981883105967103e-02
-1.082877735319046075e-02
-1.862684704248403211e-02
-2.765381710461665976e-03
-4.861548480613278600e-03
-8.494850726486570525e-03
-3.617219552581180109e-02
-2.703770782464207101e-02
-2.524021024532659835e-02
-3.772046207511529914e-03
-6.566014299641494134e-03
-1.055433027812115870e-02
-1.111142140941676071e-02
5.723351380319827153e-02
4.431878005009513843e-02
2.511027629600858652e-02
-1.960550035445631639e-02
2.353292149457265892e-02
4.106921157655894772e-03
5.278632679723566784e-02
5.786554619669303373e-02
6.481935613995865042e-02
4.882133062367469134e-02
1.146563880484829656e-01
8.769252529059744228e-02
7.460422820226267349e-02
7.294292106062449932e-02
8.475919465143541554e-02
1.345594192493653474e-01
6.467175631807803304e-02
9.854891621097890131e-02
7.729706150146878341e-02
1.209048414858728548e-01
1.322807571415566541e-01
1.266976861958025724e-01
1.357058863578245733e-01
1.086809431967017264e-01
1.023854916171153540e-01
8.467830540549320384e-02
5.232366027294190619e-02
8.215617434304028910e-02
6.000630599084488814e-02
1.025725525526246795e-01
2.060224069009870124e-02
1.150536004270656248e-01
1.399666450922212174e-02
8.323044024960986331e-02
2.329951134891791731e-02
2.674389353610114733e-02
5.801317554742815852e-02
6.533923964430843334e-02
7.096687441122856432e-02
2.591707810275110935e-02
1.007704456584610220e-01
1.325649512869691571e-01
1.140981995647133984e-01
1.634650439762095897e-01
2.204404054420268655e-01
2.133036964604486108e-01
3.347535130757883781e-01
3.526639332718962683e-01
4.150860729039038133e-01
5.200317983836334479e-01
6.245360520048782726e-01
6.888680994866578366e-01
8.436661195739897368e-01
8.694423600570519994e-01
9.058022770455533834e-01
9.717537247853442750e-01
9.666606471130112510e-01
1.044023644244460147e+00
9.669808442800470472e-01
9.783122940751874941e-01
9.259912031454635706e-01
9.170584330832469711e-01
8.679234702045959260e-01
7.810181892388173841e-01
6.655037571486394077e-01
6.374576745470724726e-01
5.168358241844848155e-01
4.709954972461246614e-01
3.505455701184578832e-01
3.271162254107794487e-01
2.245994171594287436e-01
1.726238019063845441e-01
7.311744915790914512e-02
1.665173999124277548e-01
3.333678143163777002e-02
1.165900977564083840e-01
5.875296755008612565e-02
4.612169227456133086e-02
-2.124932775148520581e-02
-1.310818894514972216e-02
2.369054630609221390e-02
1.175997656440726236e-03
-5.846680145326119127e-03
2.838219551915831251e-02
2.753240470684941571e-02
6.016328132764248854e-02
-3.531233409730362427e-02
1.697468590332476546e-02
1.455884685982927751e-03
6.679663144431988164e-02
3.574213293124556268e-02
4.163497655695879568e-02
1.239937404501084695e-01
5.784398150127574578e-02
8.127783883771071138e-02
1.057610192459423060e-01
5.370837264627632140e-02
1.535116905392521769e-01
1.067858179579977140e-01
1.073293803141271152e-01
1.520960038057667107e-01
1.415006236733313827e-01
1.806853651937905814e-01
1.427774627103212401e-01
1.309822084223788152e-01
1.833820999474954361e-01
1.435278954436591814e-01
1.906265328946671334e-01
1.405060026486543712e-01
1.691854342361756580e-01
2.202550417128923688e-01
1.857753405157274995e-01
2.353342576670763575e-01
2.329832573182437361e-01
2.447873760128067566e-01
1.805848402439478306e-01
2.209298170945586393e-01
2.482943058779988610e-01
2.428302581262043458e-01
2.338000953990256037e-01
2.048597509181729059e-01
2.734278613498367649e-01
1.979494986309008886e-01
2.161435408637459588e-01
1.721422731915077386e-01
1.757301488494483199e-01
2.298219978791492535e-01
1.611191318223058611e-01
2.052753863529154787e-01
2.399220898620141873e-01
1.398174859644211454e-01
1.662727849985676243e-01
1.570560304166803700e-01
1.906658671831053531e-01
2.173060035177370730e-01
1.814942309531360487e-01
1.520592552838287148e-01
5.667704770665552005e-02
1.342538133080189711e-01
1.322386962500302632e-01
1.098176218223257394e-01
1.521924950768782647e-01
1.540892837049850916e-01
9.345889088234912712e-02
6.540467223428569898e-02
1.057568992582863243e-01
6.534952261930698780e-02
7.965826450183496887e-02
4.780952102291916722e-02
6.458644807478469696e-02
1.265123688714647754e-02
5.997560328816731179e-02
7.955213214503853436e-02
2.945826284154812180e-02
6.699925829018765766e-02
6.158466271454120927e-02
4.967115375792758442e-02
1.378968516151022478e-02
8.430648034012064307e-02
1.643514285738530839e-02
3.576719626587596818e-02
1.739877696583652655e-04
5.668543757343720568e-03
-2.377514367186146782e-03
2.281374374450629433e-02
-2.913293980927790169e-02
-3.152825425316955338e-02
3.570346329775505451e-02
-8.384479782595769676e-03
-4.879702366509361400e-02
-6.703478357771695817e-02
2.085075573212136213e-03
4.593887327807161247e-03
-8.032083003354278938e-02
-3.148000551736956920e-02
-4.850751624879137691e-02
-3.682381814237415535e-03
3.538920652279677753e-02
2.901129914543573371e-02
1.205763649100695389e-03
-5.696229073085371658e-03
-1.591057614194202330e-03
9.035074036190516439e-03
2.014982760160750203e-02
-3.080808537129127445e-02
-3.676909460404793190e-02
-6.136537615661039058e-02
4.040157133514825361e-02
2.502585591163219297e-02
-2.135247007158292548e-02
3.774372438474109248e-03
1.532707736817737199e-02
4.149822262025848474e-02
-1.431597556413462605e-02
2.243688836270862907e-02
-2.711355855732378722e-02
-1.001688680140630505e-02
-2.552985832888085560e-02
-1.140274114360915678e-02
1.606350599299918164e-02
2.278291683833404829e-03
-6.592128807671597535e-02
3.768203463271651427e-03
-7.289622258401864952e-02
3.094844513848240067e-02
-3.356272423569881674e-02
-7.046840470167833881e-03
1.199304203538362895e-02
4.155466573463209579e-02
5.355028110433501798e-02
2.411977792757339853e-02
3.650145805764933027e-02
5.591774191812035055e-02
6.774395170768648944e-02
3.000000328899974505e-02
6.934040605222527298e-02
5.091736968305742017e-02
3.424292878248006572e-02
4.890789155826874568e-02
9.543150757535884265e-02
5.759156292674230682e-02
7.295619475292070000e-02
1.392829935740182434e-01
1.023727589038154751e-01
8.810113778703186627e-02
1.197066416217547613e-01
1.023552240748753783e-01
9.773696024812923711e-02
1.753535157907216424e-01
1.310657480412522891e-01
1.356045877363529495e-01
1.123093618086209861e-01
1.177790876164074851e-01
1.036980760383733047e-01
1.807912214957642094e-01
1.733106298581909843e-01
1.798447177563810007e-01
1.334938381191224377e-01
8.660112566175538762e-02
1.036437352062829914e-01
1.327402037346958330e-01
1.323849147290367678e-01
1.084145789454886155e-01
1.373876882229714824e-01
9.080073730105084340e-02
8.354031705733137858e-02
1.214145765672628996e-01
7.111203507674046520e-02
1.190781453003617041e-01
9.588828153293402212e-02
5.873587051179973706e-02
9.487340383871183114e-02
1.121933079688545443e-01
9.903394443936799907e-02
1.393891453512821066e-01
1.675959353671125918e-01
2.319031884401075994e-01
2.315787813073898749e-01
3.705684381850873343e-01
3.977671708251894755e-01
5.365852579258552080e-01
5.595441226279550540e-01
6.085929417245399264e-01
7.296750801947091691e-01
7.881222887747239003e-01
8.569377212109435815e-01
9.649687399356448037e-01
9.934290364606751522e-01
1.018245392614158806e+00
1.035977977303179864e+00
1.080929800583340983e+00
1.031728025687371542e+00
1.033411501937259169e+00
9.446771191878481355e-01
8.869103793008608072e-01
8.424142092762775258e-01
7.414057155936818466e-01
7.020337066408862681e-01
6.289291009373046970e-01
4.586560180617104687e-01
4.056832835443095475e-01
3.410221543000429012e-01
3.365875747321234734e-01
2.266224299874222414e-01
2.032923681914623470e-01
1.345350965116409725e-01
9.065631110102753687e-02
6.210383357815515287e-02
7.635826572972841120e-02
4.686091821985542694e-02
1.057879953354628755e-01
2.488771880971818451e-02
2.814663898448266366e-02
5.219120452852102354e-02
4.809416076194419909e-02
7.119618442977196371e-02
9.030328469124847268e-02
8.928018185496731929e-02
4.783952388094431241e-02
1.027527141447158177e-01
8.586654295728962660e-02
9.909514009849083871e-02
8.220932387497437155e-02
1.248024264483622303e-01
1.232459777454701921e-01
1.286394733606029406e-01
1.381189869961783057e-01
1.031169733324762833e-01
1.451127904250021639e-01
1.579455126596602255e-01
1.195959480247868606e-01
1.986532399006487315e-01
2.323966390546138572e-01
1.676641826118551171e-01
1.858892895011887703e-01
1.802870044819947226e-01
1.571422964652033627e-01
2.009416761940373553e-01
1.486724011570429438e-01
1.773854652146490962e-01
2.220392131797848667e-01
2.308162276737588114e-01
2.214730128306931778e-01
2.643959959785143754e-01
2.634821065996336142e-01
2.327823867307238226e-01
2.446056012668480495e-01
2.569688480255823415e-01
3.022510350387581646e-01
2.792043957210052496e-01
1.803357905729213173e-01
2.364906649740803057e-01
2.167872314114551169e-01
1.916276625122164678e-01
2.831082601555335865e-01
2.295828526727021757e-01
2.469621270120116452e-01
2.471150480450744757e-01
2.020280331921755490e-01
2.075446151399171768e-01
2.460066916979388452e-01
2.323319460175166939e-01
2.776155742572493645e-01
2.348911640371502685e-01
1.949571938039212360e-01
2.209706409027386576e-01
2.053115988919773094e-01
2.296449905139570924e-01
2.343450455857095382e-01
1.794287654749475158e-01
1.782676778766731918e-01
2.325855987275890213e-01
1.130369923534800258e-01
1.890988152794755017e-01
2.098698026104314496e-01
1.441020231560877218e-01
1.735659442974951672e-01
9.891234643796223414e-02
1.216430138657811910e-01
1.256620436413688202e-01
1.385857975916558182e-01
1.096229517963315525e-01
9.211716873452685528e-02
8.576000826092756990e-02
9.057673564976458092e-02
6.606135414752895008e-02
1.203701994940882120e-01
1.415341790621147955e-01
4.176364595885322800e-02
1.362816524656542683e-01
4.865951250674624418e-02
1.909797832370132772e-02
7.746538652170578687e-02
5.485135500528520724e-02
8.915848897444293708e-02
5.362460942155047872e-02
5.705351848612646992e-02
7.923843238823338742e-02
7.559362618232773334e-02
-3.561881540994727563e-03
4.279716760464508107e-02
3.714729567732903692e-02
5.947833798412192896e-02
4.507986986152257708e-02
3.362743714884502966e-02
5.097066615978921439e-02
-2.800857093150960209e-02
-5.471764021880078099e-03
-3.631680507484436049e-02
4.522025692246174622e-02
4.387495969151965908e-02
5.052632659619561012e-02
2.611612016752085791e-02
4.046699659245578395e-02
-4.741617180866290748e-04
-8.832386056810130615e-03
3.883391939947759830e-02
5.390021751124328409e-02
1.091792878558879749e-02
4.108978076665090184e-02
7.577268609196566307e-02
-1.149885707189961942e-02
3.077277044828963248e-02
8.649606967718306838e-02
7.385852273836733539e-02
1.143358922539673000e-02
3.105760862179831466e-02
2.901023590634398824e-02
6.561514096944140451e-02
5.434682987270011284e-02
4.522360371613682456e-02
4.293644541179190283e-02
4.326049073482376994e-02
2.932230728783368975e-02
4.805504548315224500e-02
4.179237911341952133e-02
6.115981529468510897e-02
2.208553236834255584e-02
8.653640357330263932e-02
7.090313051239266473e-02
3.244878727858569595e-02
1.083711718209912078e-01
4.717641394194352356e-02
6.810543744905159236e-02
1.072668220105094383e-01
9.891530491201905306e-02
9.036760050357176000e-02
1.499494798643872251e-01
1.413896758829230882e-01
1.781756617485008021e-01
1.463154385841018701e-01
1.457076261523791716e-01
1.257839972290326624e-01
1.520028354679303639e-01
1.671484736419895367e-01
1.288058691775090525e-01
1.730729646762637630e-01
1.256791115531174508e-01
1.086714986298296104e-01
1.638207174116015075e-01
1.587000379930098848e-01
2.176499098101620788e-01
1.944621566796193579e-01
2.340562481306565634e-01
1.987040685231025727e-01
1.706476090289952563e-01
1.455053307767362469e-01
1.584121593447135046e-01
2.344953640869111289e-01
2.005281057085147034e-01
1.845655112041340584e-01
1.878256216538611023e-01
1.575752270644610875e-01
1.268592069045953730e-01
1.711320486329026558e-01
1.718669083586218671e-01
1.708735158011336075e-01
1.311930391677934571e-01
1.227407233567621991e-01
2.074458123370901685e-01
1.664425018681214841e-01
1.675459067635136634e-01
1.461873514876982361e-01
1.908410390412878799e-01
1.891375966116227159e-01
1.267862579147881752e-01
2.285440685317177978e-01
2.095654366877581776e-01
2.878338284259234769e-01
3.169796219329021336e-01
3.919624914154859474e-01
4.278219649950605885e-01
5.505881117655972989e-01
6.123345553776617933e-01
6.611402130009229605e-01
7.388011911222054362e-01
8.513452123149819473e-01
9.357631628068494578e-01
1.001735463938328019e+00
1.016478057778614996e+00
1.036793963751893033e+00
1.092042900497135260e+00
1.090933204785054622e+00
1.102830480546212133e+00
1.017206812813431727e+00
1.001800475182192729e+00
9.715069447514647072e-01
8.648979681842217104e-01
8.489735883232045754e-01
7.346241114360085867e-01
6.112231079159888836e-01
5.677780720325077413e-01
4.790725442049775795e-01
4.107913380729248942e-01
3.340041980546556433e-01
2.728651791287289852e-01
2.419630349441532491e-01
2.715680413728686071e-01
1.706828403957272033e-01
2.001491371682151688e-01
1.219037587828315505e-01
1.578793369977348204e-01
8.369473726464712882e-02
1.541778143714862548e-01
1.664921387032505251e-01
9.677040832935257519e-02
1.321195281861062276e-01
1.560688529187043150e-01
5.020083036299411577e-02
1.423105444116966045e-01
1.441330453821245139e-01
1.523594181201286535e-01
1.347441993448258990e-01
1.406450481926562190e-01
1.471986410668646161e-01
1.741397556559253490e-01
7.674629834652216265e-02
2.080662631761514003e-01
1.880897685854385215e-01
1.723753099083333296e-01
1.757279372149838093e-01
1.738237035861458502e-01
2.209605642940096482e-01
1.604418218711455291e-01
2.020582131017714944e-01
2.301712308677530128e-01
2.113604722840364547e-01
1.903302902216001957e-01
2.464346948341251675e-01
2.579473892666420687e-01
3.054403407517059521e-01
2.558914320349859883e-01
2.314080431866633591e-01
2.527088885925860007e-01
3.044526953451703877e-01
2.659051787950795220e-01
2.805496663394047019e-01
3.122541815827215017e-01
3.292876972312702155e-01
2.782396099559225622e-01
2.858607165636588565e-01
2.704774018695886850e-01
3.217306582809090765e-01
2.803832626729896305e-01
2.799362991832873293e-01
3.064307826747798003e-01
3.724923415479873268e-01
2.968327600471042382e-01
2.765125696380150710e-01
3.196406123251520071e-01
2.526194099682524397e-01
2.797454967247792745e-01
2.910696523766476140e-01
2.193065514430940499e-01
2.636312810604161672e-01
2.622575940811303630e-01
2.082290652290826605e-01
1.990838124490930117e-01
2.862408094275645243e-01
2.099135528395864592e-01
1.947939760414588994e-01
2.116828465470793896e-01
2.406566770648585485e-01
2.062459474177600893e-01
2.067851777983319705e-01
2.376872871873866033e-01
2.761118405457084202e-01
1.959646835416303801e-01
1.974229229570193256e-01
2.353483225578636984e-01
2.361486573384484200e-01
1.613650723529039543e-01
1.806895461311414097e-01
1.714666927556726117e-01
9.824929720719441373e-02
1.337316038063747214e-01
1.629808488225387708e-01
1.817016835083166137e-01
1.411545344198155971e-01
1.293547264778415751e-01
1.201744864416689207e-01
1.356269104421775895e-01
1.102032496947920881e-01
1.599209313110321606e-01
1.111194658163227322e-01
8.316190117996172249e-02
5.257916314809387565e-02
1.060063324677689434e-01
6.125926639464351203e-02
4.921685480395141671e-02
9.553995043167812229e-02
8.743274766528064124e-02
-1.673916510506741340e-02
3.856920688356599985e-02
3.839530959063479354e-02
8.744286498661463236e-02
3.429111828766075176e-02
1.378006858124061484e-01
2.865766804532376283e-02
1.077915664301545007e-01
1.992418934806493985e-02
3.581543542171848615e-02
1.045073109589095550e-01
1.117880088499573210e-02
3.122653732253338754e-02
6.903462447186985151e-02
7.031609807359447128e-02
2.340966585623874968e-02
4.390272793122285133e-02
5.765964703404490715e-02
4.973165434937996260e-02
6.050024602088868719e-02
1.324694100173474387e-01
5.397723365382389726e-02
8.083153674051689330e-02
9.703664349094243136e-02
4.292412078931122366e-02
1.816513475803421124e-02
7.669060515211503781e-02
8.341913460057472085e-02
4.146827270529216541e-02
9.787882875467512900e-02
8.422128889140480246e-02
1.191816799126101944e-01
6.562784195107805585e-02
6.592201206336559260e-02
5.727641506177651165e-02
9.487959512399718465e-02
4.605902189622244902e-02
1.582936491300260817e-01
9.781321641985801785e-02
1.647108472514769439e-01
1.287890569370610527e-01
9.729800213386036178e-02
1.191082429182851454e-01
1.119413993101063265e-01
8.842932566011021955e-02
1.122586618358934751e-01
1.185923255930669828e-01
1.431704018998311012e-01
8.459936172804960464e-02
1.021801497114128848e-01
1.450382651428159808e-01
1.399431946512670333e-01
1.366131467678550759e-01
1.946562840202823719e-01
1.835294368680783494e-01
1.571565555305305395e-01
1.503188698506417453e-01
1.995707593605644259e-01
1.785406592416459992e-01
1.523973074525814819e-01
1.627104246236887597e-01
1.912494936686827407e-01
2.535029284280468920e-01
2.344464298460412210e-01
2.163576249646517180e-01
2.174428947330929174e-01
2.495650426832730640e-01
2.508687054565534869e-01
1.676228256049433207e-01
2.108551536201789811e-01
1.790537875941884960e-01
1.705497963928551408e-01
1.680102548133507734e-01
1.727314010331811867e-01
2.124923545528912827e-01
1.261638088884828868e-01
2.017014643567841548e-01
1.710091215220736760e-01
8.118635119040237824e-02
1.223186603226619762e-01
1.512461700777693874e-01
1.780914873603510751e-01
1.119030937228878420e-01
1.715348896680995716e-01
2.385925147551491987e-01
2.382458748487128464e-01
2.181929957441764156e-01
2.480000395642963651e-01
2.861629081144146936e-01
3.288703712507390908e-01
4.024176138309747963e-01
4.172123407492533964e-01
5.797878551245420065e-01
5.864253748696047763e-01
6.759265107206653411e-01
7.433075071652169852e-01
8.084984669861107198e-01
9.445558120356177811e-01
1.001525977785020727e+00
1.060090311228534699e+00
1.096662792087538030e+00
1.088110131644572931e+00
1.082392503393369898e+00
1.113350822808426566e+00
1.045281771517188485e+00
9.940753734638183570e-01
9.788127403821124117e-01
9.281566690207416759e-01
8.597885072408445462e-01
7.456483891452823087e-01
6.392417884082316482e-01
5.278086030557544994e-01
4.853429683845977838e-01
4.420005866660449145e-01
3.616948758743356307e-01
2.619839379272279611e-01
2.215332683688871762e-01
2.034552075236316093e-01
1.601483827219789546e-01
1.698787436482286917e-01
1.352997275227689478e-01
1.436058197605998288e-01
1.307941216457916001e-01
9.984513873651634785e-02
1.545269531559844700e-01
1.101992361328651970e-01
1.134783635510554223e-01
1.249777099963762100e-01
6.947463398221916109e-02
1.334150713408729372e-01
1.053377211323576756e-01
1.096839375259657107e-01
1.582660698065491700e-01
9.376714825920423602e-02
1.843943219893023344e-01
1.521762353819058611e-01
1.393256849728870539e-01
1.372549336822591337e-01
1.569819288388077938e-01
1.878488538443486844e-01
2.311834036914944268e-01
1.604673267108931434e-01
1.669546685189582380e-01
1.818405390587281012e-01
1.513204871189381406e-01
2.683054582667116494e-01
2.418362590451101080e-01
2.311249812459075514e-01
2.576371892127208851e-01
2.683352085713790469e-01
2.735753904675620740e-01
2.437942475842197476e-01
2.406291326683927534e-01
2.680189258851531919e-01
3.144967527940350505e-01
2.777144092283930221e-01
2.677776752604199006e-01
2.987465065944275300e-01
3.088002105030798194e-01
2.193181011215747100e-01
3.279639073774174851e-01
2.429566302061518801e-01
3.017222915246627335e-01
3.054951242545330126e-01
2.820764407705779186e-01
2.819332936729185279e-01
2.662680037257749155e-01
2.826081877753121585e-01
3.035899060956228079e-01
2.896286131213148263e-01
2.159245029401991589e-01
2.605255865131648751e-01
2.960702565755859994e-01
2.847772213269863517e-01
2.798061849680464896e-01
2.513010635061480591e-01
2.666871304444948798e-01
2.034899180573643829e-01
2.407563539854913892e-01
2.984010002107373438e-01
2.431123614910962183e-01
2.273322925088802349e-01
1.881058166710481427e-01
2.309248774902539769e-01
2.399496748331672591e-01
2.173770293245888829e-01
2.444231252946055810e-01
1.848418804797628545e-01
1.556471420297654562e-01
1.769217471854379053e-01
1.522587371943858459e-01
1.581025877955396786e-01
1.584625754718656798e-01
1.672638832692495969e-01
1.415170851639705740e-01
8.962315700382106343e-02
1.490189104448785828e-01
7.391410535736683829e-02
8.368611335236111892e-02
1.011586154420485995e-01
1.246022596874763883e-01
9.666706375232431148e-02
1.087990862407302722e-01
6.032222664477703694e-02
7.260935246354824346e-02
1.100490500633313773e-01
4.933630412875764093e-02
5.892179882929290263e-02
5.389741328819316890e-02
9.987716932344749277e-02
6.564149047724336661e-02
6.200670903289280667e-02
5.741843048010064621e-02
3.531937049203381918e-02
5.129379702628753673e-02
5.933135606486027169e-03
6.916991476346628920e-02
5.428069687509158581e-02
5.619435418849815650e-02
4.170070731625316607e-02
4.963632764707415213e-02
4.622520805398729060e-02
4.439503359925063564e-02
1.613252891650745688e-02
1.620224995974578475e-02
4.028604190980734912e-02
4.617553284743891595e-02
9.282386551531265906e-02
1.591071568522261712e-02
1.659298173994242648e-02
-7.479367268424505499e-03
-2.512477128547673660e-02
5.711893677542729392e-02
3.346142040223130942e-02
1.587287123169435488e-02
3.305556159553493106e-02
4.304608738435428822e-02
5.100717882938270858e-02
3.772781432466400242e-02
1.545454731146578969e-02
8.261997241249504839e-03
5.030606168948380946e-02
3.778001837012475578e-02
5.775789378009173886e-02
3.854857034329624288e-02
8.896509009621399178e-02
4.889488303127356716e-02
2.178503649169570566e-02
3.357352038269135336e-02
-4.706468610597803331e-03
-5.588100410384329308e-04
4.268073320874737897e-02
4.353407282260150779e-02
8.743505078180580092e-02
5.842953191467232382e-03
8.717222538954082223e-02
9.275549574066141445e-02
4.282015461158730774e-02
1.083754565698231143e-01
1.472238063600276314e-01
9.409535078096945004e-02
1.166558436285095174e-01
1.089549360501656655e-01
1.649616507443993907e-01
1.391698507583048194e-01
1.455652405355794266e-01
1.142439574549105885e-01
1.280475548915802619e-01
1.122211029626582479e-01
1.505580827122957321e-01
1.720581191089736173e-01
1.074244981925808057e-01
1.328860524208477223e-01
1.524605866272312482e-01
1.410433928024043548e-01
1.369989330264476668e-01
1.702949781851622602e-01
1.367665716684203780e-01
1.369368294496035310e-01
1.063481768523344972e-01
1.124129075346212564e-01
1.387977591195169169e-01
1.702861757672304299e-01
1.778287823307085902e-01
1.862410569369267188e-01
1.307107131786105492e-01
1.956910766693388259e-01
1.440177289899454427e-01
8.352936336819721808e-02
9.221528990490007738e-02
1.276844409825487747e-01
9.960847511945167265e-02
9.668629962473571093e-02
9.766490368673015621e-02
1.330858155409845311e-01
1.081186563277691387e-01
1.188690020507419953e-01
1.946611147759272076e-01
1.310648121159357360e-01
1.963206221929242046e-01
1.990763886234619973e-01
2.608346471324589078e-01
3.362472741296406720e-01
3.911194094194740956e-01
4.146374674374539437e-01
6.120199009614510910e-01
6.205165228264101218e-01
6.913517307362059272e-01
7.667156366954752666e-01
8.592855839284010422e-01
9.316674631891364022e-01
9.995029858475670270e-01
1.022668512508877026e+00
1.083277743841622565e+00
1.092950316989654391e+00
1.082111384522185027e+00
1.027265677350002182e+00
9.976084584627590290e-01
9.598777486180732899e-01
8.733515702516356782e-01
7.262960494039327752e-01
6.704371242094229189e-01
6.174484845581974524e-01
4.960698583326347277e-01
4.229967511651506196e-01
3.993756382844470543e-01
3.364976001259483152e-01
2.340972087799069734e-01
1.722816558176355206e-01
2.081970262979395137e-01
1.513469501634203684e-01
1.291836804812767359e-01
5.238594969313729866e-02
1.033152498104843026e-01
6.346009827089234279e-02
5.952820034536927818e-02
3.647826953794031102e-02
4.323466839146176965e-02
1.075112121066054000e-02
4.734043827681851113e-02
2.831664058101629119e-02
8.299638999618359769e-02
4.170227597302379741e-02
5.565756673290651185e-02
1.124891760885547987e-01
7.960328404264435664e-02
1.299074822374763349e-01
9.550800102696346827e-02
9.111574846996811639e-02
9.476844139311962900e-02
1.524626051467804222e-01
9.626707942171064403e-02
1.513478815520413467e-01
9.824089888149907523e-02
9.540178953326482192e-02
1.379490164662390828e-01
1.629002109347595650e-01
2.020710702971010020e-01
1.798177217977520170e-01
2.085203153460209735e-01
1.805864161378662458e-01
2.843054742773761245e-01
1.623416563278552438e-01
2.130168473232449400e-01
1.690093855258188449e-01
1.694212332972211132e-01
2.081052908360625231e-01
2.784148796566322526e-01
2.022523696985572828e-01
2.349471477403236308e-01
2.149843222115002117e-01
2.177796562099717503e-01
2.092558925927947011e-01
2.473540112076406672e-01
2.577465720782264325e-01
1.987190199694806592e-01
2.813708924012688350e-01
2.827030360567789891e-01
2.855991566649223601e-01
1.891458417634435119e-01
2.187262424755626045e-01
2.846945389127514270e-01
2.849688055732035319e-01
2.877054586870911312e-01
1.871071515348605163e-01
2.362929988171877382e-01
1.925887310739470004e-01
2.085591364510366030e-01
2.277740588989374260e-01
1.916477119480898827e-01
2.179137512586427350e-01
1.827076589602988632e-01
2.384493771239816762e-01
1.618204915759705043e-01
2.076122053300373804e-01
1.983353619445130667e-01
1.247353256426627366e-01
1.524025192937930595e-01
1.547820703110789620e-01
9.529880634537801765e-02
1.300112110253415221e-01
1.322354587098424905e-01
1.394141702879623801e-01
1.593260151419638171e-01
1.104658753617342448e-01
9.007733138827402064e-02
4.259375739018318729e-02
8.718296511743225952e-02
8.258004865915738457e-02
5.381176179143036531e-02
8.715537660839607625e-02
6.485535268437749024e-02
2.135498080718478686e-02
2.890814468558991490e-02
-3.435940949484787843e-03
3.210292161233186531e-02
6.193429597528164743e-02
2.091647948561458498e-02
3.880319120622232471e-02
-8.409965007377562252e-03
2.131334405803372162e-02
-1.949915231690736023e-03
1.002510866922244268e-02
9.461540264049196625e-03
-1.908938547990815179e-02
2.482663369741162224e-02
4.058376446049211106e-02
-5.232123000034428345e-02
1.134572564818318863e-02
5.641732106159670634e-02
-9.977856372298091886e-03
3.466979049488282116e-02
-5.536450017204188473e-02
7.817800290507040395e-02
2.547019497940162039e-02
-8.822979672279566976e-03
-1.030309521192030939e-02
-7.622964158331552165e-03
-8.334229748928564940e-02
-8.801950404602697925e-03
-2.961337894327001341e-02
-5.470766298293618796e-02
-6.286955771668636950e-02
-3.382838761157089258e-02
-3.948434819033751209e-03
6.001931651589926392e-03
4.153927116099426914e-03
5.684277127810777319e-03
-5.754015613058237333e-02
-3.299340152445685154e-02
-1.073539871602490967e-02
-2.771138061977353878e-02
-4.506507808457885234e-02
-5.930705568087494411e-02
-8.059619742949922228e-02
-2.031429185199003576e-02
6.505831971371915656e-02
1.227554293377775690e-02
1.104705236609665464e-02
2.016916287432947430e-02
-1.958370136733595529e-02
1.780810203833661787e-02
-3.543537237254371780e-03
-2.849390474222492434e-02
-1.054122211857404234e-02
2.820397041292376991e-02
2.627231372534586523e-02
-2.349326231572966550e-02
5.802104545465715246e-02
2.635741426504741719e-03
2.294878009846811756e-02
6.657938605094955442e-03
8.309490993409895943e-02
6.675984974214757561e-02
5.801722941108865272e-02
7.267894230103424946e-02
6.019573156521850626e-02
4.477613845588792468e-02
1.216249525574372575e-01
1.163054209077848122e-01
1.470837517549491158e-01
7.805803589264664888e-02
1.186241908570420528e-01
5.229569523260390457e-02
1.361326627085431840e-01
9.240838109966661995e-02
1.304141548675861184e-01
1.299202549242192695e-01
1.396268642141081373e-01
1.094670748681162986e-01
8.417104694147051203e-02
1.284730442880336054e-01
1.302634556765763785e-01
1.592969334891614075e-01
1.360233747604796262e-01
1.337514293853013791e-01
5.066899663931462988e-02
6.098300172808607950e-02
1.051405134667719454e-01
9.295070815554451471e-02
7.369979980215314586e-02
7.654645430928694316e-02
6.426775752666748220e-02
7.522762909283643717e-02
2.629827888405902175e-02
9.231301890937876342e-02
4.570542802465806659e-02
7.459031253595833910e-02
9.274569011006691954e-02
9.969081883571292990e-02
9.192255987205244505e-02
8.638812180065488788e-02
2.391846718913284708e-01
2.320565197216934994e-01
2.605541350645022014e-01
3.149452025726069970e-01
4.240609765013822474e-01
5.369583948768364978e-01
6.008950378729548403e-01
5.963216609018560099e-01
7.479534578367220687e-01
8.604983631297822289e-01
8.635517585242536986e-01
9.405434509107910568e-01
9.966909200783250489e-01
9.422314079854982038e-01
1.041265512023566320e+00
1.004030161076172600e+00
9.698956841892207859e-01
9.029127528327252072e-01
8.821293454789059796e-01
7.997249877037964083e-01
7.553997074902302211e-01
6.459751217378026933e-01
5.672888866094962790e-01
4.859340777787665155e-01
4.971859294021912512e-01
3.365649389696179772e-01
2.859233462741925802e-01
2.061071894685686801e-01
1.723293826955389352e-01
1.287032275210759358e-01
7.023381957320642965e-02
6.882738638601190728e-02
8.431686528873164055e-02
3.737500303303518956e-02
7.089975600602607675e-03
2.101352844304790746e-02
3.054176243701257898e-02
-1.763162392319721217e-02
3.133569419756015995e-02
6.489652117501160111e-03
1.055234359005439992e-02
8.868834394935701249e-02
2.016320077316909043e-02
6.489865731203491028e-02
3.028058951803232896e-02
4.588449200304148962e-02
3.642954382382527362e-02
7.956795237285650690e-02
1.216716288627733566e-01
9.094959211880648819e-02
5.344993090685215553e-02
1.548089547955585621e-01
1.129644541953727099e-01
7.009394181822611869e-02
1.348278690334453744e-01
1.092523763647668400e-01
7.379198967406089271e-02
1.310698780962531729e-01
1.113073134545817799e-01
1.233505595152311896e-01
2.046954612540852203e-01
1.461042407479881122e-01
1.302559770280736773e-01
1.271027502470142567e-01
1.616554286251874195e-01
1.488044015087186533e-01
1.376731638275889014e-01
1.861971349993564173e-01
2.090430148942885036e-01
1.591692289411595351e-01
1.854860421270339566e-01
1.787884269257564163e-01
2.146869903169846827e-01
2.428602770385961118e-01
2.480293014625311598e-01
1.988437940590672970e-01
2.216471307879484542e-01
2.285160902882376888e-01
2.037284808326777497e-01
1.871879502169543630e-01
1.652422893069566134e-01
1.903901417073260438e-01
1.672922689951325259e-01
1.682424133518334863e-01
2.680966319793041119e-01
1.859403503520596079e-01
1.819810116342072959e-01
1.907538024496091000e-01
1.665180169094816753e-01
1.464312964502321734e-01
2.545521499642067198e-01
1.153553066259093707e-01
1.054048675071631580e-01
1.443567906256623679e-01
7.771141326993044607e-02
9.431209158587774977e-02
1.047155525452967140e-01
4.821527644829918385e-02
1.218337367552443790e-01
5.066584295967285073e-02
1.058981528277628814e-01
1.422640547758758645e-01
7.267331803964814652e-02
8.131958766597999211e-02
6.554253443881974395e-02
5.532472921027062340e-02
3.778996039014401870e-02
5.084281847615521044e-02
3.094392511809869462e-02
-1.184184464616010179e-03
5.458760418585522495e-02
1.622332294823351090e-02
-4.853051723777437876e-03
6.764354039508949090e-02
-9.236454383949593838e-02
-2.540584580090582412e-02
3.341922136456630665e-02
3.925515292940621320e-02
-2.173148726410706680e-02
4.222216969063723874e-02
-2.240297376069022572e-02
-2.735947969020571108e-02
1.373564158975844329e-02
-6.001820585891068371e-02
-9.415890661724435340e-03
-2.888883007201788200e-02
-1.625334899411267492e-02
-1.180221498769866428e-02
-3.598528640868606243e-02
-6.555184660108120953e-02
-3.869119365164347402e-03
-9.320708155393320204e-03
-3.457622670955068367e-02
-3.797999094095662331e-02
-5.572580912088389432e-02
-5.175263193307193949e-02
-3.041939137129111292e-02
-3.853510096467467616e-02
-2.577205204350567144e-02
-3.058498256311263652e-02
-7.930293650195391342e-02
-2.561879342691840422e-02
-4.204438562334436580e-02
-1.689360692039573730e-02
-1.193652527732608076e-01
-7.516112496835285206e-02
-4.031876514633974534e-02
7.424450213988145753e-03
-7.706587883848031728e-02
7.693031154900227542e-03
-5.398699826607782082e-03
-4.930815667398691371e-02
-4.504279768644476462e-02
-7.283902877149106558e-02
-5.182842886722281023e-02
-5.679840854303645076e-02
-2.673491938950440031e-02
-4.844539897997222899e-02
-6.996742617646352358e-02
-3.183302910162108534e-02
-2.800769109759282394e-02
-1.762842569022250033e-02
1.728368608729676653e-02
2.414390325786984481e-02
6.998012909233027046e-03
-2.130031950630088475e-02
3.131472041326102684e-02
2.138472249171852191e-05
-3.283320851348472957e-02
3.015834870160731540e-02
1.433524153826616632e-03
6.100891056604854784e-02
-2.190201162901667109e-03
5.611293756850577186e-02
5.825296585003404692e-02
3.346149586537164322e-02
8.788934810879844850e-02
4.568091903201540460e-02
5.281149726278736023e-02
6.018393499907137567e-02
7.862101455998465882e-02
8.412854363421201631e-02
8.644963866748123227e-02
6.154805748289114697e-02
1.136105119894809390e-01
1.019126278374820060e-01
1.382397138597115660e-01
1.157429611031749739e-01
5.865957057536141245e-02
1.153114607769701455e-01
1.016962617324785045e-01
1.145227881032418321e-01
8.062308051952338239e-02
1.004030548969916392e-01
6.637617488432137614e-02
6.055923707707205894e-02
1.025017785709394780e-01
1.489478899513431154e-01
1.152882690652570347e-01
2.428265394043420400e-02
1.253242183822961542e-01
7.783881112147583714e-02
5.971729160134001124e-02
3.149143173751510483e-02
1.182314982093093103e-01
-6.978682015638879022e-04
5.776415409664927003e-02
6.659950744913802068e-02
1.133502724594498967e-01
7.213533634375507431e-02
1.497013515123660210e-01
2.317113234465962845e-01
2.268613391020037895e-01
2.336771397087217816e-01
2.493503600483021609e-01
3.325943200608940664e-01
3.966129922513457196e-01
4.824542163852735821e-01
5.717879553886713317e-01
6.632167898799117278e-01
7.100229510529227905e-01
8.519660267684801003e-01
8.548661483952287865e-01
9.589103132698092447e-01
9.710935276454004672e-01
1.006327555906347149e+00
1.017775665472389734e+00
9.984729811068620009e-01
9.609561254156232524e-01
9.370985036468574281e-01
8.717658781549801894e-01
8.258260046136794985e-01
7.651047251512794745e-01
6.603571443855904555e-01
6.027891728643781644e-01
4.974881618631743496e-01
3.676104391598543630e-01
3.160527098385783606e-01
2.927721320112789405e-01
2.005576604072837332e-01
1.763704417903984301e-01
7.909599494342886561e-02
1.077671715731064184e-01
9.250137177011157064e-02
3.983177950166748305e-02
1.670404401865328847e-02
4.999528405653901747e-02
2.652347994891798150e-02
-3.833507031710428614e-02
2.163940518510397426e-02
2.065383351305290910e-02
1.776972832812144520e-02
3.376402272339509153e-02
6.653423755295886921e-02
4.760695866306041690e-02
8.499452607703189555e-02
6.070222613876168072e-02
6.296850289669833622e-02
7.222071011112241035e-02
-8.685274561763899059e-03
9.160542620495645827e-02
1.027267278365678327e-01
7.512638144957073383e-02
1.143570696527936026e-01
1.093184196404158315e-01
8.053997448985997232e-02
5.912726492115673999e-02
1.040829536869153638e-01
6.442757489507414115e-02
1.346607073963269618e-01
1.187347473971596123e-01
1.369421101271013630e-01
1.373767003623291849e-01
1.001324260725043602e-01
1.976537466262355269e-01
2.135800543029784948e-01
1.557292422757230455e-01
1.556886413225198884e-01
1.511403557146754617e-01
2.076871791841396475e-01
1.697834187863004329e-01
1.949300595317707274e-01
2.112178106130204736e-01
2.369266910430863349e-01
1.964625332120845669e-01
2.022450385075769130e-01
2.336982569844082147e-01
2.303429877176612073e-01
2.297911623880391219e-01
2.111090359481041512e-01
1.876700575156953210e-01
2.392527229449238346e-01
2.398823911123365848e-01
2.004196872249551786e-01
2.286204218644989350e-01
1.516212012676385057e-01
2.508228265288132697e-01
1.925960084031204667e-01
1.836816093850126563e-01
1.615987328283233493e-01
1.464840817913919402e-01
2.440249620123473018e-01
2.383418917442787777e-01
1.976755696075788160e-01
1.808949901188232345e-01
1.858013759296494594e-01
1.320231997821637027e-01
1.432951048224173629e-01
1.798197427561167849e-01
1.298673406373463124e-01
1.085866205327141454e-01
8.169375923215817237e-02
1.030088506602040710e-01
9.264544753506881447e-02
1.263421071639697635e-01
1.051538553784782670e-01
5.762172328803524812e-02
7.932405211590187744e-02
6.032990981403990594e-02
1.164808708314498953e-01
5.306069233698222642e-02
6.245955644042087279e-02
4.103659549843589882e-02
9.732593144503474958e-02
6.481393890426098703e-02
4.636647520337504325e-02
3.047992118594766014e-02
1.327898353218378083e-02
9.196717519603839208e-03
5.245320424367241885e-02
6.148450727742882371e-02
-4.749459146640545859e-02
4.587928420851894451e-02
-3.792296227351589499e-02
2.543126034807567659e-02
1.323698144403387053e-02
9.994582888884440131e-03
-3.369980302732557276e-02
5.720961326028967814e-03
-3.553611709201838498e-02
1.781484453713559624e-02
2.052460149079515100e-03
-2.203437238879034712e-02
-2.084836315411273122e-02
-1.257120564925035683e-02
-3.279871401457606223e-02
-1.352068508855656936e-03
-1.306791374847002599e-02
-3.286951940333683597e-02
-4.150789562693482648e-02
-2.315352921042409043e-02
-4.951656090733180110e-02
-2.627069459820077432e-02
-3.010688155858154413e-02
-4.764806897203237301e-02
2.765234392388363910e-02
-1.026728125939065789e-03
-2.575393749970730783e-02
1.080609691131588154e-02
-1.211558622157485852e-02
-1.036146225616638161e-02
-4.666562311520638939e-02
3.873347380010428581e-03
-6.029941868051037768e-02
-6.262708092898619863e-03
-5.811366721997848761e-02
9.274241551034456688e-03
6.116562326190139870e-03
6.390473640234730496e-03
-2.667088314566864668e-02
-6.572722483219103906e-02
-5.494689286371262638e-02
-8.134965502936075676e-03
3.508189877579698940e-02
-4.079733482931810484e-02
-1.034953722954322364e-02
-7.949985374817561401e-02
-3.420732486686704765e-02
2.365629424721689758e-02
-1.402628497946419549e-02
-1.453905912416457794e-02
-3.221688412275623692e-03
2.117781413618301939e-03
9.166770582018840541e-03
-2.403636132673305295e-03
2.684666658488699467e-02
-2.459309026322972075e-02
-2.325546348904380251e-02
-1.121049473224340273e-02
4.169828141029555124e-02
-2.786069644925207728e-02
-1.355134566259992915e-02
-4.295586126183536385e-02
