1.141280017711230999e+00
1.097749894233071233e+00
1.088626008446089921e+00
1.049135908610445922e+00
1.008752069333549883e+00
9.198239146690756485e-01
7.857890209521577463e-01
6.998689360253734781e-01
6.330381123879519345e-01
5.343279930849105241e-01
4.654801384517632257e-01
4.522270221713121097e-01
3.001666651483211323e-01
3.020535216122511857e-01
2.552890906786962066e-01
1.902367330099643261e-01
1.246221089897012330e-01
9.657473633301345839e-02
9.379590053640211866e-02
5.140876117697509157e-02
6.372622798977439773e-02
1.915679675181917313e-03
1.031729748234954391e-01
4.502002883110160780e-02
2.392173642475456732e-02
3.571624682340140272e-02
1.775743630415908131e-02
5.499143417903524372e-02
1.108570467923965658e-01
2.896406426544588172e-02
4.672419381092848822e-02
6.676506922141441092e-02
9.467479333107049755e-02
7.111747222432444893e-02
1.106176556721235466e-01
1.180934806233639861e-01
1.065212089799780076e-01
1.639121759058599359e-01
1.672676100864115556e-01
9.178780478959469580e-02
1.726596147897599132e-01
1.757620574158546556e-01
1.865053074601842054e-01
1.739316241104275351e-01
1.791975984374476472e-01
2.012625283646973795e-01
1.657932140901915430e-01
2.220952104726501009e-01
2.348613241526219808e-01
2.080238076239000478e-01
1.678733133792947307e-01
2.417391103639592587e-01
2.160855689891171272e-01
2.551531452914391207e-01
2.623555755483373830e-01
2.552393075848946036e-01
2.634391504032030373e-01
2.283239217880778382e-01
2.292452501182660474e-01
2.206513970412472825e-01
2.419414686107021761e-01
2.764308566910732567e-01
2.355781250129455051e-01
2.020591342273461988e-01
2.837114886262434577e-01
2.496663216779698435e-01
2.239221923043208107e-01
2.586889068431664773e-01
2.872599705285711069e-01
2.366480338789070659e-01
2.571301139944858205e-01
2.086299669183502570e-01
2.611157899539580107e-01
2.542258006982713314e-01
2.341136604377197783e-01
1.752446888639310196e-01
2.417734646179952041e-01
2.169732494572238213e-01
1.677749824053405558e-01
1.678789932356420656e-01
2.353872308136432945e-01
1.675076224390402713e-01
1.119221381247282460e-01
1.464587890554204519e-01
1.404643896628640642e-01
1.928104312047507207e-01
1.329519384471538612e-01
1.173042030395722024e-01
1.499064121992603471e-01
9.908648286034783814e-02
1.589247929095546352e-01
7.371359606332394954e-02
9.566530116503658976e-02
9.696110439965739680e-02
9.444237018974091513e-02
6.781428943590689373e-02
1.204100244516643770e-01
7.033026235486811162e-02
6.294884091711294705e-02
6.896694565697306101e-02
7.116571685349874776e-02
1.060745148016020156e-01
1.263588113612560369e-02
8.871531393971686386e-02
1.214084817193653715e-02
3.517852077128105770e-02
5.598644478939501790e-02
3.698860139036696387e-02
7.116973594013961679e-02
2.522662712568320836e-02
1.063637754599791041e-01
5.843355289566501409e-02
4.512682400992704124e-02
7.430512748934217648e-02
2.257972002448873500e-02
1.873651317924099335e-02
-3.606608823688194770e-02
7.006396652687096882e-03
3.740114536003115442e-02
4.944864376439215420e-02
5.192661848120688761e-02
-7.025723198737093833e-04
2.450406250311775586e-02
-3.320504482943109625e-02
8.748322393868850078e-03
1.415695717435206877e-02
5.497972244482532411e-02
2.534033716214043053e-02
3.471817279818147084e-02
1.519138707861216776e-02
2.921109974054162534e-02
4.616317519689047688e-02
4.193969179481039228e-02
-1.797571721073597251e-02
4.048414326654488360e-02
2.550863750694853938e-02
5.586157911559422318e-02
-3.185074247686676963e-02
5.653820237537952875e-02
3.171748444580743675e-02
-2.878137499608136168e-02
1.945248950828454282e-03
4.090038846980507264e-03
3.875757113131247933e-02
-2.124165777042914122e-02
6.144726029138909695e-02
1.743113965857843312e-02
-2.203488308773696169e-02
7.690551293071072603e-02
1.276622743461937326e-02
1.407779318106420000e-02
7.482145684606281155e-02
4.977515673801268664e-02
9.922190145758090496e-02
2.430989103094497589e-02
3.259845463571900415e-02
1.978345002971008612e-02
1.854994977873135331e-04
1.586904967242372400e-02
9.332815674011879503e-02
9.589444946814790205e-02
2.243047450117303943e-02
4.010156660572667536e-02
9.672160919589359307e-02
5.503532952619769048e-02
5.354840370188626575e-02
6.853901922937524760e-02
8.896342827744700699e-02
9.180856653130999023e-02
6.022908329076776673e-02
2.918040564942770559e-02
9.130933241179706172e-02
6.865256555641957581e-02
6.521240270996930821e-02
7.589354591876783240e-02
9.199044407702119952e-02
7.411449074458287267e-02
9.745582999214572051e-02
1.397282856561228304e-01
1.846564573556366273e-01
1.556932282365372511e-01
2.427829539848506968e-01
1.468241546560117294e-01
1.553969135452143713e-01
1.698611246423919474e-01
1.335027736944885413e-01
2.003216861498000045e-01
1.644383072163755066e-01
1.469835512840817482e-01
1.917593509992325806e-01
1.600880681120440407e-01
1.769153994371123750e-01
1.424680795393259980e-01
2.270305038570900047e-01
2.481179480507885726e-01
1.189025845454342867e-01
2.420802393319106405e-01
1.853633294198554493e-01
2.204872855396367848e-01
1.753306044216906834e-01
1.802272111324970949e-01
1.369382914168697229e-01
1.721902464486204098e-01
1.590903451429079019e-01
1.899620311042858334e-01
1.911035666408499312e-01
1.190351436678412644e-01
1.125122297987644071e-01
1.381339997933116182e-01
1.688178276090850638e-01
1.671323976744914785e-01
1.502142047866865671e-01
1.395023994737185635e-01
1.742123406205010883e-01
1.911609159576155847e-01
2.642067610798927157e-01
2.824154555605110084e-01
3.748806802392608550e-01
3.796867290230124259e-01
5.041606360944210774e-01
5.735672082312907039e-01
6.627241119593519914e-01
7.636191188379521932e-01
8.542389331637892935e-01
9.165508685044955195e-01
1.060029438982500238e+00
1.080618925570329791e+00
1.133568050040772102e+00
1.121177663127323587e+00
1.178581091619327337e+00
1.210072470072340201e+00
1.179873389240663206e+00
1.097321244797845097e+00
1.088233012684049150e+00
9.659012265899651339e-01
8.624103728121761403e-01
7.786805939797000198e-01
7.595160571944186145e-01
6.300048545182589388e-01
5.639699730721114967e-01
5.077640121845314880e-01
3.933891959449860032e-01
3.410843180238690708e-01
2.477523159198779523e-01
2.702778406016935198e-01
1.761863407056420971e-01
1.357801311876613570e-01
2.320376636473452936e-01
1.573277260440491543e-01
9.680643274367779771e-02
5.320099243446048398e-02
7.092070624255100708e-02
9.692501986028029259e-02
9.213387268256702234e-02
1.309874564510470907e-01
1.118300865967425117e-01
1.250726858057100432e-01
1.664391417363088321e-01
1.265926834405978474e-01
1.036819268708494696e-01
1.225066769334928751e-01
1.693548527710992124e-01
1.572642393814007167e-01
1.216199936953739486e-01
1.233826236337715598e-01
1.751248447569749289e-01
1.909332860262686615e-01
2.176420902249318889e-01
2.117634590600068201e-01
2.735860930554375736e-01
2.843910208940153561e-01
2.428149887687447439e-01
2.149499900821142395e-01
2.139185493162712726e-01
2.265250654926235230e-01
2.223162673518024324e-01
1.691130484252684196e-01
2.267554825029178545e-01
3.071307741162840887e-01
2.506375512271029615e-01
2.524629042304126214e-01
2.808927583745534085e-01
2.900213510299826103e-01
2.975433139701966767e-01
2.111573351123758047e-01
2.842106639488414244e-01
2.919568616560513363e-01
2.545125432954962741e-01
2.901491534986702092e-01
3.377533937361322791e-01
2.338509945742623941e-01
2.554233543139415863e-01
3.398882181672770453e-01
3.073310384887015245e-01
3.099440690913872753e-01
2.635786634850229571e-01
2.858252043635366446e-01
2.928198421037521704e-01
3.177296690378378918e-01
2.602805686570661692e-01
2.549590460299558381e-01
2.382726933814879322e-01
2.513596164215832762e-01
2.280943030863818721e-01
2.951294963541933880e-01
2.269153707044961610e-01
2.828892414372901620e-01
2.955358598878310428e-01
2.526267178044736550e-01
2.995511077923935783e-01
2.156005050556968894e-01
2.104455365500073338e-01
1.900739632920522837e-01
2.227356268949046980e-01
1.908555169475467106e-01
2.069245447541982474e-01
1.820010180237610353e-01
2.049587203925704870e-01
1.746575746945142615e-01
1.903260519496079994e-01
1.971234476436303507e-01
1.630744986931483287e-01
1.311359467693232472e-01
1.885590986864307816e-01
1.006333941514768598e-01
1.231002519889004276e-01
1.944043260870292333e-01
1.421975243985298953e-01
7.662297136462301039e-02
1.581909845323064279e-01
1.323985349508576825e-01
4.670173509498722064e-02
1.489662565294536389e-01
1.112900539506275349e-01
1.038058009666560921e-01
1.162168750910703985e-01
7.970405200499261489e-02
9.020990217064328576e-02
2.783116158423470932e-02
3.348037408529942749e-02
7.905603708465847035e-02
4.874047788505182083e-02
6.816497716725380962e-02
5.470067662109168172e-02
8.761694834454991643e-02
6.911114105153104425e-02
2.969720647014491982e-02
8.192449648586137834e-02
9.560537975641276998e-02
6.037045387351366171e-02
3.608771410855825951e-02
4.278683730592139356e-02
3.509370282616858239e-02
4.014881644669708594e-02
7.574135880737506432e-02
3.677621515596553314e-02
1.608957839016966068e-02
8.710696543220283750e-02
8.088106466245896520e-02
2.409111796669499012e-02
2.531803141353042991e-02
5.850474259988951153e-02
4.065321257697802892e-02
4.937768961785050925e-02
5.088743416272335784e-02
9.891269835981555958e-02
3.658794118923235777e-02
7.482784209292860089e-03
1.864168502076393036e-02
1.101339603870681721e-02
7.682669895191776566e-02
7.144611196562915267e-02
6.602664898709088848e-02
7.067885916956133385e-02
7.326437197812120383e-02
1.646905126745112913e-02
8.298928737297324443e-02
4.947366981352244175e-02
4.781316897555960843e-02
9.462047772156692571e-02
3.664090323817655037e-02
3.595716530918494774e-02
3.175542542039528487e-02
3.103066045491391367e-02
8.910082474237374095e-02
7.201512416264613248e-02
1.412717639751531057e-02
7.547884356648743021e-02
1.163089042231467418e-03
4.316562628014318503e-02
1.300779877807452523e-01
1.183193239197646296e-01
5.983986722714002698e-02
6.625272101862379748e-02
6.975334913544786741e-02
1.153393911964444851e-01
6.779900636122011826e-02
8.957922077951224749e-02
1.194732663885642032e-01
1.304925968828977989e-01
6.684672239382047354e-02
1.709038463758298376e-01
1.185219672503883825e-01
9.007420573235294659e-02
1.053034903224671637e-01
1.164595538400227115e-01
1.302726953736137172e-01
1.299702642527785779e-01
1.270716277084323609e-01
1.791273421514636421e-01
1.931345410907893412e-01
1.564471725236041000e-01
2.073711599638692615e-01
1.412263657030117803e-01
1.905976895625061396e-01
1.815276000991016825e-01
1.723833056021825683e-01
1.936910724111219895e-01
2.077153053930871074e-01
1.819983113051269474e-01
1.669023335638421535e-01
2.558450283717328411e-01
1.894955354993924368e-01
1.633976231322458450e-01
2.029244252187492048e-01
1.323030608087317761e-01
1.479878020048340792e-01
1.245832200693717529e-01
2.539542116057121879e-01
1.613236281896725244e-01
1.786960569558713741e-01
1.829449322164177771e-01
1.782106077225568963e-01
1.501201371914099858e-01
1.057801214397413869e-01
1.637239946351762843e-01
2.136518831137896868e-01
1.351578489587228760e-01
1.492536677282852442e-01
1.241848879361963920e-01
1.002548453255772409e-01
1.906150605964438971e-01
1.866707494608753348e-01
1.843469501439490288e-01
2.445855850977501911e-01
2.948181612986055522e-01
3.273380878706374508e-01
4.415206164008063650e-01
4.767813353705184776e-01
6.133011083386025186e-01
6.532067764878582983e-01
7.621406600158630029e-01
8.299940744131953929e-01
8.906590173499953078e-01
1.056690039767448352e+00
1.050856527548461150e+00
1.114755240667757885e+00
1.191392998319361629e+00
1.150409332478952606e+00
1.205422532689078396e+00
1.171999076989925781e+00
1.142773096411835887e+00
1.047964520728572602e+00
1.070957423680380716e+00
8.985490714800171697e-01
8.383627164566579415e-01
7.953535215956373250e-01
6.410060210744967790e-01
5.459911893530037252e-01
5.114715355953775022e-01
4.251181756402723222e-01
3.809032177577497680e-01
2.693438738562742851e-01
2.329165889641020559e-01
1.752167167407795989e-01
2.194841789145071664e-01
1.080318424447274106e-01
1.693477448422156251e-01
1.161316035808375724e-01
7.358441776248526855e-02
9.049222043923363379e-02
1.327909830887986919e-01
1.294543171651501845e-01
1.479662204385151503e-01
1.110247051635872007e-01
1.415522995405930073e-01
1.393315531776748994e-01
1.348148900372230230e-01
8.045521332700283912e-02
1.121657077852865475e-01
1.231587967692206464e-01
1.143655231718057608e-01
1.425471342421585352e-01
1.196116011830823112e-01
1.779816935425496960e-01
1.488536311786083643e-01
2.092692407745002647e-01
1.665781652259774315e-01
1.491667660680282836e-01
2.330970798199299698e-01
1.616650791151643396e-01
2.138764841837450525e-01
2.043258628590933768e-01
2.521130574263831248e-01
1.642098002075663421e-01
2.611324952771910679e-01
2.592640257681745330e-01
2.254926882265227139e-01
2.245561139655965766e-01
2.524973641810918101e-01
2.442071282617925554e-01
2.952945046961905629e-01
2.922178591230126798e-01
2.696979613481265137e-01
3.039795979238846257e-01
3.154362447403137315e-01
3.104322330808260144e-01
2.424987797811025414e-01
3.232267685929987033e-01
2.776244153410366566e-01
2.834754790075412201e-01
3.284455360578178440e-01
2.712613931095452235e-01
2.673151260216682923e-01
2.874537091321591187e-01
2.804946133202856351e-01
3.327895566289405527e-01
3.046538229987276192e-01
2.864741244857724189e-01
2.916142153083537414e-01
2.685130355941400815e-01
2.189331021982628689e-01
2.858825492230109844e-01
2.597806523248539778e-01
2.036950693498972842e-01
3.004062251466484978e-01
2.701366603442502123e-01
2.250402275246495276e-01
1.714940050627394852e-01
1.920911285377562838e-01
2.299395728554329277e-01
2.163856535026253414e-01
1.950205044723391512e-01
1.935850543427419801e-01
1.555934491574891554e-01
1.899446809261628455e-01
1.433097210631332774e-01
1.472097481246152639e-01
1.510321299127856121e-01
1.540650513342055050e-01
1.032141826098930126e-01
1.100122997910863293e-01
1.698697901714456560e-01
1.858252077084999454e-01
1.244212737183327394e-01
9.174458157744554143e-02
1.173216355113857051e-01
5.586078409496383207e-02
1.064080494812617572e-01
7.786877855555669747e-02
9.404222733673549273e-02
7.135481149467054474e-02
9.147519172924636899e-02
8.160203739420429647e-02
6.576560962439517710e-02
7.826285677206461233e-02
3.977321644154165059e-02
5.662588593859481378e-02
5.125452918135296743e-02
4.794315550741333476e-02
8.457670874629971691e-02
1.356744357528964426e-02
9.686351592608152816e-02
8.983915409826548348e-02
-3.972516237444580212e-03
-3.512480465325353018e-03
5.990736934625270904e-02
4.203578174529400135e-02
7.525486234260891916e-02
4.673655423590010460e-02
-9.188746253806574088e-03
3.190724819467552487e-02
1.315139505853276866e-02
3.662842929051587232e-02
4.539467796338989003e-02
-3.802028132490090778e-02
2.692875350804130319e-02
4.894855335508567495e-02
-9.311607829056225971e-05
-7.111662131528098674e-03
-1.479232975603030076e-02
2.405661942906996142e-02
-2.713703276727000291e-03
4.542400252975206665e-02
3.935096732591980562e-02
-3.026880423175545842e-04
-9.532815542375391166e-03
6.015108679709819939e-02
-2.238505055387247228e-02
3.971611120193417610e-02
-5.026810438872295755e-03
4.826581297194815906e-02
-1.136822825971994799e-02
1.016354220061709002e-03
3.856266987221683429e-02
3.078322440636988705e-02
3.228400407178054488e-02
4.443775655844865724e-02
2.032239335212252668e-02
3.181051174019756261e-02
1.022724201895064411e-01
-2.172720197693021188e-03
2.676631145482358254e-02
-4.484846274406613376e-02
3.955052437954272027e-02
-4.212840309331888911e-02
1.766778843975036484e-02
-2.585293544971625779e-03
4.162446685920476869e-02
1.438509489461402280e-02
2.998620761967831991e-02
-3.591436406056854741e-03
6.027776527307092402e-02
4.274435986534397963e-02
3.641210296694001591e-02
6.072938813120386942e-02
4.120702359509925694e-02
6.367376152698833724e-02
4.919236118894935311e-02
4.250361139706880509e-02
6.882889337431902232e-02
6.034576305319943462e-02
8.232502649593750887e-02
6.234371467735765754e-02
8.103708001507672898e-02
9.851897836627464267e-02
9.727462008339814170e-02
1.348388468535566820e-01
1.341618750314187702e-01
1.409533412626917670e-01
1.218425578793333186e-01
1.231524636024626668e-01
1.448706428993645490e-01
1.445535792872661984e-01
1.101751754003943012e-01
1.428530705162932013e-01
1.309160380380965938e-01
1.858131914167535648e-01
1.396574686715586211e-01
1.413969774067640739e-01
1.479613062932739476e-01
1.907704639884706121e-01
1.959258373606584946e-01
1.702556808892104201e-01
1.233009086900091617e-01
1.456446512707848528e-01
8.176553041494520613e-02
1.056752743588951771e-01
1.137499370775181262e-01
1.368471704054132210e-01
1.603933394031945014e-01
1.572911272470713384e-01
8.325583996827577715e-02
1.146091460916513483e-01
1.122172694392016834e-01
1.172109079208712157e-01
1.547355032634511462e-01
1.450891400627895567e-01
1.599266102125092848e-01
1.372949784563926301e-01
1.219099240304716975e-01
1.290850109719777206e-01
1.611720912966543018e-01
1.832329629963872497e-01
2.710625934639474544e-01
3.479420114110955420e-01
3.879919383148712764e-01
4.247570206227249678e-01
4.876470591469231897e-01
5.733368606269902967e-01
6.275592726386566289e-01
7.288363546561870132e-01
8.463262522119558984e-01
9.587036120497728353e-01
9.817688804030987315e-01
1.041032512999344961e+00
1.091139162696502130e+00
1.103494096396938184e+00
1.106193287102725797e+00
1.139421113176104061e+00
1.067966741312953438e+00
1.042749542347589209e+00
9.728145624295116978e-01
9.326299759321402538e-01
8.532733673482678638e-01
7.093793777071742968e-01
6.535280292431598914e-01
5.563927265133715716e-01
4.980524127947092428e-01
4.420566368461389950e-01
3.318489234605048188e-01
2.666137686168428278e-01
1.918385711510910696e-01
2.044157665730425288e-01
1.427466123608082671e-01
1.278967821466779620e-01
6.331305551054181024e-02
1.291342184984051733e-01
6.672119295639708514e-02
5.963233261063931312e-02
6.817285266419303991e-02
3.615572750951073083e-02
3.387561181792755893e-02
5.319084590651410732e-02
4.316405511945087259e-02
-1.028871992658174882e-02
9.573358763383016390e-02
-1.744037761448618065e-03
9.247508479878584209e-02
1.009659123913138473e-01
6.308892742777005846e-02
1.134618111876541657e-01
6.880941822539647645e-02
1.054887644035822636e-01
1.401106562440161962e-01
1.096439132265643324e-01
1.469630251116054442e-01
1.451850527337175123e-01
9.849782156549818923e-02
1.021003424131463472e-01
2.071922122098732999e-01
1.356482399707148179e-01
1.720029251405587045e-01
1.813484843372926147e-01
1.654744704009802614e-01
2.038530094162982753e-01
1.956683553766769001e-01
1.556875173628466114e-01
1.804961983363800315e-01
1.950509056213408643e-01
1.784163528568263324e-01
2.574197401656429518e-01
2.028717766447966642e-01
1.877551207819879997e-01
2.012793260326187217e-01
2.515191796089285559e-01
2.215091613877986920e-01
2.554026579435497157e-01
3.052208430542724948e-01
2.214851519804905688e-01
2.136889122873699698e-01
2.261830411106028615e-01
2.292214413829455066e-01
2.173537888713757693e-01
1.525355134476168717e-01
1.912235565665848513e-01
2.367380195544563637e-01
2.482393382197158604e-01
2.403541091433850085e-01
1.804324791173946008e-01
1.873299832238309592e-01
1.931507120215419648e-01
1.897999385068765699e-01
2.204810378156873973e-01
1.416076339467897682e-01
1.998810463007789640e-01
1.968944695796308042e-01
1.471104293053274725e-01
1.363786197999189986e-01
1.396266729017913710e-01
1.605269174850743608e-01
1.192663225366732416e-01
1.346842885792836619e-01
1.523654902759520313e-01
1.056804234299427991e-01
7.594556743279928801e-02
1.156126947216315343e-01
1.488082202877711036e-01
7.573118083981321413e-02
1.304362127642000047e-01
8.909906572239886802e-02
1.039779758019785949e-01
9.704671377041872160e-02
1.045675497383725810e-01
5.019015987222487374e-02
3.979742637158154017e-02
3.813513147896628597e-02
-1.889948743859743568e-03
2.500077699403212284e-03
5.796947694051864108e-02
1.202966780421029641e-03
5.041100100937639938e-03
6.959788050061929687e-02
-4.714201100713653891e-03
-7.563537561064129222e-02
-2.255072473915941539e-02
3.856646651691428285e-02
-1.154692655007111962e-02
-3.925372931504812063e-02
-3.576147203064446861e-02
-2.081894707714593978e-02
-4.262344796942572206e-02
-2.367077363241211138e-02
3.635108236719725161e-02
-4.977292583796250752e-02
-2.292288146893663170e-02
2.486563302869371911e-02
1.987674244281631766e-02
-5.396053499438430850e-02
-3.108183284611671510e-02
4.311256742639858752e-02
-2.209217722277626722e-02
-2.385320226476223340e-02
-4.253191320703164635e-02
-8.248135734307902867e-02
-3.637727950692506984e-02
-5.198835246673874644e-02
1.322517423618310012e-02
-7.801689965243796543e-02
-1.585482814339227858e-02
-7.196778431294877099e-02
-5.207913336544777588e-02
2.052210693937801117e-02
-5.292317242890882262e-03
-1.262280803981540717e-02
-7.016539147040076752e-02
3.700342138591571767e-02
-7.665112293169032420e-04
-1.416223741828527907e-02
-4.526665546219896946e-02
-9.815355255268756740e-02
1.781187489015792491e-02
-1.385839974749563872e-02
-8.575851592752561925e-02
-4.282409714610214968e-02
-2.192716383460831947e-02
-4.720200735831352190e-02
-6.014942631475604651e-02
-3.049816597781819169e-02
-6.161673630378944333e-02
-1.084449036390206650e-02
-1.895198606760817653e-02
-7.620612204466559181e-02
-5.101631211494217499e-02
-3.108127610860875883e-02
-5.518062713873685826e-02
1.101068326649746326e-02
-3.228449812841862471e-02
-3.884267788196989896e-02
-3.292120134569432449e-02
-6.304187061963914540e-02
-6.202896698068607884e-02
4.582491549309730683e-03
2.231012301710397217e-03
4.506267323052200180e-02
-1.189446404432075929e-02
-3.007403982588261609e-02
1.546133038543513749e-02
8.713527283316911676e-02
1.413474743535499123e-02
-5.778435495777597963e-03
3.891193332419431994e-02
4.986794064016424749e-02
6.672183407749046613e-02
3.260380442224426745e-02
3.048056695067218047e-02
-1.145932253430077818e-02
2.460122287554958320e-02
6.086277656569197975e-02
9.958621380773928500e-02
6.086916146143669937e-02
6.985494787857970955e-02
5.614765241235972898e-02
1.090046349789010882e-01
1.125571323863953921e-01
6.055594043672707372e-02
8.462343361077201420e-02
7.615116201026422837e-02
1.130530175256009850e-01
1.183971364823886707e-01
5.889160781844756526e-02
7.984931749647791732e-02
1.460664020515493600e-01
9.357580785571484316e-02
8.804259004490466722e-02
1.282473709446713683e-01
1.289806369841404732e-01
5.993333080409476987e-02
9.942738403964748728e-02
6.931333884521265198e-02
7.119760791628956809e-02
3.715602718878000671e-02
9.869699543191046143e-02
6.238108754396673450e-02
9.879920347399490099e-02
8.270426882664216883e-03
3.378869159140850120e-02
2.510830507008706552e-02
4.502088464562276071e-02
5.945458722047505806e-02
1.044329336311300982e-01
9.346701008710674163e-02
1.018889765909404832e-01
1.808462920618494341e-01
2.087097996567056080e-01
3.126483769665376333e-01
3.174757295277149116e-01
4.555232427284858221e-01
5.251170817661967583e-01
5.356623861619060900e-01
6.248233226411090691e-01
7.796640628493531899e-01
8.308204157664327294e-01
9.631143684767995428e-01
9.424502519180655291e-01
1.059427097607919643e+00
1.053208267073397320e+00
1.079725749962220371e+00
1.154974512861609570e+00
1.080334897934298155e+00
1.035480638698778266e+00
9.757057454457558343e-01
8.933071127681038170e-01
8.199242624478473296e-01
6.715844623457580820e-01
6.484292236585522673e-01
5.603740600830148244e-01
5.218561781023296486e-01
3.943402508268568085e-01
3.074012685260364974e-01
2.679879903842469768e-01
2.295482197149281423e-01
1.327482206911522189e-01
8.633798710429159418e-02
8.662327453059107119e-02
4.228708724133694447e-02
4.915304814886797130e-02
2.093450368162289021e-03
2.920338222603470479e-02
2.569279804515799126e-02
-4.847971568362377526e-03
-4.386305239908752651e-03
2.447791855227990365e-04
-2.672234027548860830e-02
-1.160133028888526291e-02
5.505461338420043760e-02
2.237050142196327085e-02
2.332669236988255124e-02
-9.763627151500912926e-03
3.081103373402652168e-02
6.412012719868973032e-02
9.950572181554885598e-02
7.280041289191256648e-02
1.050583881737675307e-02
1.183680671713591426e-01
1.247009678365170321e-01
7.554158760399226624e-02
1.313569314950368550e-01
1.188795281213318178e-01
1.230233583868815261e-01
1.094599600069799950e-01
9.709949097570205745e-02
9.836642084228622296e-02
1.325703768524653103e-01
1.627246767800508143e-01
1.445122932454656339e-01
1.532736984529048385e-01
2.017844682404840995e-01
2.054890205032821604e-01
1.507213568913909341e-01
1.756665097117989238e-01
1.795596068073034013e-01
2.194605012502240104e-01
1.764008798571075898e-01
2.265020402416638434e-01
2.353739128311931328e-01
2.113802432105902074e-01
1.955466246345578252e-01
1.708193881595217734e-01
2.127445635409942748e-01
2.138224100541849249e-01
2.283414582110114555e-01
1.851086726170209917e-01
1.526574240598217169e-01
1.891011820378880326e-01
2.159877378162269324e-01
2.031136077069758683e-01
1.905093984531139040e-01
1.880401551672262195e-01
2.137484951797622434e-01
1.664535842191607606e-01
1.321105295653145217e-01
1.401567795368917624e-01
1.814507142179280219e-01
7.905909683438872015e-02
1.506066860561489362e-01
1.868266646979827306e-01
1.261385270134466052e-01
1.607721010150898744e-01
1.423263625772398233e-01
1.627103984735583098e-01
1.342080514343591824e-01
1.167636619089598982e-01
8.877984829050403204e-02
1.035762133698338167e-01
9.178614099476900545e-02
7.445423344982556035e-02
5.552517737589489355e-02
6.983702238145408914e-02
2.741703900852316550e-02
4.314131361604266884e-02
5.635137529507647236e-02
7.225407275799511364e-02
6.241005631902413198e-02
1.548214868412764456e-02
4.706493836716344609e-02
-1.245479424237527083e-02
2.274219956728667363e-02
3.108587706714142224e-02
1.189336549380221042e-04
7.141991429096002097e-03
-2.106161783978871896e-02
-1.717934242603902373e-02
-6.117528627620857223e-02
-1.026154785241337880e-02
2.507402019459989417e-02
-3.015081870580188506e-02
-4.513624887292062154e-02
-1.631795734379248852e-02
-5.085527390871744102e-02
2.498575583364364555e-02
-3.753295635852418183e-02
-3.428749154673702004e-02
-4.855138258092979442e-02
-4.260776461978098284e-02
-1.509707339286180117e-02
-2.665536521067089423e-02
-3.469939210933550844e-02
-2.280314212937867985e-02
-2.052318532268320242e-02
-2.526574858338334617e-02
-3.862642891206233275e-02
-3.620587912924261298e-02
-2.402485229398782646e-02
-4.630023809733535556e-02
-1.215741194234532530e-01
-5.361011728667169213e-02
-6.442499909792458179e-02
-3.481095314177521521e-02
-6.180921618329771050e-02
-2.575757456431824674e-02
-2.602795422662351754e-02
-5.920156834508343707e-02
-1.056484423225383940e-01
-4.317439191044379621e-02
-5.744031276291618193e-02
-8.072938944916999149e-02
-2.695222280317995447e-02
-6.161771205824067427e-02
-5.141360520619296659e-02
-8.235735698602726640e-02
-7.337305644604048827e-02
-7.538900338146553581e-02
-1.125826884301970310e-01
-4.816573993501020029e-02
-3.621204464587872429e-02
-7.399114207324493375e-02
-4.950858945168547243e-02
-8.004927302464828753e-02
-6.654262948310105119e-03
-2.371871436116086349e-02
-4.425295439934788522e-02
-3.747473288366617861e-02
1.057847376151020702e-03
-6.231358824154809017e-02
1.881140269106466867e-02
1.159220947623060965e-02
-4.223252206278893528e-02
-1.482892223940435183e-05
-5.136605273754865642e-02
-1.384599972450349659e-03
8.534005510257153260e-03
-3.032116243413998657e-02
-1.620528183110536702e-03
-1.134997683104493199e-02
2.716404175530470755e-03
-6.976658381892972272e-02
4.852024726245566383e-02
1.969807101180878067e-02
-1.995040070958820771e-02
1.111477311042000787e-02
-1.593946027178756719e-02
4.719039082206997332e-02
3.704632633803196795e-02
-1.072194503441425278e-02
4.464192845520238012e-02
3.881443308177333351e-02
1.138674242795155445e-01
8.006924113050090108e-02
6.461137450776149871e-02
9.327184995783005528e-02
6.110599291371876518e-02
1.305110092561383994e-01
8.363502544787106141e-02
1.017184964793589746e-01
5.623176533958598733e-02
1.015477330068632056e-01
1.156681205834466653e-01
1.658406902765377500e-01
7.786194823318243197e-02
9.408138377048021195e-02
1.185881681975058111e-01
8.924065959903779155e-02
9.217265481880004829e-02
6.604875221910863625e-02
9.317488368709178626e-02
7.809220151337281646e-02
9.875240925706640915e-02
1.047580603312641273e-01
1.220103940910962637e-01
7.333432958078348052e-02
6.612414206282186957e-02
7.088636797791907085e-02
8.207517629393312752e-04
1.036345083296981856e-01
5.974989042642403492e-02
6.486373501710987477e-02
7.015777562855912697e-02
7.887744817205942505e-02
1.029010364302834352e-01
1.263041286526993268e-01
1.461793397623348534e-01
1.766184686857240616e-01
2.267480343009091182e-01
2.860572322902561471e-01
3.508461910157034680e-01
4.006182105643509850e-01
4.650838110960824334e-01
5.833744650025243228e-01
6.529537058152559137e-01
7.502619834890497108e-01
8.069418142417223994e-01
8.832611670221709455e-01
9.187625237112873045e-01
1.121713153142038344e+00
1.069209953116475376e+00
1.077119698873839404e+00
1.117790972459243637e+00
1.070974353578618032e+00
1.091320408405544562e+00
1.019104363878927222e+00
9.301616898171978232e-01
8.617045550379061059e-01
7.715507885117168785e-01
7.258040219318744324e-01
6.022249318355406000e-01
5.425043122487458458e-01
3.995856776534729704e-01
3.455106761007465388e-01
2.290302236148324122e-01
1.968657921676118805e-01
1.642657430135834040e-01
1.702816167490778521e-01
8.467247923738493998e-02
6.422013007888911773e-02
3.664706087130207429e-02
1.374708655052720579e-02
1.449659246386354045e-02
1.990737412164290954e-02
3.649111061345749335e-02
3.943303064533486973e-02
4.370055115774428706e-02
2.266756676807558935e-02
2.909442242034006310e-02
2.046944194767848224e-02
1.853228488953442138e-02
6.593041373949320993e-02
6.224597693483055472e-02
6.054119892650403068e-02
4.801829380332355707e-02
5.349257601432481218e-02
6.290787281090204353e-02
8.017532877817222514e-02
7.880382482455575155e-02
1.171490254465893388e-01
1.326363718307563277e-01
1.802522364952675593e-01
1.676706365993263781e-01
1.423357311692355076e-01
1.318740860126330905e-01
1.265459088299407953e-01
1.272015940556489033e-01
1.520640332145244411e-01
1.705162354363108368e-01
1.157178973770435632e-01
2.130202551715888182e-01
1.716466902922545446e-01
1.513502069926335181e-01
1.697094497369437960e-01
2.363851970977685346e-01
1.889280433782495883e-01
1.630717902655509643e-01
1.944793485911624209e-01
2.399720187647452763e-01
1.774125572574135890e-01
2.261175790408926911e-01
2.140752773168843048e-01
2.213921697081214501e-01
1.689649519074072903e-01
2.562489178624290376e-01
2.541509693080846732e-01
2.215422606230454672e-01
1.987250465640648667e-01
2.172362561508371093e-01
2.318636072428202077e-01
2.424191517494636017e-01
2.294987658823730847e-01
2.472534660872919843e-01
2.441515258400534516e-01
2.015395521291900582e-01
1.822225604304538171e-01
1.869439046311737185e-01
2.025767469891913697e-01
1.893133325796311772e-01
1.598562978380964894e-01
1.833485788811797801e-01
1.525744379773236459e-01
1.377770472643372046e-01
1.281152410802844088e-01
1.800378866820566137e-01
9.886139477468637582e-02
1.694130666223130632e-01
1.138316757534201668e-01
1.329529966610711877e-01
1.634392046102355056e-01
1.145772239223168953e-01
1.057060220323037952e-01
9.138401593286324398e-02
9.572411272908602775e-02
8.490978866690582216e-02
7.989749388855318935e-02
8.181366579000892703e-02
1.090186478714614410e-01
3.428829591768471630e-02
5.481190978063668617e-04
3.888194653016580071e-02
5.732876121523206026e-02
5.889481852017777741e-02
4.283602928604098026e-02
8.470188096720404625e-02
2.466487740738201873e-02
2.175586312148935358e-02
2.249885353304018065e-02
3.752370965989791640e-02
6.109223083758202194e-03
-1.556067888584294900e-02
-1.238906353835971669e-02
2.534170576363629912e-02
-2.527650513474535843e-02
7.181377326878285797e-03
3.301553412087059047e-02
4.037714132702225484e-02
1.196011742131900153e-02
2.270495437225057700e-02
-2.517610702229880135e-02
-2.145757509204711255e-03
-5.383953039019540032e-02
3.263934346430304168e-03
-5.874972918923056231e-02
-3.318389673204993895e-02
-6.687787756218966512e-04
-2.723996711166924711e-02
6.067332533646137976e-02
4.659710155248132993e-03
1.107045804130991733e-02
-9.522538357931693495e-03
2.348837219409160085e-02
-1.967498774844162260e-02
1.468745497636420039e-02
1.506743763536618624e-02
-5.221922867168814902e-02
1.035870728008913590e-02
5.379871508321832502e-02
-1.712932941832526895e-02
-1.492379767943093419e-02
-7.027307019667100585e-02
1.988719155479292539e-02
-5.153027387049241570e-02
-2.535499831358526204e-02
8.548540114641959425e-03
-4.068890381464037448e-02
1.933176175369191729e-02
-2.026700329231643713e-02
1.963608754268821813e-03
-1.921011742632864477e-02
-1.223640498730580936e-02
-2.825095651690223350e-02
-3.693404180353240807e-02
-7.120469964887755562e-03
-2.332683413519634139e-02
-3.672718316000853078e-02
4.360592013528399175e-02
3.123423466093514303e-02
4.807338525295475062e-02
2.425952790012614324e-02
9.819413548305620451e-03
1.752462448256083757e-02
3.648404094681363674e-02
4.682583331167183838e-02
6.690800209535692489e-02
4.330681322651526444e-02
-1.862126314858770755e-03
9.184505163648881698e-02
6.389200405258149695e-02
4.305304216023439490e-02
5.671617766458280502e-02
8.053956801391898290e-02
1.092590448467216091e-01
4.483519760993587289e-02
4.993318619625127658e-02
9.287361081011027975e-02
7.571382814740623690e-02
9.128891535047846395e-02
3.457602817701398157e-02
7.351134904362581490e-02
1.021203278980846729e-01
1.469989019444081224e-01
1.651140440506009832e-01
1.122967653948147432e-01
1.690138515567446154e-01
1.149318994389700865e-01
1.276651530665427747e-01
9.868048220728629916e-02
1.383086335660860255e-01
7.177636402273143701e-02
1.106160007365625947e-01
1.866592306758749209e-01
1.350753510929964540e-01
1.148868691681871196e-01
1.740319475062420962e-01
1.682569087733546964e-01
1.355200855195574372e-01
1.556893440240498805e-01
1.125092257604714263e-01
1.318403774725115385e-01
1.833004656013611511e-01
1.607974703714033504e-01
1.538093060274886570e-01
1.253152133587157879e-01
1.089930816981842382e-01
1.492203425218861512e-01
1.257129997429950741e-01
5.441191645893909273e-02
1.337895358019061676e-01
5.755784412065458044e-02
8.489514837864711727e-02
1.326585100434209685e-01
1.312528419276087210e-01
5.447328596097279069e-02
1.873751084383476762e-01
2.043347259513269565e-01
1.881618893392049130e-01
2.387097351489335662e-01
2.847175253702082798e-01
3.167821733371988802e-01
4.463606885786693401e-01
4.944306079375138108e-01
6.073363245714730185e-01
6.430674069921180624e-01
7.606874632921484247e-01
9.328146333842838311e-01
9.217705969610788808e-01
1.008780198655726101e+00
1.056811269072207793e+00
1.099754401158433259e+00
1.140228753284330931e+00
1.107339254205866874e+00
1.144147385557733099e+00
1.167294094976052632e+00
1.070864713239534582e+00
1.012180339885956792e+00
9.447877311313193083e-01
8.160432808332512833e-01
7.338707148636539612e-01
6.694403675376284779e-01
6.169525679579135335e-01
5.360559070675038340e-01
4.136416402750682231e-01
3.543280563183844878e-01
3.599291098688521262e-01
2.296153008193926870e-01
1.939531558255906674e-01
1.576227997357132760e-01
1.479711171554097815e-01
9.230211230025582581e-02
1.304887231420626126e-01
1.477188006849781132e-01
1.060957089452580770e-01
8.935186559399405093e-02
5.718947083589456803e-02
1.106541230411793586e-01
9.444131886139070509e-02
4.836253998931360626e-02
3.609709284127463752e-02
3.995599261897864185e-02
7.796030978040116577e-02
1.493168411873295187e-01
1.099522233865570797e-01
1.721896844633873380e-01
1.587079630015575948e-01
1.571332157883986724e-01
1.539644933826709028e-01
9.157098563701845939e-02
1.502703853399947054e-01
1.997995119983263790e-01
1.385049260524857107e-01
2.127344893530014602e-01
1.884755839006199141e-01
2.142378149059170900e-01
2.063608053621656113e-01
2.324322362574345047e-01
2.411594935171345044e-01
2.164446335670311417e-01
2.245122694320813572e-01
2.085964851072440174e-01
2.485249669322289467e-01
2.531438760183725156e-01
2.471396774737677493e-01
2.269846479283740559e-01
2.212713904968021950e-01
2.456500064136630801e-01
2.254625764634944074e-01
2.914563986301512144e-01
2.556683294019612696e-01
2.872826195740248445e-01
3.166368379501627861e-01
3.128141454036981184e-01
2.516331563701837970e-01
2.813774283989194380e-01
2.681343356890238394e-01
2.148445850948166869e-01
3.367613791903841802e-01
2.566025138036977515e-01
2.661518915825334952e-01
3.104362140257156955e-01
2.692832818879445922e-01
2.650602112186151160e-01
2.486743580747383109e-01
3.012264448713376508e-01
2.678337599040592210e-01
2.690684204101733146e-01
2.294605710138478138e-01
2.810881358530224472e-01
2.652084548958552057e-01
2.439912350979397127e-01
2.531777559059824600e-01
2.112539196956634557e-01
1.755685416790923048e-01
2.276689782971225984e-01
2.374918779242731759e-01
1.421964043690808754e-01
2.118681242293475875e-01
1.925218443678700375e-01
2.160510287956717013e-01
1.517618663414299074e-01
1.710424506537356060e-01
1.980969809409489357e-01
8.292993882403063011e-02
1.260741799020174692e-01
1.266272115388712982e-01
1.187420390818159643e-01
1.652371954611181470e-01
1.018706211277786572e-01
1.423417169209524880e-01
9.702532631145008302e-02
9.532428834293886488e-02
1.016370902147900462e-01
9.023333258478234697e-02
7.915520494573133337e-02
7.151024892784138554e-02
1.937637261987940757e-02
8.085011656137644498e-02
5.683645656328050605e-02
7.158942154668934688e-02
8.788528892538793880e-02
9.707204476062621101e-02
2.082179687498829368e-02
2.244655239628851745e-02
7.080543629395713578e-02
5.901842476272735338e-02
7.643668323058785963e-02
5.712999354363324650e-02
4.386514344607806565e-02
6.125711399728213380e-02
4.016150944770386505e-02
3.553993722858858617e-02
7.436195534087655656e-02
4.633282416421074384e-02
2.734116266348647975e-02
6.221630570087906958e-02
9.597382223959016745e-02
5.001538549985107968e-02
2.879217404891465035e-02
2.486146255411819314e-02
1.062832164069864582e-01
1.150314811018386327e-02
2.711451981383511747e-02
4.776732275959519325e-02
-1.920106819486414040e-03
2.438666224228516755e-02
5.502532589053071854e-02
3.733658278353112203e-02
1.094898645220934025e-02
6.670788938578518790e-02
1.752260245269932765e-02
6.681814188488685580e-02
7.743685201458741507e-02
3.558167236418226242e-03
6.227229050133643168e-02
6.353647055497516072e-02
3.635914777365475969e-02
6.293194403687019101e-02
6.535635987336727015e-02
7.428080201033897267e-02
3.066332662204007686e-02
4.813081927437864310e-02
2.391056473987959036e-02
2.312825771115912046e-02
7.559921228852875541e-02
3.475347080569636538e-02
6.889682916946945901e-02
5.207437924446468858e-02
-9.129070928262983387e-03
6.398172156031196878e-02
7.506082221989708592e-03
5.105368815603812671e-03
6.616619866413205042e-02
5.838047061967487072e-02
7.278486496273145478e-02
7.093863881459597232e-02
4.529613847224624179e-02
2.960248670230684193e-02
4.897588443454731211e-02
1.450074280966928419e-01
9.088999932458088904e-02
7.703076487648106985e-02
9.767740391895431140e-02
7.496644848112291037e-02
1.145435826454804795e-01
1.115705511637817282e-01
1.234656655297920319e-01
1.329072262628265277e-01
1.758185255540520575e-01
1.645790554964722541e-01
1.630197329631389858e-01
1.805755430983246312e-01
1.671235335776128095e-01
1.706425750306897193e-01
1.954441635389218002e-01
1.311392254023242832e-01
1.749084715412697055e-01
1.756770118478219733e-01
1.503316249183414555e-01
2.089466697970000231e-01
2.217215318704686966e-01
2.299672690662331320e-01
1.517031022246643768e-01
1.681441005758818608e-01
1.695810449366669803e-01
2.073076616496925817e-01
1.576881185972460186e-01
2.124085853866702900e-01
2.463974941273557873e-01
1.669351743244688879e-01
1.678198010365816173e-01
1.697823560457767389e-01
2.081588277616948646e-01
1.503894769724461455e-01
1.980448584317380245e-01
1.784108972571326612e-01
1.648974307743826806e-01
1.385227623454712842e-01
1.588598964932816660e-01
1.174135315908334531e-01
1.720349448426174988e-01
1.326751224799892492e-01
1.797219578514534510e-01
1.787163360696113756e-01
2.257150967174945955e-01
1.656636906381353247e-01
2.102284489108129650e-01
2.918904554418302877e-01
3.004957617871659714e-01
3.600798491331191342e-01
4.570469205494115394e-01
5.061405466809019149e-01
5.968495765286981891e-01
6.733757957398440741e-01
7.360767085991886116e-01
8.679645551105346080e-01
9.252564697824342543e-01
9.798258131030957996e-01
1.018449183241023404e+00
1.141587774863016103e+00
1.192978394604251813e+00
1.155694065280776117e+00
1.160697503836928712e+00
1.138387912527749624e+00
1.123326040431534834e+00
1.083580129413140636e+00
9.843324073866216439e-01
9.813133749426923291e-01
8.264894123872366105e-01
7.881754206536407681e-01
6.674659639389011190e-01
5.872721220130104891e-01
5.291642779731600132e-01
4.239780697013600386e-01
3.182113894600714921e-01
2.429807569678930912e-01
2.907909187406238494e-01
2.720080514487407952e-01
1.875394497333810473e-01
2.006631222856437580e-01
1.353083499566072601e-01
8.765209927671527290e-02
8.063336429227140056e-02
1.236922983164848999e-01
9.969223110223586481e-02
1.438137570367248042e-01
1.335099590789687873e-01
1.055905356907852755e-01
1.912332248988801719e-01
7.165677392625018072e-02
1.736115871893118279e-01
1.037608567621557676e-01
1.466062624219241772e-01
1.701492431524325166e-01
1.586347462394010477e-01
2.201582970656956184e-01
9.052035585582521304e-02
1.800149666421993477e-01
1.375857811764595040e-01
2.014357079519951688e-01
1.687371767919329524e-01
2.196983637719394089e-01
2.148834310758955535e-01
2.083970453759139141e-01
2.129932723397683081e-01
2.378789580697495687e-01
1.921622412810966019e-01
2.567529326506325926e-01
2.428680239027532772e-01
2.919849348138151002e-01
2.753961813508052914e-01
2.539824125374343100e-01
2.669201514631011074e-01
2.774384395518734725e-01
2.292854957692265772e-01
2.776222397101156258e-01
2.840315590091114784e-01
2.739136441105086694e-01
2.846832333723846031e-01
2.420949372664121524e-01
3.001900617564486895e-01
2.806240877347915830e-01
2.932128409238846101e-01
2.996978372728542062e-01
2.883277383999644505e-01
3.100342056827121162e-01
3.309378114093854961e-01
3.132379163841808034e-01
2.765932174955141876e-01
2.891330573493888223e-01
3.304805573185748413e-01
3.183711946333696030e-01
3.329846380704666875e-01
2.803310137116760692e-01
2.670485608384023379e-01
2.704838097850319478e-01
2.449291823871750373e-01
2.834665517948639080e-01
2.504359135353960153e-01
2.480607311738810827e-01
2.908613635161556576e-01
2.560768370751865808e-01
2.723660026307970217e-01
2.136504392486063830e-01
2.195324330555545322e-01
2.590539390968295552e-01
2.428887866088919878e-01
1.573719717764531789e-01
1.941954846616053831e-01
1.884152083577872727e-01
1.419011625950298006e-01
2.199903030200541232e-01
1.819884672066525710e-01
1.112364432036641593e-01
1.302635106171002033e-01
1.494483389841615162e-01
9.286147472897975097e-02
1.663796459037547026e-01
9.410633238119162081e-02
7.337030584227058339e-02
1.135815382016644171e-01
8.414483965381763797e-02
7.449566630444667825e-02
8.391734892645175137e-02
7.074402199492627052e-02
7.701395989926712593e-02
5.243962472436927702e-02
6.346922566043047831e-02
6.326981836832817896e-02
7.490852450624285730e-02
1.124691689282958929e-01
9.188848585725151175e-02
8.944587666000738957e-02
5.020280648369644660e-03
1.099397561444688809e-01
1.001493051576181903e-01
8.541170865712519045e-02
7.593109029432698609e-02
7.132363971128841129e-02
3.151411725555235133e-02
5.931421702449118927e-02
9.210238518432549426e-02
6.006864398496527396e-02
1.903446798150584124e-02
5.285885114130259299e-02
-1.932440343340951355e-02
6.494036353359680658e-02
2.031468589563420468e-02
2.572284482990716548e-02
6.616937144117884806e-02
6.125004661981515997e-02
2.532133604988314607e-02
2.381729170477024649e-02
6.968905957654750183e-02
5.563185941133366036e-02
4.942007765212597103e-02
4.653926681184501757e-02
3.825343801391976190e-02
1.113864906159966472e-01
3.706896484102463474e-02
5.914880415811131498e-02
8.124817210452875416e-02
3.862124120562714785e-02
2.882492270013101154e-02
2.811813931195610711e-02
4.031616497381376035e-02
2.023114199255962933e-02
-1.770182192703060459e-02
4.747654091140952881e-03
6.177282465255377886e-02
3.167621778515354591e-02
7.583773821684801353e-02
2.388576360695107703e-02
2.798791803115886767e-02
7.580239651839787429e-02
1.676758559187514069e-02
8.447021853558075999e-02
4.630677025979779843e-02
5.790888953359824010e-02
2.160491194185956698e-02
9.302635530255475016e-03
6.371195799220584488e-02
8.025477903652658562e-02
9.002425732277800907e-02
1.037217804576271718e-01
6.413425855668444808e-02
4.018060056583260681e-02
1.220885375228755593e-01
7.856403576106149589e-02
8.425567825601637528e-02
6.116974591368051772e-02
1.347513363518856033e-01
1.053000442855351604e-01
8.865930101082805659e-02
9.934145589404538845e-02
1.960114455958498203e-01
1.879099158981044349e-01
1.235073956988226029e-01
9.150235596232220159e-02
1.185513873440883492e-01
1.428259168125963485e-01
1.188984229954746508e-01
1.334111272795038272e-01
1.336835337794464451e-01
1.710775399035138478e-01
1.813306302609646592e-01
2.204477627979078702e-01
1.999593351374807371e-01
2.006665131250959799e-01
1.270685063368919288e-01
1.659712284140804628e-01
1.638601871408711941e-01
1.587606219096559246e-01
2.033005370558126912e-01
1.592863066425491414e-01
1.706880589134654180e-01
1.582549153021451938e-01
1.578370014946744171e-01
1.645014437591007517e-01
2.638340233555115377e-01
1.865541069880592429e-01
1.864601944760953534e-01
1.625681220769607527e-01
2.075366594376672202e-01
1.345382124433046334e-01
2.062780469256331184e-01
1.893839606122552643e-01
1.910474829947305109e-01
1.419899657435769735e-01
1.259863694317751581e-01
9.713485336551469507e-02
8.406040695673094865e-02
1.927167568658652019e-01
1.782229725026535649e-01
2.640861786780187570e-01
1.913066558456985033e-01
2.274055087048643398e-01
2.725936625950989844e-01
2.637798370878459142e-01
3.743518109768332880e-01
4.306816092928947293e-01
5.180296698226588559e-01
6.302952102433377890e-01
6.584070779862651879e-01
7.594238126550605372e-01
9.001053529765922212e-01
8.984132084693170484e-01
1.060911514294908153e+00
1.070337660656635492e+00
1.133276870536960912e+00
1.134097524134146884e+00
1.146540258423181857e+00
1.149875757508411978e+00
1.154320557208654785e+00
1.059512653512145519e+00
9.778685894925337463e-01
9.264592374602733660e-01
8.344560137575955938e-01
7.532295803230089071e-01
6.696334467451695582e-01
5.284927592499975013e-01
4.937940119106299930e-01
3.976591914049339982e-01
3.113055818455832680e-01
2.351150686989545158e-01
2.007586735802956435e-01
1.979873277622065386e-01
1.353167844728042635e-01
1.455838521484535408e-01
1.828663309090595435e-01
5.288915920760489664e-02
9.344058372824988468e-02
1.176483324798201641e-01
1.156187735846651715e-01
7.615653711361161649e-02
6.332856269939983462e-02
1.013304870165967625e-01
7.746751863904527413e-02
1.110165702533350007e-01
1.024279436789886644e-01
1.077300863760872474e-01
1.098680972852302262e-01
1.013645457301246139e-01
9.010440823674116528e-02
1.476825478016181581e-01
1.043709821555517808e-01
1.183068692090980256e-01
1.016031766914621270e-01
1.036420403505694809e-01
1.567158385648484697e-01
1.910751940507076918e-01
2.035256698000008635e-01
1.829755138807887538e-01
1.874760619614738999e-01
2.288734600602124747e-01
2.320519272089371643e-01
1.679187346888423582e-01
1.589937503544038566e-01
2.254421415348151769e-01
2.033680311804861029e-01
1.941152819929142237e-01
2.528735457863249825e-01
2.524471675364681200e-01
1.723752208718090928e-01
2.519310349545915706e-01
2.652696561702735378e-01
2.340163998202535178e-01
2.574553869439448195e-01
2.318602431643434492e-01
2.378947380556813984e-01
2.670212392203097362e-01
2.582825680424549741e-01
2.078953886246126814e-01
2.524971910838812450e-01
3.015863520827607447e-01
2.987003084872439373e-01
2.302879689512972450e-01
2.438083250345574049e-01
2.966994400777571705e-01
2.355218060258629231e-01
2.301733958801909785e-01
2.437877752973838796e-01
2.108165988061176388e-01
2.280544310132470720e-01
2.504570882301817569e-01
1.756231252025084177e-01
1.654202181533512006e-01
1.406448070370922565e-01
1.929648324650636015e-01
1.712068895122080547e-01
2.410817741784637147e-01
1.196117405090533492e-01
1.568015223260621760e-01
1.794179851895847111e-01
1.243704512403182860e-01
2.014468647628779863e-01
1.920267724682742649e-01
1.481675655242723488e-01
1.664103984160656968e-01
9.620007551337809992e-02
1.450103365975077829e-01
1.265724798885411173e-01
1.382971870808154258e-01
1.287722137655844534e-01
9.261306261267837625e-02
1.081099228081562613e-01
9.785677182461134660e-02
6.585659449216593742e-02
3.877098965859349794e-02
5.965285962948812561e-03
7.671673067384275624e-02
8.873103201574987497e-02
5.167719875134952484e-02
5.061118590828049546e-02
2.448289269451774108e-02
3.735639073289274970e-02
2.515368351344837022e-02
2.216563276389426143e-02
4.357416889066583615e-02
1.047261569877797477e-01
2.009848877900633282e-02
6.070525790593300081e-02
9.354648024472719120e-03
1.022708927446764476e-01
-2.330463426889456575e-03
2.462144527931003218e-02
-1.114872760903544424e-02
5.075560813655410897e-02
-2.185644649879779633e-02
1.367988971494131512e-02
-2.189833078182557360e-02
4.856473880518663577e-02
-2.009930178421864833e-02
-6.898601472862982142e-02
4.269399151281019072e-03
2.346133195293092014e-02
-3.294316257575422707e-02
4.313091625499129028e-02
7.080462261305522399e-03
8.550931991011716596e-03
-4.942601056708198493e-02
-7.689477917740475746e-03
-8.407828706510220990e-03
4.664965762138057609e-03
4.579628939563445272e-02
-4.768600330991520919e-02
3.714628435923289854e-03
-5.534123610303392365e-02
-1.036482144763886670e-03
-4.719194623071680528e-02
-3.075534837361161566e-02
-4.136087083341301318e-02
-3.883345954940967820e-02
-3.781161374419135524e-02
-2.622681179169902843e-03
-1.516544009923094516e-02
-2.127706364179695123e-02
-4.259738582893345116e-02
-3.813238515002115650e-03
-4.534783022038170464e-02
-1.805668468870152282e-02
1.115615744918290082e-02
-1.744972643757606787e-02
1.100801006391128115e-02
-3.435504906145407655e-03
3.957580571432167682e-02
-4.605296821319219969e-02
-6.310756877990085847e-03
-4.529071383251943167e-03
-6.087431524298575827e-03
8.863809873353269142e-02
1.421948839253612401e-02
2.574055407785859340e-03
2.429213555675963088e-02
-4.269095241649439182e-02
-4.421646795149207498e-02
-1.652080433546567612e-02
2.954283822944293522e-02
3.326669395226736214e-02
1.143264407723935255e-02
3.636532032900301886e-03
4.040568662977024605e-02
7.340492638053418284e-02
3.620660384419908256e-02
4.943335389981233507e-02
1.963768685795104496e-02
7.470943646724940990e-02
6.403669059670023811e-02
1.189856042888573495e-01
2.985956406795291923e-02
7.723940049452714118e-02
7.637762958067656482e-02
9.457056236842710517e-02
9.816852564939296255e-02
9.600035769063536284e-02
7.215520096201889777e-02
1.735438228632991409e-01
1.346820124273686026e-01
1.278368156746260698e-01
1.369058957824683675e-01
1.074143955484179735e-01
1.731239695789130451e-01
1.256048203499231242e-01
1.698135991879638484e-01
1.245758311709012356e-01
9.080173246532530218e-02
1.833800599926238561e-01
1.054369598454393958e-01
1.476788720640843933e-01
1.328244220986795898e-01
5.985380698948152001e-02
1.189484700969520858e-01
8.548598990326060354e-02
1.186670183152751940e-01
6.032231628434849002e-02
9.321241397386814675e-02
1.333488739984375893e-01
5.712647970908395212e-02
6.963423363809639888e-02
7.733852988511161208e-02
1.118997038071384842e-01
6.143314983050200684e-02
1.065539328077284298e-01
1.025979286251457318e-01
1.429607693114981481e-01
2.202122222834910770e-01
2.371227963880773448e-01
2.298925043311126071e-01
2.831471245038766904e-01
3.899924403548609697e-01
4.557613867447267708e-01
5.244444765262147312e-01
6.355721318315129542e-01
7.022622760653378648e-01
7.999824242488133841e-01
8.642873001686937062e-01
9.725849121657650365e-01
9.750923224893593977e-01
1.045137908045479236e+00
1.089576331378241392e+00
1.129780982538718836e+00
1.147813647496207956e+00
1.116632615715791088e+00
9.801764741417744453e-01
9.916085299841519429e-01
8.450277548574934849e-01
7.980275752259556876e-01
6.721776487456571081e-01
6.280991857306539305e-01
5.333710228784400709e-01
4.506053509726363759e-01
3.854527533049626475e-01
3.154493027732148125e-01
2.982893888365298896e-01
1.921978005425865610e-01
1.134454942257221988e-01
9.666690412300502078e-02
9.700932926972560821e-02
1.927099639683739485e-02
6.904139991116046982e-02
8.522403085940780110e-02
-1.498643977557460177e-02
-7.821522631873481513e-04
-9.988962237067702810e-03
7.355005705338008015e-03
7.023991070967244843e-02
7.236784159050166365e-02
-1.124553135773592033e-02
5.669964494052554677e-02
4.941429799494966718e-02
6.245413474585329722e-02
2.761397377968080602e-02
3.160541408352000869e-02
6.249773453625984132e-02
4.642586709009977053e-02
1.092929177803626806e-01
9.408994261673561676e-02
9.310121756259234771e-02
1.240865880496130336e-01
1.204510124717977360e-01
8.109725324677599656e-02
9.990829376368728920e-02
7.445893286660265620e-02
1.165705005678812634e-01
1.764076529676860128e-01
1.594247341062075274e-01
1.469901979101179423e-01
1.152059580450680021e-01
1.421521545467068770e-01
1.605785294104259409e-01
1.813183586926999658e-01
2.210049440689360878e-01
2.151316954283922223e-01
1.912154740297128119e-01
1.815235962606282505e-01
2.118123114247743022e-01
2.084970171809664152e-01
1.900549327366989616e-01
2.381387289040733102e-01
1.842079825470677168e-01
2.223506431421912455e-01
1.966310565897783080e-01
2.069667485566267229e-01
2.544377021743140510e-01
2.418592260234004587e-01
2.527365980608679563e-01
1.815137223545316147e-01
2.047615967202373322e-01
2.179745591909483249e-01
2.122205289974437858e-01
2.152762704337958521e-01
2.020631063989706822e-01
1.844150985340328730e-01
2.078060358954401665e-01
1.831970086051341873e-01
1.278815617423908479e-01
1.893104613881410603e-01
1.179801350895517270e-01
1.330326924825147028e-01
1.547995977635734099e-01
9.334295965759525915e-02
1.612038138737117154e-01
1.194645392177881849e-01
1.538973616856622872e-01
1.217913780138817903e-01
1.121086845819491279e-01
8.770993277946889655e-02
8.822828800189252973e-02
9.290471758897300703e-02
5.405594439654484024e-02
1.034439334061889593e-01
3.729709551992389099e-02
7.341123334122662270e-02
4.921068062553594913e-02
8.106377175545689817e-02
4.448059125833795507e-02
4.992826161111580535e-02
4.156351044542819229e-02
5.076764924515492911e-02
1.617273713396036317e-02
1.027306294930280250e-02
4.171837399347136377e-02
-2.180563657838761535e-02
-8.677645628561818369e-03
-1.337112356375820543e-02
-1.329943493228917528e-02
-2.056038379449966896e-02
-1.575103168341215887e-02
2.122393192915329740e-03
-2.288719095779787743e-02
-6.245132736251211153e-02
-5.140888632085456600e-02
-2.894509851891558308e-02
-1.282456142519781267e-02
-6.595561746780630175e-02
-4.187326364130718181e-02
-2.546372840614694044e-02
-2.820875521199073255e-02
-2.856032035035331595e-02
2.459346622694472129e-02
-8.437017566415233594e-02
-4.889828552354914815e-02
-1.241248187787019619e-02
-1.062126574507207960e-01
-2.288563456945327465e-02
1.736469573727727339e-02
-4.354858799188890406e-02
-3.967403133080688038e-02
-7.692489645206562754e-02
2.918673692884718451e-03
1.310994811539767380e-02
-4.653809079715086339e-02
-7.291002715888915409e-02
-6.648119663379481459e-02
5.832667620426432165e-03
-6.121817603693791021e-02
1.344599763911175777e-02
-4.900509627987636313e-02
-7.447619819232743910e-02
-3.929683616319344652e-02
-5.575699750543866573e-02
-1.899703718182643372e-02
-1.389985953517295508e-02
-1.077053401574717129e-01
-1.512265383700806681e-02
-7.516253845440998282e-02
-7.744865229403993800e-02
-6.378690480807339136e-02
-2.334746586992514361e-02
-3.810849971827645621e-02
-5.887555740051929332e-02
-1.129774281316446999e-01
4.261165889579712762e-03
-3.259119124960288549e-02
-9.312065471701339026e-03
-3.591991720739443755e-02
-5.912501857421098572e-02
-4.501331779501000635e-02
-3.496809221122702815e-02
-5.541157555397057538e-02
-7.454620433565892212e-02
-2.322009113364537081e-02
4.048295898125577746e-02
-3.416208572707983560e-02
-1.184052206128111823e-02
6.595996340587204076e-03
-5.088586121684968155e-02
-1.757870953233596489e-02
2.418416714511505139e-02
-2.159086198226918552e-02
-2.091462885327961818e-02
2.106080330256844546e-02
-3.756935128762010911e-03
6.032987534246397193e-02
8.831441301496383012e-02
3.958697947648291693e-02
-1.415285973996534274e-02
3.192967745692637527e-02
5.839198612012376499e-02
3.615929495677966399e-02
1.240584058778599619e-01
9.119941900101688481e-02
3.741280582164566160e-02
4.542183401206532911e-02
1.152318857762293369e-01
1.165999118420424641e-01
6.640181035009984356e-02
6.455041631456329143e-02
8.853183346759033179e-02
1.841375037276580806e-01
9.790551557377659420e-02
1.511917009030866732e-01
1.583174857434843097e-01
9.074728183335621645e-02
7.220514669832744925e-02
6.658623663949475580e-02
1.141484600917681419e-01
8.090152267662414909e-02
5.807016150376319297e-02
9.409093666535997547e-02
5.340624437360930177e-02
8.321749789025673083e-02
9.557430655856327673e-02
2.826675867609783344e-02
1.968870763934366802e-02
-3.617214196821517957e-03
5.541994065526227586e-02
6.159147416705479383e-03
8.029998321443823639e-02
9.582957492746105310e-02
1.951223212009617347e-02
4.946410231864013796e-02
5.199090044625194473e-02
6.726851287802601553e-02
1.510976485327084340e-01
1.614692352101777251e-01
2.049722126132587363e-01
2.830397844263571328e-01
3.032627022841455910e-01
3.795810034601226901e-01
5.002760466115555582e-01
5.424287836824507325e-01
6.227316356974946787e-01
7.900198526215119754e-01
8.139492659716597300e-01
9.329579022795846388e-01
9.829509945378924751e-01
1.030668425395254051e+00
1.079577144261611110e+00
1.088453447080859116e+00
1.122571492723716702e+00
1.062812545923261354e+00
9.897535484076028789e-01
9.987117969594718758e-01
9.106992960126943926e-01
8.720037864597924848e-01
7.682353610559087276e-01
6.811168312980571127e-01
5.853594862622488737e-01
4.500550890878042831e-01
4.086956933545001225e-01
3.603466628287145257e-01
2.706679674840108962e-01
1.961243648449258192e-01
1.769353936096360047e-01
1.668430152855569781e-01
8.807474247247111532e-02
7.382222367737262259e-02
3.469316507109594661e-02
2.764975315861457894e-02
2.874974877520107552e-02
-1.768664796840054010e-02
-3.336161345092000796e-02
2.560452915991130035e-02
2.257429432038787070e-02
-5.146125508285845362e-03
2.209086320393117975e-02
3.921974870359042076e-02
2.391015263050885742e-02
3.160708137851814953e-02
2.542178501946572994e-02
3.965636610164402498e-02
6.653509506479751701e-02
4.897088984413346113e-02
1.632362048834002516e-02
1.051049508983254444e-01
1.117976267205180452e-01
4.581948179981187863e-02
7.487907749743802355e-02
1.083731084716107740e-01
1.269272063224338165e-01
9.866183429868624621e-02
1.404967429767300657e-01
9.885378023253635349e-02
1.198769709024668784e-01
1.409141317943024274e-01
1.317658107243682153e-01
1.919181470827159841e-01
1.267885292886407334e-01
1.147854503094947187e-01
1.304278164595136791e-01
2.050717705084707798e-01
1.628352566840264581e-01
2.311550030765385511e-01
1.876261275466072909e-01
2.226574341230933285e-01
1.673790797374731798e-01
1.572121770429157073e-01
2.172989524007873097e-01
2.238210461548702512e-01
2.271376297110934417e-01
2.474141819173679979e-01
2.297202012340624488e-01
2.415709745704370526e-01
1.996031251154923858e-01
2.201975815428271754e-01
2.018836429338179972e-01
1.987917921748922623e-01
1.823541150879595396e-01
2.324035080127201669e-01
1.621552378420421381e-01
1.512918852469324338e-01
1.437197331319118310e-01
1.613389740521040117e-01
2.090825233346018663e-01
1.973996936996491314e-01
2.097018128991323949e-01
1.257682651787278283e-01
1.283022110541024718e-01
1.680062343337118957e-01
1.794254125856175885e-01
1.378529666371247075e-01
9.807273810008790282e-02
7.365004915279790842e-02
1.120618882593593379e-01
6.513460165266551916e-02
1.183789524888560485e-01
7.746732959235309857e-02
9.484814369453269112e-02
1.624042670350956397e-01
1.371432712213432326e-01
1.010263773984412528e-01
8.391500938275664456e-02
3.965312897735772529e-02
7.692387183459860334e-03
7.343146048085492927e-02
2.474509120414562086e-02
5.584582221086878406e-02
8.207247073287265993e-03
3.237064352490949537e-02
2.695987230893461678e-02
-1.261950532000046671e-02
8.140830646501574785e-02
-1.232013848725441174e-03
4.045070112405117768e-03
2.753513353117528067e-02
1.540037512361486227e-02
2.124972486708266023e-02
-2.691099054336367619e-02
-2.650029378343124117e-02
-2.990395948041818519e-03
-3.462212550769323133e-02
-1.845811130120482771e-02
1.334161570429087673e-02
-2.899961057973641718e-02
-4.690803761286296142e-02
-1.375151670826993064e-02
1.826854142534833220e-02
-4.424468416474502258e-02
7.445452406162504644e-03
-9.112588725865872208e-02
2.870455659253798308e-03
-1.952736746946442947e-02
-7.521881477725814169e-02
6.452716971504929289e-04
-5.047417136687728373e-02
-3.221034913475138983e-02
-5.328013346013989182e-02
-5.659661489761620701e-02
-6.754811590737209992e-02
3.034439206802561073e-02
1.628251834165768061e-02
1.910903873308444217e-02
-5.612224297956404373e-02
2.547597056225269635e-02
1.740835686640702235e-03
2.439739163443864836e-02
-2.199123447635337875e-02
-5.666493961842444110e-03
1.807475677017473387e-02
-6.438644391938627698e-04
-3.705099452862316983e-02
-4.397184451696980328e-02
-1.353940055258287707e-02
-1.748310389791925962e-02
-3.709136364128234192e-02
-8.425133655249869569e-02
-3.762287653245763308e-02
-5.140131943537995518e-02
-1.285615405764076180e-02
-1.810791673404257146e-02
-4.999455372619066029e-02
-7.228134381461476243e-02
-2.887977104231927855e-02
2.316201759001736832e-02
-3.271409675240695425e-02
-4.016815040953827798e-02
-2.249269313360623135e-02
-3.713193298918213148e-02
1.227528399713288115e-02
-3.917253093639124634e-02
-2.690421201750834226e-02
-1.049914905693452929e-02
3.033409640430810572e-02
-4.254250143470162532e-02
-4.483749182572591141e-02
-1.345617604344404722e-02
-4.616875006019215827e-03
-1.312416518045425758e-02
-1.108457998205126908e-02
-4.329169370225180447e-02
-1.999388804745302201e-02
-2.901472206203084200e-02
-2.913857928612947207e-02
-1.545218129909037459e-02
1.278110767953380411e-02
-3.208578394853774107e-02
-5.963252790689508448e-02
-7.665675880162049413e-03
-4.011385587508374539e-02
-8.602401341481083485e-02
-3.261698508425954490e-02
-5.583726931260879489e-02
-5.539927014763132429e-02
8.788797249269522660e-03
-8.250212985946376448e-03
-3.067728167401138906e-02
-3.420420175003838215e-02
-6.243194704839320069e-02
-1.153253164678757353e-02
-2.974423972680654074e-02
2.560303086912678328e-04
-3.599616623362376922e-02
-3.244210272193308667e-03
-6.741812193638975492e-02
-2.075098174711789353e-02
-2.697790395177097206e-02
-1.140191440627837810e-02
-6.725729509328763622e-02
-4.019187614478718362e-02
4.663712148496118592e-03
-6.601059201072990990e-02
-5.118603465434150637e-03
3.994356510945491073e-02
1.005710301156215181e-02
-3.830220410862855696e-02
