1.100399616950561432e+00
1.074528248470715486e+00
1.000897582383846851e+00
1.008405738408933328e+00
9.608152320901770516e-01
8.950506114183290896e-01
8.044121139374332818e-01
6.998065120493063285e-01
5.754633475314404611e-01
5.293725659722726684e-01
4.357071513982883060e-01
4.205563883010051129e-01
2.442023868475515780e-01
2.214203116113778458e-01
2.088945869271799094e-01
1.864451099877830753e-01
8.924166168415272049e-02
8.750893602863592247e-02
4.390142006636362643e-02
6.386144674746262184e-02
7.207289280527921782e-02
5.304914429630637474e-02
1.034685888507551332e-01
4.890079149891919663e-02
5.279261887403145781e-02
7.333879798605917599e-02
2.660946755633122884e-02
6.806580812944859615e-02
3.750274436076527634e-02
6.131414664155916683e-02
8.882171888832911255e-02
7.908649866983098742e-02
1.040195832949124127e-01
1.163020937576538377e-01
6.558863412591552089e-02
1.200313552509653520e-01
1.633079631714621505e-01
1.376900590406642810e-01
1.096030945711433530e-01
1.442689027183099437e-01
1.504627642081754479e-01
1.531238449984213268e-01
1.679189238797191563e-01
1.975551077859042659e-01
1.952168034889459058e-01
1.693221476924290925e-01
1.899781301013220014e-01
2.408217494030553685e-01
2.468622572474140908e-01
2.129337893539568205e-01
2.026921916705094473e-01
2.021712003264325708e-01
2.288054058574325034e-01
2.546907576751141766e-01
2.530344807526674900e-01
2.254137355087642014e-01
2.150984181141464557e-01
2.651686094016242334e-01
2.243319467371141795e-01
2.685316606916687832e-01
2.702992811404135720e-01
2.253647743088661726e-01
2.642259926651193691e-01
2.557130782917947376e-01
2.776937065790355819e-01
2.339567982384151146e-01
3.291312886859432130e-01
1.887985902275532979e-01
3.574048337120688812e-01
2.364475251575177683e-01
1.965763170691781636e-01
2.177617544782417813e-01
2.447196421193315319e-01
1.423554886595671531e-01
2.419790662486410726e-01
2.343022465541246546e-01
2.444493170554930817e-01
1.763917054886193492e-01
1.941007789625672775e-01
2.408502483135125938e-01
1.641964907202568269e-01
1.904349589004019072e-01
1.302039725865322406e-01
1.912330971616623132e-01
2.004573741904132622e-01
1.513878649093730044e-01
1.511081375379000891e-01
1.545398391905298263e-01
1.637938883928846401e-01
1.154734350759017147e-01
1.356073377340673292e-01
1.378450379795650993e-01
1.405812659497042982e-01
1.090867289333896095e-01
1.215056504511856927e-01
4.853258474638001696e-02
1.307896327754330956e-01
1.288667238718313179e-01
6.551717956838290502e-02
4.424326209692450856e-02
1.168554481741069379e-02
6.559787238347450367e-02
4.898648859614383039e-02
6.934381864971893294e-02
5.089172642711477235e-02
1.533143077209853794e-02
8.008950455361786569e-02
8.313331328595199854e-02
7.235667691985447902e-02
2.677437713885393034e-02
4.981563899293720010e-02
3.785669919390333843e-02
8.366061772361206572e-02
-1.738447761425785873e-02
2.389352101592891187e-03
4.013102683495035211e-02
4.862439144702604410e-02
3.204013296875751760e-02
2.401809638754720186e-02
5.916609635139071649e-02
5.449249756279932883e-02
4.421513480899435383e-02
6.300965338048530873e-02
1.572142053442079218e-03
3.465389290801930422e-02
2.015752184620020482e-02
-1.732489916526647883e-02
3.750406493702923560e-02
3.953897159772795655e-02
2.886704528624096239e-02
1.431805867892577654e-02
-1.701796377843885558e-02
2.687208678355755553e-02
2.470078419854647434e-02
1.541815529479228022e-02
-7.912966172709361146e-03
6.613966365009411874e-02
2.238432152222746482e-02
6.543660409013045409e-02
-4.775931424988102969e-02
2.685750308760225663e-02
7.652471162326400511e-02
1.771456066146601116e-02
4.454769875672823232e-03
-1.369432077881456433e-02
5.141787778785998630e-02
1.795076419314948699e-02
2.118647415014375535e-02
7.608914819332454615e-02
4.206013600974989330e-02
7.347661038950965839e-03
5.116164962371824720e-02
6.534424220306631059e-03
1.365948404585146103e-02
6.417269878471829753e-03
1.341567755004834384e-01
3.669558466546697650e-02
3.735201235123551677e-02
6.850327912940076813e-02
1.176552937002597193e-01
3.415033177622064237e-02
1.852730046481658455e-02
1.231136240047720209e-01
1.018970075310038359e-01
8.273693415002986162e-02
1.002271540212899825e-01
9.618796679939974753e-03
9.259122158686029780e-02
1.140046985494915233e-01
1.388686014395782431e-01
1.028484584119530032e-01
1.764314241490577417e-01
1.085231339074401447e-01
2.042841346866075269e-01
1.126133817836816597e-01
1.643589757806305229e-01
2.016069985800885978e-01
1.901667433507162885e-01
1.676302002697326043e-01
8.373250243905311363e-02
1.561326623886510889e-01
1.930527775959682002e-01
1.994552046002064094e-01
2.058155053525789480e-01
1.475885346017076771e-01
1.873469042021486675e-01
1.660500165854899568e-01
1.965476958521957251e-01
1.738446366799091813e-01
1.845210575611127557e-01
2.229046470327905871e-01
1.824713024360418434e-01
1.992027468516796018e-01
1.719253900204431584e-01
1.816786673515624062e-01
1.289765744949067650e-01
1.127698774237821389e-01
1.632919199346270500e-01
1.594040349863075356e-01
1.474556403515546177e-01
1.516618171601121778e-01
1.391327004397996114e-01
1.064703021051583154e-01
1.598128741276489684e-01
1.984895612993120562e-01
1.878349831925283375e-01
2.531426858997609664e-01
2.910166999665881882e-01
3.521327552821145179e-01
2.776983826946495815e-01
4.046246927981895780e-01
5.010189914156022439e-01
5.587754017232124948e-01
6.309130954286873427e-01
7.203026279001344401e-01
8.142997934927030945e-01
8.592467814636083334e-01
1.035293440215831362e+00
1.046962834857680491e+00
1.054606169157854101e+00
1.152052491998103445e+00
1.171041789680451028e+00
1.103451743867959189e+00
1.108840725719533404e+00
1.078412567481918938e+00
1.077206748250425283e+00
9.600655217951746812e-01
8.723482030752290894e-01
8.020041556576391617e-01
7.405779531664736792e-01
6.529684020200966499e-01
5.283566822775638272e-01
4.485703725568870870e-01
3.888612328715925770e-01
3.321569824007595262e-01
2.652928497715102418e-01
2.360425110973531360e-01
1.942573205266265868e-01
1.801492691586178696e-01
2.054261740643410772e-01
1.338156074676186691e-01
8.909818412504644236e-02
9.380447120439713848e-02
1.259144878635470310e-01
5.683752189622774675e-02
1.033849860168387647e-01
1.059621776909945301e-01
1.250802536452687019e-01
1.579297951978684278e-01
8.863233577302949417e-02
8.118188678161532279e-02
8.094893278088785560e-02
1.143923569910230142e-01
1.163240146321572743e-01
1.604743227654853999e-01
1.093278045970881157e-01
1.745743077624337392e-01
1.250959667693491428e-01
1.731265299803670388e-01
1.594620671924151800e-01
2.244837874655715715e-01
2.244786691992177452e-01
1.958694783807442830e-01
2.660111777470405836e-01
1.927426324079359876e-01
2.231060608797095779e-01
2.068115782731024810e-01
2.369198861958530244e-01
2.658431436711801155e-01
2.123592416923761328e-01
2.421462122037547904e-01
2.617160967253467918e-01
1.962997300480749663e-01
2.700499669599509822e-01
2.214026117135930449e-01
3.148775187739601966e-01
2.718663055857074573e-01
3.675655602023701896e-01
2.451552164074328466e-01
3.080849452513239051e-01
2.907780621763162987e-01
2.162622868813522392e-01
2.686303328369424315e-01
3.479129443308196512e-01
3.465539865475673054e-01
3.310477867907019589e-01
3.138287640702275283e-01
3.400500667060978310e-01
2.763479959920754903e-01
2.729648326508614664e-01
3.332665323376210464e-01
3.291849889221794556e-01
2.902765401830436631e-01
2.368446226360172990e-01
2.696374705205634159e-01
2.683344343772842144e-01
2.605762444950016077e-01
2.957734088356641644e-01
2.531647101543309519e-01
2.268812043812538648e-01
2.807766461839332761e-01
1.983393591827878333e-01
2.482408606309696730e-01
2.364292112057895523e-01
1.961672112318498806e-01
2.318909691319806232e-01
2.175703760756017568e-01
1.476298985658195118e-01
1.657874562669199303e-01
2.281407511869382732e-01
1.929701962236218815e-01
1.315473371981104866e-01
1.211519689981171433e-01
1.639329651325112380e-01
1.664814737020812729e-01
1.750873683500700495e-01
8.488711366506312972e-02
1.240825229747142266e-01
1.495241348238509627e-01
2.058821047307225205e-01
1.427905934130415666e-01
6.792904187123210979e-02
1.158138197642417100e-01
1.298236869857460618e-01
8.141490155018124564e-02
7.011125299551983214e-02
8.783396435819365577e-02
6.949431047182752508e-02
9.279663319747341599e-02
9.614034072011809484e-02
8.521307888950238607e-02
6.901272023519602894e-02
1.066398915501897415e-01
4.009768308451619467e-02
3.173964283032955358e-02
6.257082250725101713e-02
4.059281236577130803e-02
3.110896028184038584e-02
8.956408665952644843e-02
7.079358909804771283e-02
8.280968543585295882e-02
6.523614202506899939e-02
4.420345502706712892e-02
2.017619876799388312e-02
2.893085943975153701e-02
3.960822217490176517e-02
6.614773455473299535e-02
4.376020496223315126e-02
6.386710050556555773e-02
1.070169744337328838e-01
9.196030884207201384e-02
7.436405532971637755e-02
5.151998221668103312e-02
4.683347859710886713e-02
3.734292512593605229e-02
3.021510794299536035e-02
6.163573910885691842e-03
8.283941846343287341e-02
-1.218768270310643942e-03
1.041121540951349261e-01
3.911997436123892946e-02
6.073548935666191195e-02
3.962457561690727048e-02
6.744480032620292498e-02
5.869181654991340036e-03
2.372228095526576763e-02
7.322036101927412166e-02
4.657130520218592112e-02
6.699150216603727559e-02
7.979339622298631252e-03
1.102034164327909960e-02
5.773739691373359906e-02
1.067036429643832413e-01
8.548081327902112836e-02
9.374068048398373487e-02
5.280497747845858819e-02
8.859322483406624482e-02
1.017593263067180787e-01
3.900539761467425315e-03
4.349456396323161250e-02
9.321857618492940256e-02
8.929472296990934033e-02
6.436535803550534618e-02
1.005514915787080188e-01
9.071881196003549197e-02
1.514305799965648125e-01
1.620033517109439047e-01
1.152201569886481813e-01
1.120097409648935782e-01
1.461397456063476263e-01
1.401926510747535937e-01
1.349025746497883316e-01
1.606487500318575234e-01
1.423563394698545981e-01
8.542816487224244582e-02
1.402482898167286829e-01
2.135051225876130054e-01
1.567147928890619546e-01
1.608583776282910827e-01
1.258913698910121282e-01
1.992565317401021607e-01
1.998586669881743383e-01
2.763428834332088968e-01
2.326752739716917706e-01
1.950917226632347401e-01
1.903128629134442640e-01
1.976735284928261005e-01
1.842932840808601536e-01
1.776036411413521032e-01
2.073890199466248419e-01
2.219824418663666477e-01
2.462204110118954570e-01
1.086365340401115043e-01
1.148084523775364796e-01
2.149307494496490167e-01
1.419648596199368229e-01
2.329604286139899116e-01
9.290326959327130374e-02
1.367930421158834176e-01
1.391773671670391010e-01
1.239417770855478218e-01
1.856443932199660085e-01
1.439881410458356825e-01
1.734541197389898592e-01
1.835513602472348127e-01
2.082435122945524297e-01
2.077596723803815659e-01
2.511181009523890117e-01
2.280174971942836026e-01
3.186630774007834788e-01
2.838864697051851627e-01
3.931482624167690898e-01
4.854583690484927661e-01
5.221761798190897030e-01
6.419890778564298905e-01
6.927453973288792977e-01
7.699308011487606684e-01
8.917209054248834699e-01
9.925522341129381365e-01
1.030438294103035002e+00
1.115363640620709695e+00
1.104780257986467840e+00
1.193301704152161413e+00
1.154464437124503640e+00
1.110614515443772099e+00
1.090625778785312860e+00
1.061415745274255196e+00
9.983468015041234711e-01
9.281318700522783738e-01
8.318863120204345041e-01
7.624844166505081455e-01
6.856127255914513663e-01
6.142355736744369299e-01
5.276167913857711111e-01
4.017488779881332461e-01
3.398331861927220143e-01
2.412245106829264407e-01
2.386414468116603016e-01
1.999934308493447055e-01
2.273737230587970226e-01
1.782246876426836768e-01
1.364527611539912977e-01
1.618501681324663877e-01
1.016902690963540218e-01
1.437355065624861816e-01
1.255631353467065447e-01
8.352147694075877371e-02
8.498737740155057341e-02
1.019358567199491750e-01
1.037634099698412915e-01
1.486368140973459151e-01
1.102013393143490699e-01
1.573914824827025438e-01
1.090658486841613595e-01
1.431852236934885170e-01
1.333061232523568840e-01
1.869661856824346158e-01
1.979593101689542667e-01
1.457547067710308342e-01
1.467644938548089695e-01
1.451750813982776722e-01
1.603207763045248757e-01
1.919020301869300837e-01
1.410351398103197318e-01
1.653320751420385704e-01
1.969581577341257550e-01
1.847128183290940029e-01
2.068421314858589488e-01
2.408088617819265087e-01
2.450858998570244474e-01
2.908733472463494452e-01
2.256181055633322829e-01
3.253671842958573701e-01
2.197904705132437964e-01
2.476693253404618211e-01
3.126679401069431541e-01
3.311988765469648932e-01
2.633779039593262539e-01
2.583179046043185823e-01
2.697845970146555139e-01
2.776611829595379555e-01
2.899344174848896283e-01
2.673073885980463693e-01
2.361543514170826308e-01
3.071855823187490953e-01
2.977665756143729192e-01
2.987809342982162275e-01
2.770022770958869840e-01
2.936198647805124406e-01
3.362839775367771344e-01
3.182038646384185987e-01
2.984726729473179407e-01
2.366963689036321872e-01
2.583667811106673540e-01
2.272795335922560833e-01
2.452071712119200386e-01
2.485913279683948929e-01
2.636229173830354489e-01
2.039598043020724172e-01
2.516854784107042664e-01
2.331729156416690318e-01
2.304662953440438089e-01
1.874111800174263764e-01
2.026360377034348292e-01
2.179416912586434885e-01
2.170362621083168631e-01
1.882181979741123223e-01
1.942114449856617298e-01
1.977244297239723059e-01
2.099095627896328253e-01
1.911262668544315979e-01
2.037911483953391001e-01
1.831605527416616530e-01
1.188651966873870980e-01
1.547830358588429267e-01
1.417211015953499520e-01
8.132615619691210829e-02
1.350462087019333179e-01
4.857232770918977482e-02
9.457670370209519950e-02
1.727480054193729631e-01
1.090956212009613346e-01
9.385106627839159832e-02
6.062756886832829789e-02
9.477140579487683403e-02
5.401232471502417226e-02
1.269548154586253585e-01
3.337822358327860450e-02
5.059082048990312663e-02
4.183833053422644777e-02
5.182212952101876435e-02
3.765924690553021370e-02
4.831686648473233758e-02
8.994500080212886051e-02
6.832246268744524009e-02
8.183904031406039753e-03
1.873274958661550610e-03
1.900463003795350991e-02
5.740447886411591261e-02
5.604461688835993272e-02
6.447193291608270538e-02
6.736776014883107122e-02
5.101609530740602860e-02
5.994545148734743700e-02
1.668846960463233123e-02
6.524694873917859239e-02
2.968360937417662687e-02
2.941438540494768772e-02
-6.942185146115845140e-03
-6.727680458754776993e-04
4.560430944523409524e-02
1.160428438314511576e-02
2.050787017533412665e-02
3.517026596924228976e-02
4.668021162611572100e-02
5.538748512406002633e-03
-5.038800224170630893e-02
2.509877829808538144e-02
1.440204896248718607e-02
2.634094773049389104e-02
3.406258730161743076e-02
4.182846782798112228e-02
-2.955346264484425001e-03
3.615197011541700089e-02
1.278748762650811291e-02
-4.404692531923055931e-03
-1.091360610771227591e-02
4.681767309106236313e-02
8.510557027502810290e-02
5.273074053224375418e-02
6.391401485060670129e-02
7.362143628157366559e-02
4.653189850079741258e-02
2.320582842863666215e-02
4.627260289900070322e-02
5.469016623061158378e-02
1.221884336657139275e-01
2.331486610899565284e-02
7.677257788112283599e-03
8.141266176992800752e-02
4.744422742447074876e-02
5.994579975654909521e-02
3.390794594139649731e-02
-7.597940100358330229e-03
8.771462124442702679e-02
7.909350784844636217e-02
8.070976369084760516e-02
8.728428649127839556e-02
1.142542716407629610e-01
8.473518072850400040e-02
5.664824031364178863e-02
1.250835492601210797e-01
9.533139588221792304e-02
1.712462466097798564e-01
5.090811552471025819e-02
1.587854029332935457e-01
1.301718334173488090e-01
1.361644849096384502e-01
1.671794648874511124e-01
1.366667492706283571e-01
2.020773175005116662e-01
1.660626500368850567e-01
1.430963664989925999e-01
1.585402447961286598e-01
1.420823220282189381e-01
1.855817205810726955e-01
1.577671783962423246e-01
1.580572337922438730e-01
1.182328106925727706e-01
1.151598984505109863e-01
1.702914285078903633e-01
1.672252308987962344e-01
1.306211285805407019e-01
1.684930675042753678e-01
1.443758768817079707e-01
1.017825673498214678e-01
1.752197695143572487e-01
1.240879805464143865e-01
1.032471133275473657e-01
8.797448836322502297e-02
1.083954472270518832e-01
1.082531504508388309e-01
7.867260474011390781e-02
6.505399509565326643e-02
1.416789137177386082e-01
1.037334345864436153e-01
1.401410571517049397e-01
1.282124727126031649e-01
1.981474442042122364e-01
1.373468066382272923e-01
1.860155284288234623e-01
2.889700325229204725e-01
3.379923826158255928e-01
3.335085204907335954e-01
5.104088182371970817e-01
5.975017579802553991e-01
6.276774567102167968e-01
7.244401571428995545e-01
7.431758768494768352e-01
8.773277724513111053e-01
1.008694387325418385e+00
9.982676970566666252e-01
1.068391262159201327e+00
1.084889363899659065e+00
1.086353690511526748e+00
1.086445918570057456e+00
1.115000621052759877e+00
1.068569272895154132e+00
9.928334518493366900e-01
9.748387814301798793e-01
8.684503693073879482e-01
6.764888064547419644e-01
6.530380529164878656e-01
5.552826363513118091e-01
4.792916242410341088e-01
4.322810151794989064e-01
3.667797197101312912e-01
3.397274484092909774e-01
2.154042839824953370e-01
1.926955453862629342e-01
1.401553644923521358e-01
1.243021607357330527e-01
1.535061927959605610e-01
1.019122368123964173e-01
9.976698369221169427e-02
8.199147808958254929e-03
6.798845208949332031e-02
4.566352635432074231e-02
6.616077615263277201e-02
9.235959971840820848e-02
3.898261399005741729e-02
9.177115625756210315e-02
5.192968449760419075e-02
8.891290095964246576e-02
9.091347067729660392e-02
1.287991929784828016e-01
9.056358035724172695e-02
8.378033382704937193e-02
8.764750846087449032e-02
1.525712315164508559e-01
8.300222311273107445e-02
1.120184501615465594e-01
1.292668983113878234e-01
1.148620147583044176e-01
1.147710042701400174e-01
1.885735446085853584e-01
1.667966285627242584e-01
1.389394054382906973e-01
1.339043733686822724e-01
1.819012203286674845e-01
1.025138745298462689e-01
1.706981482956325402e-01
2.281464838569007281e-01
2.107430008670222732e-01
2.403139774052982514e-01
2.223600149219060185e-01
1.692748118070486751e-01
1.910062757500501918e-01
2.515319286886296690e-01
2.435069480269996534e-01
2.550608339568672389e-01
2.510946595604230946e-01
2.510433970209706156e-01
1.695644779580364747e-01
2.757152423583493772e-01
2.068630847898611236e-01
2.165898569254953721e-01
2.297250653797576758e-01
2.028200723863818611e-01
2.757329672327935022e-01
2.364707164183895982e-01
2.506683206565346600e-01
2.166621162278042079e-01
1.967868962577851433e-01
1.783041625010819697e-01
2.152365511869303305e-01
1.851999120681999400e-01
1.851755225623412660e-01
2.385591868913736202e-01
1.997847608753739734e-01
1.843079030223773451e-01
2.198445066639521384e-01
1.889279264845077078e-01
1.896691094299904901e-01
1.543699487042219931e-01
1.340262935606986172e-01
1.847578734247668220e-01
1.771942366641111877e-01
1.400967308012777135e-01
1.509527416349754625e-01
1.436216918010764787e-01
1.052692724212913739e-01
8.526891027738811579e-02
9.707006778773208389e-02
1.073379729785800818e-01
1.034350009260869979e-01
4.130496298960997792e-02
7.926916938355099695e-02
7.477713566367967524e-02
3.962702026356390572e-02
8.873205635032431482e-02
4.864057100053824356e-02
1.245020789908087150e-01
5.673095322277112162e-02
3.222611508598606511e-02
4.420960381589279786e-02
2.260456763905435706e-02
2.163280542525809064e-02
3.141586442014664138e-02
1.713039799868573340e-02
1.459211714295989906e-02
-7.683476646825712630e-03
1.542615840145936112e-03
6.127805932925715904e-03
-7.416734678452545360e-03
1.338468566287255232e-02
4.734895467246879458e-03
3.080151092767480225e-02
3.108244786938149651e-03
-1.946928956589534521e-02
2.371592718273827713e-02
-2.474743282376114933e-02
-2.803089739494377813e-02
8.397055923189296334e-04
-2.528400898431953231e-02
-4.822676855170347082e-02
-3.789617534272175098e-02
4.547275363381158425e-03
-8.334250235859932965e-02
-7.383242411268357841e-03
-1.365679615612346541e-02
-1.412785879474813197e-02
-8.368212184442065660e-03
1.096716596637774266e-02
-3.337328894545787961e-02
-2.300779731054832661e-02
-1.479848943221092998e-02
-2.880644589530001812e-02
-2.639356212046207323e-02
3.113271210017237722e-02
-4.178181576814767734e-02
-3.803571530087944408e-03
-8.410880603552996215e-02
-5.717234805757903660e-02
-9.164733545962575056e-02
-4.881967717037923732e-02
-3.630778132306652917e-03
-5.583434787609059535e-02
-3.971976511768072343e-02
-6.792843091585272497e-02
2.338028925868251492e-02
3.188505656227251517e-02
-4.427280769198362748e-02
-3.579991678770221009e-02
6.910138644268852548e-02
-2.532424448213007814e-02
8.807292483269620054e-03
6.105826803700489802e-03
-6.721094625655597149e-03
-7.130648842057780989e-03
-2.632188783992875716e-02
2.944796788075280253e-02
-6.381589121629348965e-03
5.505062036416180637e-03
7.440188446654373566e-03
-9.593919707027609434e-03
1.693174814237392162e-02
1.416334389547186517e-02
3.259525944142583481e-02
3.695914665798114701e-02
2.600514426868608120e-03
1.249397689355734309e-02
2.806289356756978132e-02
5.969939840827111210e-02
9.723426345675761917e-02
7.049910681665713663e-02
5.705796851986576212e-02
3.752472550856963268e-02
9.984506185595459771e-02
2.971859198587362139e-02
6.585010485387082779e-02
1.053531097840199882e-01
4.436585420750350367e-02
7.900591878287915870e-02
1.572040957031814179e-01
4.143776815065217806e-02
1.099212400802898060e-01
1.272332879229696734e-01
1.217612592392481735e-01
1.080083879728181984e-01
1.188268286506926064e-01
1.146086339139758825e-01
1.537245961042439379e-01
1.020145162313794707e-01
4.435283369237440210e-02
1.384565272399899127e-01
9.584678456899788090e-02
1.112663495338951924e-01
6.263243719799191367e-02
6.975702480690039453e-02
9.109626480354993117e-02
9.358509291351660431e-02
7.948858434903627312e-02
8.391792100580938718e-02
7.591239787824054230e-02
5.549547917401431718e-02
7.761784877709246300e-02
9.261846198576823008e-02
8.952849530356762897e-02
1.072773067688745224e-01
1.110953292422733468e-01
1.360202077351705674e-01
1.582326328578397279e-01
2.431739166497454974e-01
3.130900360468873989e-01
4.250077401637922803e-01
4.488942121688431763e-01
5.665148622892358654e-01
6.776390951578290522e-01
6.778385770124704113e-01
8.309975326185295996e-01
8.440488069128637694e-01
9.151812670861896315e-01
1.011888828748739755e+00
1.030824928986464162e+00
1.052128614390366090e+00
1.040441803813479060e+00
1.042185560609707240e+00
9.985058278077658667e-01
9.519929691969024610e-01
9.162876955408107982e-01
8.789296866589192403e-01
7.219122600231515641e-01
6.435639254772086426e-01
6.171020673384010058e-01
4.969408410861679837e-01
4.112174807842320923e-01
3.899017240688743002e-01
2.425666649825976295e-01
2.118160687064419845e-01
1.580256609042755278e-01
1.290588240232253825e-01
8.581693367528903105e-02
2.760088648221765972e-02
5.542105146659664222e-02
5.582600560297940051e-03
4.921919272460273387e-03
4.806312016621066413e-02
4.722602714436827109e-02
-1.004847825749810575e-02
1.435428530945268011e-02
-1.022910671270212124e-02
2.867116153546574175e-03
1.788768470534259775e-02
5.420225789264322691e-02
4.500816783306049729e-02
4.348620868099814518e-02
4.581353583194359980e-02
3.026949351739706418e-02
4.708378663713429918e-02
4.594248441363740082e-02
1.128495204798746210e-01
5.891549168952395915e-02
9.690306784818314423e-02
1.288714926658731108e-01
1.199892095515604218e-01
1.147571485600175495e-01
1.003989532744958557e-01
1.324734473481760377e-01
7.231553821554327632e-02
1.525179979615435277e-01
1.747025942876977156e-01
1.751048738665398063e-01
1.537669885586432361e-01
1.739666392469807754e-01
1.287087613295620769e-01
1.762308860681160994e-01
2.253051697682398324e-01
1.944984891941206051e-01
1.815607420383441029e-01
2.090064843903077785e-01
1.894329926010905885e-01
1.028203466752939110e-01
1.881484218799398256e-01
1.467686007087221078e-01
1.855483422647440372e-01
2.210080635918795222e-01
2.191476744901117435e-01
2.317254638199835459e-01
2.295237645310520824e-01
2.310599568700163475e-01
1.420813316954033789e-01
2.305061159857164643e-01
2.030561939242588876e-01
2.191258802848916887e-01
1.675812222440011268e-01
1.825328144960903509e-01
1.349289494168134651e-01
2.031136642304356144e-01
1.940159724648020390e-01
1.904856503558640390e-01
1.595687037703309441e-01
1.677124409900265511e-01
1.894248409382512932e-01
1.320395158204991093e-01
2.052368384797677026e-01
1.400546085181610945e-01
8.477348360069175692e-02
9.859757224692347610e-02
1.038429153224483259e-01
1.042668725412403130e-01
7.527503643660253541e-02
7.038896326552285254e-02
1.204349511934700023e-01
6.152468853901831708e-02
5.722362371965888928e-02
9.647795555823387992e-02
5.896962864672365690e-02
3.534229142118194139e-02
2.901580910937610891e-03
4.452718284645053315e-02
4.380500973649568974e-02
4.595758692457172639e-02
-2.342807900847568292e-02
1.698383628290019848e-02
2.582778733147121641e-02
-5.668458830727710063e-04
3.046281150029798296e-02
5.091623493593643024e-02
-3.238318927464635399e-02
-1.206402773146019597e-02
-6.424390108651331643e-02
-4.492517852980166398e-02
-1.137211382383653407e-01
-7.538643381397404364e-03
-5.559941969991440136e-03
-4.064072432077867059e-02
-5.864934415184208660e-03
-2.625757573089301453e-02
-5.277581726301132370e-02
-7.854505143338462447e-02
1.121828963184849648e-03
-3.055693018011444370e-02
-4.908877789735310859e-02
-4.821380607174358818e-02
-7.680054338414232795e-02
-4.416733104226142070e-02
-5.715309638731287667e-02
-6.903985825024508416e-04
-3.681458731149733765e-02
-3.806496069876118965e-02
-2.842832454521171739e-02
-7.483910622805330093e-02
1.993139511824251753e-02
-3.587075079055587756e-02
-5.527027542526137538e-02
-4.332163299896500674e-02
-4.566766849628699221e-02
-5.202020717703952080e-02
-5.128722265022824661e-02
-5.076152214705501736e-02
3.335834498831187489e-03
-4.500819379136748732e-02
-8.434554597586399471e-02
-5.628828270428844899e-02
-5.036459614235502813e-02
-2.058001802018268045e-02
-7.621757311091595377e-02
-2.665526653379627839e-02
-2.224945282406115901e-02
1.276640049216216238e-02
-5.889324741254968465e-02
-2.571621969933900187e-03
-4.143677950833713625e-02
-3.723329022922984566e-02
-3.952283133343080512e-02
-9.894266652030192510e-06
2.025841432648632645e-02
-1.171564546103624066e-02
-8.246449387108203966e-02
-5.730846086873744166e-02
-1.119678211174894578e-02
-1.943325697124149293e-02
-3.310457039937726720e-02
-2.839538787996526842e-02
-3.585380542092869716e-02
1.411445857705011936e-02
5.015531901366249157e-03
5.122309856819540902e-02
5.523905099820564102e-03
-2.748057248085989529e-02
5.961901389735316248e-02
1.843516665520349845e-02
2.388322709749912676e-02
1.565192673584619304e-02
3.536932788457324700e-02
5.125205982508096447e-02
4.242311073978252689e-02
-1.507200924432104683e-02
9.117385469632185990e-02
8.334318636511271750e-02
1.104737970714628342e-01
5.346404737724400058e-02
5.542940841599843654e-02
1.125895751892460606e-01
1.139404861484207832e-01
1.416134853334395927e-01
1.054984763127187197e-01
1.321898289793883574e-01
1.263590173475597489e-01
9.555808982308006128e-02
1.589730563501488836e-01
6.223125063727604628e-02
6.118821178957133816e-02
1.233940049838777864e-01
8.936821413341025644e-02
5.954143065844236249e-02
1.141622359386924024e-01
9.406709506919938568e-02
1.147028141874103235e-01
8.141206651230054048e-02
4.053125190719880644e-02
9.109356549139227543e-02
8.795817338345651715e-02
2.093388546564805414e-02
5.200489599741126012e-02
2.295711234967962033e-02
3.315369104416419216e-02
9.992419781753783536e-02
6.353714054398963695e-02
1.064695990711265750e-01
1.236790195438940143e-01
1.422919251565006038e-01
2.247049084028061583e-01
2.206250114782336846e-01
3.230672350888997291e-01
3.732458249015970231e-01
4.409162358354867806e-01
4.832374442813720528e-01
6.029547821751291004e-01
6.725805881329388614e-01
7.647432816779320408e-01
8.320461362108275694e-01
9.406140336294974702e-01
9.842335996284923283e-01
1.011993692771253173e+00
1.093254857368113120e+00
1.006505860765328775e+00
1.075184562691081647e+00
1.029759649180046477e+00
9.684590675350346345e-01
9.226390523343195316e-01
7.896678917113086893e-01
7.475796633668425617e-01
6.862517357819251096e-01
6.098017192478613069e-01
5.313550011898393599e-01
3.938696417239020975e-01
3.698723498767482187e-01
2.146172212752805175e-01
2.400698172609773973e-01
1.964545938791175672e-01
1.180357648032857032e-01
1.319856919488763825e-01
1.337622744002328612e-01
5.405205884839840713e-02
1.267337323796570991e-01
5.558235462945099875e-02
5.766630506762793207e-02
9.964420652151707858e-02
-1.965024534113594956e-02
2.846386274066871336e-02
2.076278485403662555e-02
8.252525451494288622e-02
-2.172042864475563079e-02
2.705613554677145649e-02
4.087877177285663410e-02
5.982135871016821399e-02
4.385674544888747139e-02
6.648551087384277358e-02
7.392015798020419581e-02
1.387789303571599908e-01
1.486767931446660307e-01
8.886531417789089726e-02
1.289439036424320784e-01
1.234750158128767872e-01
1.484365502689147243e-01
1.381967408111906825e-01
1.516800818428898079e-01
8.254154262229923544e-02
1.585951525132480167e-01
1.405395282838390603e-01
1.446048453340740558e-01
1.420808002204066445e-01
1.711813910381138060e-01
1.881741145317964714e-01
1.382440615245955073e-01
2.210678499541537945e-01
1.600233620086683184e-01
1.923255280202132989e-01
2.026934355398187781e-01
2.056986280431030711e-01
2.355846207537631021e-01
2.025742710015798198e-01
2.028587916829317495e-01
2.627194709833875486e-01
2.046022889949626056e-01
1.871110003072937178e-01
2.261556016664863777e-01
2.282277479183545399e-01
1.983015771243070158e-01
2.176176558326381738e-01
2.469217368954097491e-01
2.159757778392776828e-01
1.764651507973927780e-01
1.963882486327773735e-01
2.263966029255694290e-01
2.425258623886805132e-01
1.699246995266154303e-01
2.063347141171114896e-01
2.131165586454759064e-01
1.436927502129046186e-01
2.065058464988547282e-01
1.401989643144888054e-01
1.683854251475156161e-01
1.371901285956775851e-01
2.066522826376704369e-01
1.557755419566632382e-01
1.662698199218838602e-01
1.640026650793216245e-01
9.252335441240261416e-02
1.546616913243828995e-01
1.380463582902184128e-01
8.293048885705030238e-02
7.699280956483979532e-02
1.414620700481739324e-01
8.664329383893747127e-02
1.145485043142033532e-01
7.195239026829808315e-02
8.594468227257853754e-02
8.961718807641894102e-02
8.152690996072559093e-02
4.256286834658906670e-02
5.707458238000774620e-02
4.694200311844665130e-02
4.895773721375873411e-02
2.573510207313132320e-02
4.863981397708157239e-02
-7.305471170818807897e-03
2.091499231341857265e-02
1.239449064117204707e-03
-1.885148722233356486e-02
-1.823301451148780575e-02
3.680663998112314317e-02
-1.479816817692162362e-02
-1.983330029618958837e-02
7.036977304812414707e-03
1.247952724902532534e-02
-1.862074118715923571e-02
-3.374762003742140526e-02
-3.117404572105249988e-02
2.201499958065813653e-02
1.203120478990204675e-02
-1.447789401970777171e-02
5.107862336419549676e-03
-3.851702764898776166e-02
-3.196628675819605803e-02
-2.658128603456767769e-02
-4.413046170079679142e-02
-1.239812874155235556e-02
1.304336377315571879e-02
-9.294846761217723241e-03
-4.725285342717799181e-02
3.936510162426710979e-02
-1.089464877721257538e-02
-3.653736434048239501e-03
-3.709831389304375782e-02
-4.737153254972856220e-02
-3.830321271531436644e-02
1.394472706235608955e-03
1.065716742308495113e-02
-5.387742671741217737e-02
-4.770137043687006084e-02
-2.992131102246924079e-02
-4.495497121512924410e-02
2.308720564619188426e-02
-2.505098484517284674e-02
-4.683346120549380931e-02
-2.194272627586606877e-02
-1.252658223527438122e-02
1.847608363877144277e-02
-5.147584437783481875e-02
-2.338601289528691174e-02
-7.274996686906958984e-03
2.513222264374096945e-02
1.630135953535482088e-02
-4.495628780223522719e-03
-5.946620188950786992e-03
3.532622731502730803e-03
-3.495212917558032303e-03
-2.981212604311086686e-02
-1.164533312199759682e-02
-2.234749989143550164e-02
-8.285336397108026066e-03
-1.594700097253464247e-02
2.246849270598821544e-03
-3.184321321448555647e-03
6.829754764495277186e-02
1.880824275230433967e-02
9.585427163418473728e-03
7.064611481319074682e-02
6.030916996876735381e-02
-9.435480710888075398e-03
4.965697462563400943e-02
7.594539412628995012e-02
5.460259312778811824e-03
7.995641243390519404e-02
9.539709816414146393e-02
6.344930140361372539e-02
4.652534951880117620e-02
1.390560329860010269e-01
1.109037820432274557e-01
9.506560999819121949e-02
1.521052087148157816e-01
2.058284514736082593e-01
1.247209164171059481e-01
1.267145334320376182e-01
1.573246906195460704e-01
1.717236700354874690e-01
1.114906754392856886e-01
1.127143715631599430e-01
1.546922574620946678e-01
1.211747648003846101e-01
1.688746533752611689e-01
1.378911265255190477e-01
1.842062653495406266e-01
1.318988500225210525e-01
9.812334871882608112e-02
1.509924112352387937e-01
1.099084806411804172e-01
1.272336365347792320e-01
1.046311917660570495e-01
9.750014100116048688e-02
8.234291787583843114e-02
1.077871597550882909e-01
9.837879495372103822e-02
1.084279787272319356e-01
1.128499587015522193e-01
8.166859888990145311e-02
1.135748261911014162e-01
1.231826086451305036e-01
1.356255926184875282e-01
2.413471090373626726e-01
2.335790477941661059e-01
2.376434131443582731e-01
2.822859776635084361e-01
2.962999783175643831e-01
3.900267680004151361e-01
4.975140917313707334e-01
5.065226215677455235e-01
5.807853896821572048e-01
6.668690096019477265e-01
7.947547379500924380e-01
9.032705964582926628e-01
9.855908049929631431e-01
9.446029739299731665e-01
1.068763943234256164e+00
1.076958915712039833e+00
1.122916314996409204e+00
1.067664738637635446e+00
1.121773460820579160e+00
1.112615719804576742e+00
9.844906675586473366e-01
9.118785537706136646e-01
8.311667226697362354e-01
7.953623706136936367e-01
6.218118643728024475e-01
6.386896335778439182e-01
4.696478254684034459e-01
4.083830042848220487e-01
3.566729214336699094e-01
2.909298919214900470e-01
1.722443443342019931e-01
2.036734947194933643e-01
1.777366004280124256e-01
1.797769749097905267e-01
1.953999838300315428e-01
7.402599247062312260e-02
1.183423919004804592e-01
6.133393656920121950e-02
4.948462135451856675e-02
1.115520487601502492e-01
5.172867078222260356e-02
9.251386305262515597e-02
8.276100791768586928e-02
1.245610193418392742e-01
8.462319024122832989e-02
1.017597969688849580e-01
8.737400642510040338e-02
8.848126819091452211e-02
7.441246832052919591e-02
1.430985142152604306e-01
1.430054134847748848e-01
1.695046980624047572e-01
1.298239020945906042e-01
1.553757785133859926e-01
1.671060158767835868e-01
1.877462020205903637e-01
1.586311649894690534e-01
1.629413453528663069e-01
2.076467629524615943e-01
1.517286841827624744e-01
1.658920130616912958e-01
1.390773986098778336e-01
2.129616301128525457e-01
1.665653982040623260e-01
2.224468410704154853e-01
1.984617813727324598e-01
2.372341162201278275e-01
2.403284445973660477e-01
2.319853808412587481e-01
1.992839030453607274e-01
2.407675189694918061e-01
2.680619786213013223e-01
2.566115956889618022e-01
2.458942954479097776e-01
2.235630734122133478e-01
2.638301743885846928e-01
2.559510201140946517e-01
2.509837677383726096e-01
2.626494282394847835e-01
2.800125952801650331e-01
3.022759487288468327e-01
2.606898329599419695e-01
2.478822048072698014e-01
2.514842022867594951e-01
2.609138279908427838e-01
2.535841764175701396e-01
2.493828316324258332e-01
2.494281066286364035e-01
2.229192699906186736e-01
2.135466219005453803e-01
2.488408140363981558e-01
2.355709052590244101e-01
2.055860487109035795e-01
2.090780080490800552e-01
2.407656991195633589e-01
2.553064280631278105e-01
2.318271226736142443e-01
1.811359769198309932e-01
1.682619091356991892e-01
1.486130744712020335e-01
1.819427263690572838e-01
1.519036965887404222e-01
1.922109246496348234e-01
1.252313981822264499e-01
1.982926499932561593e-01
1.103756815413347858e-01
1.504744441929665721e-01
1.779546810537323553e-01
1.163853602209918431e-01
1.220831771836423385e-01
1.451962150122786954e-01
1.448957437995731512e-01
5.480133397669254697e-02
1.764517943708107661e-01
7.782460205872127057e-02
1.187309760833290401e-01
1.070532894315023853e-01
1.266472526353570605e-01
1.468711573526481906e-01
1.262203969379666890e-01
9.413623523761052714e-02
6.860722692487906949e-02
7.197703897278309726e-02
4.653006169773807321e-02
9.911073523010353881e-02
3.701851185863545834e-02
4.830824088521652737e-03
5.435668700129436814e-02
8.344766739983160153e-02
5.267990898362018282e-02
1.156900039523245660e-01
9.975846698806956764e-03
2.771964077248512126e-02
1.307492932861182428e-02
6.159733474172095907e-02
4.655410180629615535e-02
-2.217801172849423463e-02
4.915550184469844042e-02
2.367577843944001365e-02
2.497227267154652000e-02
2.629908335840126787e-03
1.646655016433723820e-02
5.268907040390682223e-02
6.291955246762082066e-02
9.744000252596994593e-03
2.637236857553203195e-02
3.891075068202855952e-02
4.025778008735239610e-02
2.757928026273841898e-02
4.063856857745111462e-02
3.264723174862975419e-03
5.651025860779036042e-02
7.554595401585217918e-02
-2.239397670952339436e-02
8.485433849030710879e-03
2.608706729070594393e-02
6.976053008452010040e-02
2.744878612050241293e-02
4.178824182285197780e-02
3.934496210432628788e-02
2.142390125429080236e-02
-1.150638587131690149e-02
3.789978620430462658e-02
2.051744691351017544e-02
1.110393684581271467e-01
-1.430036669600258381e-02
4.216553278224949297e-02
9.754078038682334473e-02
7.104160606399098632e-02
4.831951574642101566e-02
2.675347190398993588e-02
5.342556060883957292e-02
7.848857586554325305e-02
7.802450832858379148e-02
5.786061058115399974e-02
1.073429368065959566e-01
9.388206425227046958e-02
9.370045757449652069e-02
1.308938424092065400e-01
5.888489917164618087e-02
1.083666882422489458e-01
7.423598503106712543e-02
9.378806055347957416e-02
1.123328546166800640e-01
8.409046789039961722e-02
1.245423812471111724e-01
1.716789667342733527e-01
1.361186534414410287e-01
1.273758196427075828e-01
1.623707231235302639e-01
1.328192040473997748e-01
1.439813718701870027e-01
2.326812491281985418e-01
2.187587187345416406e-01
1.997735408397776080e-01
1.731675574344060942e-01
2.221776192289182106e-01
1.777606281954760559e-01
2.240650615257325229e-01
2.298211353810635516e-01
1.787315714523786125e-01
1.700104273084148410e-01
2.071169068703687943e-01
1.909389352581890575e-01
1.648845705290218067e-01
2.146102859054702106e-01
1.606808708100629368e-01
1.739552595917423228e-01
1.842841713136229020e-01
1.542545907833309804e-01
2.006585109258048893e-01
1.872397488650673070e-01
1.831992158123487702e-01
2.295159159487787093e-01
1.254569245827434898e-01
2.346211970928039625e-01
1.117655767481945395e-01
1.230274962938634198e-01
1.389911099184260035e-01
1.334944218388675607e-01
1.598525631903051636e-01
2.063776922278849069e-01
2.214728807644859854e-01
2.244189122254146573e-01
3.067123001493557988e-01
3.360823435490971622e-01
3.542400198285121649e-01
4.785382628440494335e-01
4.947874544731730717e-01
6.001008901308695354e-01
6.979318308282218553e-01
6.932045400628724652e-01
8.565577383797190469e-01
9.280582098665387525e-01
1.029746554530159175e+00
1.072820737408325620e+00
1.148719839246180596e+00
1.163460858211897930e+00
1.162081636413822450e+00
1.147501867425522626e+00
1.087471582934018688e+00
1.060793481673516503e+00
1.013952106605347847e+00
9.453859031640419186e-01
8.056312624568937597e-01
7.740409402530310512e-01
6.627234064711363670e-01
5.894141953497974429e-01
5.032050159900078867e-01
4.365408444068198945e-01
3.754227969215633842e-01
3.133408031559303253e-01
2.337058936223565808e-01
2.139810964655680103e-01
2.072806254388285252e-01
1.531423168339073326e-01
1.433137078922141205e-01
1.608025976019585024e-01
1.454601118326816767e-01
1.563785053036268746e-01
1.077279369260749908e-01
1.638122339535579841e-01
1.045030002180535739e-01
9.996533923665842924e-02
1.242513717871645273e-01
1.330861238994316686e-01
8.893252571125553896e-02
1.626357765555977997e-01
1.430123994676921195e-01
1.236779523975413686e-01
1.373542485184431339e-01
1.861205214790886409e-01
1.669879369124562252e-01
1.633995107328654051e-01
1.765699140590373251e-01
1.581578158666025469e-01
1.932002888886414360e-01
2.167739569597685323e-01
2.046496880384636452e-01
2.021406262362918649e-01
2.053642784686381118e-01
1.487581779011814265e-01
2.153219907470206584e-01
2.384834353894988435e-01
2.106736043815605475e-01
2.597494384591551020e-01
2.753417190907383461e-01
3.121304159348132767e-01
2.355504176358621526e-01
2.674034413887903527e-01
2.484339470195389143e-01
2.976987365462268054e-01
3.087340042140355179e-01
2.456149602510622754e-01
2.270613175035222919e-01
3.110768233386324022e-01
3.425099138064778836e-01
2.411284328625806772e-01
3.060360682183910774e-01
2.538912123831095213e-01
3.250254266273919779e-01
2.879519673856197892e-01
3.190413367688085255e-01
3.145646093391987197e-01
2.889371064208537954e-01
3.080475219118670172e-01
2.840064027747266073e-01
3.295707628724985350e-01
2.900852512732287058e-01
2.737491905936431658e-01
2.402124392934754660e-01
2.657144527474373796e-01
2.615316607660719828e-01
2.576743576043160067e-01
2.592561219480409296e-01
2.512066877021326694e-01
2.227464725776585608e-01
2.346232263203620882e-01
1.983148464050206450e-01
2.197260260349376548e-01
2.396824131385540957e-01
2.323154559506460937e-01
2.440880505605685369e-01
1.986334976206747260e-01
1.522388535980109814e-01
1.842047010140103469e-01
2.188212603582513349e-01
2.115688255561541109e-01
1.359510176547827909e-01
8.006206678655350406e-02
1.554056208099088843e-01
1.295869083667637589e-01
1.382078293826618509e-01
1.210905328344713122e-01
1.298909349212440667e-01
1.287102344503905926e-01
1.351322338869467565e-01
1.645416070219429816e-01
1.245690884474053572e-01
7.918033789888161145e-02
7.520383830451238261e-02
1.139880599368357228e-01
5.113495881727639358e-02
4.123170710116672716e-02
1.147695151083770598e-01
7.518846794211163365e-02
4.177133033966792114e-02
1.044397936814633332e-01
1.554584919882071731e-02
4.325180212533318719e-02
5.982707588371761337e-02
5.615897447895797090e-02
6.950132769291285373e-02
4.126326881777256372e-02
4.443483904661647138e-02
1.001483234713872461e-01
3.976642450549928293e-02
1.087943673783114545e-01
7.042132198977318902e-02
3.125236420958900363e-02
1.007812227278848116e-02
8.036421268130775064e-02
-1.176181155950527940e-02
3.384961242760221867e-02
1.030644038136543233e-02
3.245793200959862235e-02
7.453440985934969842e-02
8.743653654270729103e-02
4.335432753638191611e-02
7.522023985569620264e-02
9.464527325289112669e-02
3.013138625266051709e-02
1.001549239068165453e-01
7.501636495628256907e-02
4.131304323036695536e-02
5.486997030523200342e-02
4.259114759016383034e-02
1.251101888795996819e-02
1.545950239040960045e-02
3.127935074018479977e-02
2.397417404536082014e-02
8.982224376796604792e-02
7.201848201262878169e-02
9.081986682412709899e-02
5.524747325773872453e-02
4.649505840854166461e-02
8.694002859472256539e-02
9.723352449838056077e-02
8.462509377984137049e-02
9.307287292930718769e-02
8.741441173070091386e-02
-9.850673446933362609e-03
1.139814011927105103e-01
3.752272673351525478e-02
4.886029948534602318e-02
8.018179713976912593e-03
3.109134588946899785e-02
7.151274315902661494e-02
8.089180428524361810e-02
1.294911026880051219e-01
8.570480657578480321e-02
9.493233609707524279e-02
1.483983962658259603e-01
1.319224053275543929e-01
1.188306866379151838e-01
1.323737974767733305e-01
1.019798730649482121e-01
9.815238286598755579e-02
1.753397144373322891e-01
1.744141011562039822e-01
1.276974636186849754e-01
1.691698472340099069e-01
1.902342302894917681e-01
1.876980344194943973e-01
1.733071690390285968e-01
1.750352010619953547e-01
1.734927192491054759e-01
1.476727726134336172e-01
1.915955220681316573e-01
1.838741167896025541e-01
2.279553726722189089e-01
1.956986078607441115e-01
2.078142056174420993e-01
1.798248954358328544e-01
1.487301537077414526e-01
1.916795164036251831e-01
1.943088179173426411e-01
2.054838571485939624e-01
1.571933041725446789e-01
1.672695764281073028e-01
2.077386075510270491e-01
1.411442205325787180e-01
1.998821427980097820e-01
1.345004186311626326e-01
1.495105113930422225e-01
2.079609291257084880e-01
1.533587853545298196e-01
1.874043493628181345e-01
1.410644609933094928e-01
1.371500662612836763e-01
1.683712665644812589e-01
1.637022882750980013e-01
1.859597886723985405e-01
2.328431527620170305e-01
1.864847951100921941e-01
3.029644650856324062e-01
3.033620621408466000e-01
3.552230666990476293e-01
4.669866974290466377e-01
4.629841760652485538e-01
5.222705053933847097e-01
6.439312337805505049e-01
7.421608295109521913e-01
8.562922549257268034e-01
8.911769939903241289e-01
9.662436855348431886e-01
1.068392220703860751e+00
1.150320179765912831e+00
1.045446670108197029e+00
1.149508196026027385e+00
1.073004927524326524e+00
1.115033233364089327e+00
1.090449202157337094e+00
1.005937712876014967e+00
9.698662469151927423e-01
8.603144765666749239e-01
7.643318017501060657e-01
7.384553394890632783e-01
5.935202555534287994e-01
5.361995661534517676e-01
4.545670364776565608e-01
3.991002070254672240e-01
3.504681253619939540e-01
2.855562431457577266e-01
2.163451418010786664e-01
1.663421528248495707e-01
1.336919483274041642e-01
1.932138679464696918e-01
6.790397514166565673e-02
1.011332031406903531e-01
8.598142162494369634e-02
1.258058670517242239e-01
1.029019402682722906e-01
9.784471328488246467e-02
1.274405129084372756e-01
4.293156948096690101e-02
1.537631340525112411e-01
1.102455128284451635e-01
1.063653098045587164e-01
1.225004257615105452e-01
1.693512699704657620e-01
7.361202929868607137e-02
1.826668243178815598e-01
1.280532018781345149e-01
1.494755339639662894e-01
1.013930719212752379e-01
1.476119621451125463e-01
1.756786680291426150e-01
1.113320703091257163e-01
1.680479914287077436e-01
2.225067533502282924e-01
1.924583315382797921e-01
2.094502188480702465e-01
2.100055207171208638e-01
1.897759947698102190e-01
2.151368081281467837e-01
2.784186491233397454e-01
2.636056583283743482e-01
2.460731217905751667e-01
2.204869839490317396e-01
2.370509454170286190e-01
2.208598752043082758e-01
2.993467662161217735e-01
2.357338486900911190e-01
2.088664110901841675e-01
2.714723320696889042e-01
2.329418959883493290e-01
2.078391588351191088e-01
2.383768012945812198e-01
2.474041440309433515e-01
2.485977041754130479e-01
2.404581697054812839e-01
2.594280562159876902e-01
3.128723816412136705e-01
3.374893768147316231e-01
2.270574326069748072e-01
2.640452863572188558e-01
2.327125431634777808e-01
2.881472959966545067e-01
2.412981886731727921e-01
2.656576735576746673e-01
2.932514751486644533e-01
2.719561778978626942e-01
2.193672345272517366e-01
2.727853795446560925e-01
1.729190793441140461e-01
2.295577498048514131e-01
2.059299310579602582e-01
1.927411224125461786e-01
2.094698254542478044e-01
2.245956379903669142e-01
2.079014178029758297e-01
1.824356068868784042e-01
1.921644706002551550e-01
1.475815904739664619e-01
1.130421422460854003e-01
1.565639497618120657e-01
1.725859328945328064e-01
1.669886410133424870e-01
1.372558693160089438e-01
1.282828763737265676e-01
8.692560316508715634e-02
1.299930557167775780e-01
1.136807869496821444e-01
1.022511569069272097e-01
1.171920865035117748e-01
5.504745343767930565e-02
9.986636412270474827e-02
7.772615166498142436e-02
9.552936116129696897e-02
9.181565298687061061e-02
5.015821761374373439e-02
6.987337470900420455e-02
8.900270546617781997e-02
3.194515325867085948e-02
4.652304637921632346e-02
2.335903620399977856e-02
4.474020875863780194e-02
-3.606951690763387369e-02
4.192630824885063695e-02
1.278913644081611060e-02
4.824375715553952393e-02
1.684622925157394646e-02
5.786221707725403701e-03
3.303247148835934677e-02
3.596872301758979873e-02
-8.997966325638297180e-03
1.410929806989851681e-03
3.298370396300652485e-02
3.252044598093176142e-02
3.834449500567774921e-02
3.648790413751140660e-02
-6.959400319482592426e-03
1.468578124725793306e-02
4.478859070636000139e-02
2.583589539931740661e-02
-3.930166945628563169e-02
1.591942673914569645e-02
-4.993302163621328449e-02
1.087190768445454696e-02
7.421037546998696458e-03
-9.835311852779565073e-03
-2.646783526777336110e-02
7.193097639647717811e-02
2.541258230234255330e-02
5.659484294942758453e-02
-1.293578693607319585e-02
5.874377520043685963e-02
-5.436352061572946592e-02
-8.272621268619387985e-03
6.360651269014630516e-02
-2.148515105181731527e-02
-1.667351197743652952e-02
7.479045497287628574e-02
3.371578489188592487e-02
2.889391185840329071e-02
3.280290379665186384e-02
-6.266750358245046226e-03
3.568576368998212928e-02
7.115054740161973201e-02
-5.872021368376480893e-02
1.348057276175250799e-02
3.871478853213004140e-02
-1.499814153146221754e-03
-2.249107718014404025e-02
2.237014918771056474e-02
2.177667484993247096e-02
1.430536929568602782e-02
5.082304910291220168e-02
6.391864879063821614e-02
4.911742570525653301e-02
3.172711381336407177e-02
3.102051157665069656e-02
5.471761240091013723e-02
1.029490353982805695e-01
3.965707878983136536e-02
7.590733127093929333e-02
1.033561857247429355e-01
1.286091665828122121e-01
1.034376606515593905e-01
6.669921166660376655e-02
1.219893004926608376e-01
1.264505003306614639e-01
1.109798833174261146e-01
1.167230608688728105e-01
9.924259992182457579e-02
1.218857019439047312e-01
1.897893692630552021e-01
1.797352671718354666e-01
7.959502633584765452e-02
1.480142908344091734e-01
1.331011155810614410e-01
1.446207190959046818e-01
1.586832092222978940e-01
1.825254836457875229e-01
1.756533426679516841e-01
1.640409761355880458e-01
1.486700379758078561e-01
1.181024153053200632e-01
1.659251449023621261e-01
1.868906541025394941e-01
1.427461263264915570e-01
1.697795083828146645e-01
1.024516518707021262e-01
1.080049433319521801e-01
9.686061824289826649e-02
1.124399770607427823e-01
1.036610728167723650e-01
9.084274238446954364e-02
5.792359631997927999e-02
1.536358101935203779e-01
1.057440943662398547e-01
1.288415881772781713e-01
1.001756923196750332e-01
1.177733145882832039e-01
1.541811319826031368e-01
2.492085511097825168e-01
2.917881474153743437e-01
2.973295475190166903e-01
3.886326177899249723e-01
4.325926367075904611e-01
5.270590546174613866e-01
5.998652210662654971e-01
6.637730005162276736e-01
7.172950556480446327e-01
8.037805959587762672e-01
8.804796826312923930e-01
9.882434989826949234e-01
1.055870397953581064e+00
1.024573432825128139e+00
1.117328355345491797e+00
1.117208506316548000e+00
1.065033133613475735e+00
1.013515790370122849e+00
1.007678096425336900e+00
9.434645983837948169e-01
8.843458240474482146e-01
7.747895765708822102e-01
6.771165784911549190e-01
6.095787957335849772e-01
5.095831827204170272e-01
3.775563683864769926e-01
3.683697029630066400e-01
3.350338406254388390e-01
2.491361972690102622e-01
1.672467602066747827e-01
1.645051419572272633e-01
9.575536207024104574e-02
9.082002731077840063e-02
1.076850282205698145e-01
7.935080765480634346e-02
8.957576689775423318e-02
6.978032289239134711e-02
-7.483612251477853028e-04
7.850758371497568167e-02
7.214587629904777033e-02
4.161251134381393352e-02
2.233385800534108678e-02
6.559181371647893055e-02
4.081956755532280268e-02
7.935947574474196131e-02
5.159720068627325629e-02
1.178762138319670583e-01
9.219069671142798850e-02
1.018063672725729729e-01
9.881614588744984384e-02
5.640563351891473426e-02
8.275716002547518768e-02
1.558125128686811411e-01
9.156095350319418125e-02
1.404829395295038308e-01
1.016160291884125044e-01
1.235716982090654809e-01
1.397137088308485486e-01
1.563136490763857578e-01
2.176949639218482280e-01
1.566842871121217895e-01
2.047074462136089512e-01
1.655999792232199508e-01
1.521467635126693141e-01
2.068352854594474044e-01
1.931781893794727867e-01
2.018496825413204909e-01
2.200856495871776897e-01
2.543556241211770708e-01
2.345581183635399025e-01
2.282034011655951766e-01
2.194202446724665689e-01
2.128191562282088223e-01
2.346165070573085487e-01
1.660356304236741687e-01
2.480649011180078300e-01
2.443776776940618789e-01
2.396400841685819016e-01
2.332019414583542116e-01
2.600813026166550190e-01
2.384589727149291905e-01
2.362655013009861138e-01
2.045043564570551142e-01
2.284649808866648646e-01
2.256394699939334447e-01
2.455049271906317165e-01
1.841946086031817365e-01
2.388613962349518116e-01
1.379984934320568901e-01
2.137973931500194991e-01
1.698422479134223673e-01
2.211821234877420772e-01
2.178873832007151290e-01
1.819334072404704683e-01
1.793924812221385778e-01
1.311988720362117777e-01
1.650553709852089213e-01
8.702674076515001800e-02
9.022336826854593372e-02
1.558640221489103195e-01
1.109121023034120301e-01
8.670902749500472573e-02
6.085030967753599085e-02
9.164822376186143593e-02
1.056625010145809951e-01
9.470406008046106106e-02
9.446523801968917389e-02
3.936468480092596145e-03
3.536005724771252440e-02
4.728905524710623476e-02
2.685971734916674236e-02
5.855763481243606711e-02
2.809122323249629155e-02
3.209421068251985115e-02
-6.629267972540986431e-03
3.591869161273111150e-02
3.953022037322449084e-02
3.337438987839017046e-02
1.793868217485172778e-03
2.622873828019019193e-02
-1.475885861868461019e-02
-2.511622389965368143e-02
4.082267417746313770e-02
-3.236744141308801892e-02
-1.919870976587435135e-02
-5.925036520905251763e-02
-2.189146929789450094e-02
-3.442964335195249082e-02
-4.058502757615882472e-02
-2.682282010363717939e-02
1.323868894536878865e-02
-6.154179137262329180e-02
1.597896275143570466e-02
-7.349217831870166751e-02
-2.277036772979101550e-02
-4.447119035589581354e-02
-2.533634411744271550e-02
-3.053062186947488876e-02
-5.940588554281363287e-02
-1.668937381791134669e-02
-4.201825086020107708e-02
-7.734936689885582584e-02
-2.410378888456173735e-02
-2.739043352242754442e-02
3.972830374005431597e-02
1.643872673668911322e-02
-8.798438161029188687e-03
-4.941922997033020709e-02
-1.747382732087478588e-02
-1.308868181740008643e-02
-8.899558997717900433e-02
-4.186994909546862959e-02
-8.079873476587244585e-02
-7.055491291209997629e-02
-3.597978767917785203e-02
-9.911114262429389365e-03
1.762655088479894716e-02
-7.450859075522278663e-02
-3.429627804486709564e-02
-9.486619750454623745e-02
-1.952565084752357072e-02
-6.221495220460308839e-02
2.943767162786718738e-02
-1.259059086804669575e-02
7.149471715370170344e-03
-2.610205375308635722e-02
-2.804624596803268269e-02
3.444181760927297886e-03
2.310376060045313262e-02
-4.048910472375426284e-02
3.466804167764238331e-02
-4.769520202843578055e-02
5.041709576876349241e-02
-4.281108013229313614e-02
-9.320908854900090967e-03
-7.888349696006449752e-04
2.478258207288512593e-02
4.701647920571724176e-02
-1.642819205228988194e-02
-1.808966912121572068e-02
3.312104463514526503e-02
-1.044974274868527842e-02
2.232709848529591118e-02
3.668474662025618394e-02
1.115201985686360975e-01
8.405148921847471755e-02
7.836996145022846749e-02
8.042973836027766943e-02
1.229133123271834438e-01
4.797366383970141229e-02
9.808100228828151024e-02
4.647205629687316264e-02
9.720425134994686855e-02
9.601163150169758631e-02
1.175565040474343403e-01
1.823219224133944827e-01
1.155682723858000582e-01
7.058132713268602809e-02
1.508667629946134903e-01
6.958647714794580219e-02
8.352737816967946427e-02
1.103170789510003330e-01
1.029537058447385633e-01
9.077108052612767319e-02
1.075642234528071672e-01
9.076177314261625606e-02
1.153975466944476558e-01
3.907765688759609612e-02
3.236292710562730518e-02
3.789686985108704081e-02
9.282893210003584361e-02
7.262938184634715189e-02
2.982150783498773577e-02
5.455298112768770108e-02
4.225592527124930053e-02
9.172626047212187328e-02
1.065653365935705782e-01
6.804266452684221145e-02
9.579580893603267810e-02
4.949848752900154469e-02
1.278652101910374150e-01
8.655677912442980015e-02
1.873754494154822314e-01
2.144855902791763247e-01
2.894578962908384012e-01
3.648162018282196106e-01
4.038583179710275028e-01
5.130833843238238323e-01
5.542394439441356013e-01
6.739297996939295210e-01
7.395993004151774075e-01
8.449538317905658236e-01
9.215557203313796686e-01
9.706758203968025578e-01
1.000836071043730291e+00
1.072465811854109274e+00
1.045790361755015718e+00
1.008652775993941431e+00
1.014444897396794332e+00
9.821215960547642343e-01
9.311422619560169034e-01
8.442466731090629839e-01
7.901064649939754103e-01
6.685480971876310852e-01
6.120800353927805526e-01
5.033057269502566600e-01
4.072387314774804090e-01
3.922172133326766175e-01
2.942485378968085485e-01
2.798655945459204708e-01
1.407012155301614609e-01
1.428848561392384031e-01
6.995820108358853651e-02
4.598046090646196182e-02
1.796122938961235149e-02
6.699056074161446883e-02
7.060810968349745531e-02
1.738749981217085905e-02
2.772691256987181579e-02
2.888416425038339147e-02
2.364240093065475556e-02
1.471328215584370713e-02
1.405569099036697162e-02
-1.593879283064757180e-02
-9.158766669945729577e-03
6.107996231132258036e-02
4.265591294542935008e-02
5.342444343614965313e-02
4.372896110021831650e-02
9.774318580346963437e-02
3.528524053141322836e-02
5.515541929659243531e-02
8.117001765240436373e-02
9.269967175154930628e-02
9.279117732466490853e-02
8.607592537980562897e-02
1.055575343742554545e-01
1.136376314978227997e-01
1.510672156154396761e-01
1.212097422541210529e-01
1.359559199279431474e-01
1.082774192493100029e-01
1.664461155569665340e-01
1.319612059727861275e-01
1.844465266843503537e-01
1.736062846026378281e-01
1.812166987933289120e-01
1.829599858006805135e-01
2.203386757940629936e-01
1.736690755183176449e-01
2.003134721119841088e-01
1.710783006528862615e-01
1.477847505138190076e-01
1.874735968169046751e-01
1.469472373319899994e-01
1.908783334585698599e-01
1.759847669001640413e-01
1.406257827347898726e-01
2.364237622741012235e-01
2.137242118533775048e-01
1.715174857000645592e-01
2.487098885456882347e-01
2.111940865784174559e-01
1.627739257975452380e-01
2.149315889556755454e-01
1.613380884424940598e-01
1.883374860002802464e-01
2.101320577146754132e-01
1.906606897862755945e-01
1.983124455659686092e-01
1.746255101870428650e-01
1.717561431161653829e-01
2.038141396032605857e-01
1.583845526111060664e-01
1.201757597651861575e-01
1.254235901846804113e-01
1.397567561654395885e-01
1.467127257021233755e-01
1.061863634525709449e-01
1.413168098087093649e-01
1.143479730551546919e-01
1.383620552742875487e-01
1.331315914992793059e-01
7.280347211027997367e-02
8.583680694420781077e-02
6.867992607059741905e-02
6.586243504027090856e-02
2.221783664991373863e-02
2.681185721236181707e-02
2.838933925642685152e-02
3.391298086808942902e-02
9.218925988399198634e-02
1.321367920127382994e-02
3.835872967129180106e-02
8.208842950520005288e-02
2.535938756170345865e-02
3.646472244449923406e-02
-9.923447052457429196e-03
2.249361813978632829e-02
-3.014357977414950512e-02
-3.258828035498231163e-02
-1.238005339574685393e-02
1.132736787238784737e-02
-4.542796774819339578e-02
-5.908906114356803768e-02
-6.173062321815343811e-02
-9.375269381892847864e-02
-5.623463305043040206e-02
-3.943755930736349280e-02
-1.368030615446503423e-02
-8.031892678642241212e-02
-2.876777439752068594e-02
-3.891818430300186815e-02
-4.791794897471355480e-02
-6.199506159997553167e-02
-3.338606573563895896e-02
-7.023033883453377868e-02
-6.933628003583709731e-02
-4.428656944749941038e-02
-7.787136052164170263e-02
-3.229344748219478700e-02
-3.834235096606969373e-02
-6.111993110445616134e-02
-2.298438122877313403e-02
-1.531418562133891534e-02
-3.754092032216074792e-02
-2.951205759074295581e-02
-7.859732425434712288e-02
-3.610393700128363553e-02
-6.252050455676845531e-02
-4.808752512056792966e-02
1.287466134451245581e-02
-4.267975061777135731e-02
3.416319725589403444e-02
-7.323034966986907701e-02
-3.676017963367479019e-02
-8.998931764648784859e-02
-6.878891489802105297e-02
4.826108436396740753e-03
-1.737230858076808590e-02
-3.135553555188323738e-02
-6.772157362278066750e-02
-4.496771109069563899e-02
-8.930285360508719017e-02
9.562498971049541996e-03
-3.069916080974173511e-02
-8.899972425873622917e-02
-3.680917547594685091e-02
-4.898516895768272039e-02
-2.218647181390442577e-02
-4.013135334325731995e-02
-3.971799580589915890e-02
-4.653012932223322962e-02
-3.765292755214977305e-02
-3.288481071226526109e-02
-7.947537119049441490e-03
-1.313957266392675946e-02
-1.261460021255951872e-02
1.480831837920301014e-02
7.650085168211956388e-02
6.786712845947387440e-02
2.967172981470769799e-03
2.755952915837484030e-02
1.865874123837402837e-02
3.741399474759279919e-02
8.740194876311752070e-03
2.713174147534655467e-02
6.295946663433889257e-02
5.126098619374567372e-02
8.279410636128517464e-02
9.157656898910661314e-02
1.402703602080930811e-01
5.344556382858021287e-02
5.907285275354927367e-02
1.149796116002384794e-01
7.963570460511758264e-02
1.584424417893358361e-01
6.380627601033567187e-02
1.102059610816208540e-01
4.015625813819023726e-02
9.884103012305611724e-02
1.131087091141348977e-01
1.560278943291892595e-01
9.353408852561051479e-02
9.514096133800320487e-02
5.010453148245108679e-02
1.046093184883611915e-01
8.797984677151621247e-02
1.313561771192644501e-01
1.004968741964106377e-01
8.076687671557750137e-02
1.031117484633561204e-01
1.112608200108542861e-01
6.269524185153640961e-02
4.792151926511319104e-02
4.694532292948890712e-02
5.600936922238462790e-02
9.609972909155591048e-02
5.980007718449536352e-02
1.243108646481670687e-01
1.059364777745778891e-01
1.272848583024773772e-01
1.443721235273752457e-01
1.728565112670403803e-01
1.892939661075783431e-01
3.434363086064903814e-01
3.149778865851309839e-01
4.369991673443403557e-01
4.980538793041414669e-01
5.799010476642421086e-01
7.012189376503982219e-01
7.612657777159569372e-01
8.777587721537718490e-01
9.136038394931030870e-01
9.301064748744636290e-01
9.839790388920524045e-01
1.053230460538036040e+00
1.060635313394213908e+00
1.072210194756562540e+00
1.038383149185959864e+00
1.046112673653818659e+00
9.915988574174684489e-01
9.343342750083779569e-01
8.452292445919388220e-01
7.358309491310672801e-01
6.540596655579280494e-01
5.606250844291669200e-01
5.024017356726109274e-01
3.411352046213457778e-01
2.663826575706336186e-01
3.083754638992816655e-01
1.811299351942948221e-01
1.364004284519346466e-01
5.677915545658283880e-02
6.895274465042632028e-02
1.173120127183446548e-01
7.266831386229137546e-02
6.404818218763888571e-02
7.306290194423924189e-02
2.005233526190239313e-03
6.477806409240079166e-02
4.992006662538275158e-02
4.282405936476091357e-02
3.310310273119704272e-03
2.463171336321850341e-02
8.980988429329089806e-02
8.492178120938834868e-03
1.470372207552549659e-01
5.679336382909285635e-02
1.339754171514616343e-02
1.040476638447009050e-01
6.304678371471654497e-02
9.433880064484859163e-02
1.048808019685509851e-01
4.729002453459225930e-02
1.010300873984808917e-01
1.333569010335652616e-01
1.100549713830654974e-01
1.753020187720846779e-01
1.350421338425472628e-01
1.418070433519305062e-01
1.307331811898303220e-01
1.470589157512319778e-01
1.746505174569038810e-01
1.797530135453528077e-01
1.644966243839654507e-01
1.821779140421234955e-01
1.466671482376363245e-01
2.313134058556417794e-01
2.030723187310301825e-01
2.039962877743106973e-01
2.319565083312194742e-01
2.683885249267922157e-01
2.307329639934646015e-01
2.103363390386759901e-01
2.240962843220450085e-01
1.980921454922666414e-01
2.268584324485656001e-01
2.518567547144078267e-01
2.444146173826157731e-01
2.395402182706931615e-01
2.641560193184797067e-01
