1.136423542229040962e+00
1.169337322166872362e+00
1.154537548945362868e+00
1.084389872898933183e+00
9.947434270643634724e-01
9.530064164165371610e-01
8.750117935100057975e-01
8.188724957650792557e-01
6.083876075178058507e-01
6.202415715573219579e-01
4.908093315023993597e-01
4.444079216997283144e-01
3.613904074971058811e-01
2.743923053176396953e-01
2.392960258119169459e-01
1.284255505399704844e-01
9.925477270892307802e-02
7.792327897626412370e-02
7.504418800025840219e-02
7.248978614933596076e-02
6.896420276201675748e-02
2.520413330505145641e-02
9.995126391211234251e-02
9.875177890122198432e-02
6.688924930884611320e-02
5.566916409096569346e-02
2.857969583929356738e-02
2.118229909585617882e-02
6.025135078252470688e-02
3.540056386915711728e-02
6.627209903267142210e-02
6.212054188162113161e-02
8.544858670545080193e-02
8.322216776957072626e-02
1.285691859083261390e-01
1.481009521204971480e-01
1.122994907366020728e-01
1.480501481411795883e-01
1.247797880123896058e-01
1.780348799056371834e-01
1.322327169002756042e-01
1.859796616209438702e-01
1.773414420544400794e-01
1.593342286043085698e-01
2.138433352446880431e-01
2.153198192741621331e-01
2.032750367731654406e-01
1.933123324050991798e-01
1.672057325473484124e-01
2.007092428168475440e-01
1.767855718024575196e-01
2.073473630259777545e-01
2.375607637687673912e-01
1.937553238388174670e-01
2.206584302913735529e-01
2.816356815407494718e-01
2.788465329166534556e-01
2.481474978140828236e-01
2.399859041111849500e-01
2.638125245775833627e-01
2.809467002157678417e-01
2.928115327026856174e-01
2.911582082868539589e-01
2.324155336810616035e-01
2.821730113712669352e-01
2.236825971827273996e-01
2.334509810235113891e-01
2.234888105034414374e-01
2.058039645832738240e-01
2.539685975817434493e-01
1.933039144141538435e-01
2.222132111591826054e-01
2.717488790554301592e-01
2.533948593126487681e-01
2.170768484185381653e-01
2.285055604887522851e-01
2.497624759213010748e-01
1.994095133465082492e-01
2.143181632641861789e-01
1.990795749030758732e-01
2.017593593518430262e-01
1.930491248910374547e-01
1.486848955222318802e-01
1.694962726074910053e-01
2.221862963555973070e-01
1.629968344821191295e-01
1.647285855445444480e-01
1.996867612707468320e-01
1.114101802436143623e-01
1.506772992555142354e-01
1.507919296071763560e-01
1.312723518861385608e-01
8.756714799198962729e-02
1.121401520912776312e-01
8.270149909840049385e-02
9.126294961191505628e-02
9.430738312293443504e-02
8.474744456492994127e-02
2.653843982410601654e-02
5.055044322589267308e-02
5.481370356667202015e-02
8.077694245861104239e-02
4.804663578330133772e-02
5.902894604454278493e-02
6.245787982303212249e-02
3.723225790833402382e-03
4.346454702163429773e-02
-5.252545553682060747e-02
-2.571323436335446605e-02
3.808809009756241454e-02
4.644687143324763290e-02
-9.974190346256191220e-03
1.848324732081785965e-03
5.275849355869857704e-02
-6.038396507581606648e-03
2.003963179126426464e-02
-2.023870951573805005e-02
2.851737506617414708e-02
-2.066570403093933445e-02
7.972837825491491115e-03
3.454469872263873226e-02
-9.535008038139676512e-03
4.608600386320770015e-02
7.864215213746582334e-02
8.725569755673123762e-03
3.846627467040145132e-02
3.197608317998444638e-03
-1.036057229028400362e-02
-2.253025284304042627e-02
1.196704205794886858e-02
2.430106478969417880e-02
9.381814751732225552e-03
-1.933498728614100118e-02
-5.506109606421852321e-03
3.009401175641437942e-02
5.311808337389610501e-02
9.039641104267795088e-03
2.295646849293270578e-02
4.718755720145079158e-02
3.886219735121847207e-02
3.721265050121540241e-04
3.809463046685204746e-02
2.561925946268907989e-02
5.112371056799090707e-02
-7.777857169713534025e-04
4.309955480928519267e-02
1.550818840649946517e-02
2.157728482150663568e-02
3.285034685223885143e-02
7.666871360653304546e-02
3.509298140349564887e-02
3.683480996014051184e-02
6.233604687959585361e-02
6.003590992685502864e-03
7.934932697954365233e-02
-4.182676803796898934e-02
1.611899119456393706e-02
2.266899013689320508e-02
6.126152237949755719e-02
-1.015913200115050111e-02
4.354138292700217294e-02
5.581825096302493738e-02
1.435328733466111062e-02
3.696195034981925726e-02
4.164138458513780283e-02
8.666311061361534063e-02
3.915156220104731855e-02
6.839925979986927196e-02
9.907186898951848841e-02
7.255687726013780592e-02
7.701926313230783583e-02
3.841492864468062929e-02
9.263622465382349846e-02
9.420129856962987380e-02
7.992652743814693261e-02
1.086345434215054834e-01
1.375917469734946330e-01
1.385523961856416630e-01
1.009980329984609959e-01
1.095892810582467930e-01
9.817585034894117657e-02
7.673123138229898110e-02
1.439085454581128243e-01
2.155730813437795601e-01
1.179695997172020838e-01
1.333453163807066799e-01
1.510340566226419101e-01
1.574384145888890474e-01
1.619610052906252928e-01
1.806727214963083639e-01
2.375086888465282875e-01
2.103007227041244209e-01
1.923892292643781254e-01
1.581755361775213919e-01
1.675831976278527868e-01
1.830964666436491473e-01
2.227459654936313482e-01
1.735212760405414334e-01
1.440107461467112770e-01
1.666525479957513267e-01
1.766878076560556565e-01
2.116704933624563301e-01
1.787790791873306306e-01
1.208995699045909145e-01
6.681559193026018195e-02
1.342875975753823892e-01
1.444939850801754133e-01
1.283649023379196952e-01
1.046616905558342137e-01
1.467921686180446994e-01
9.131150867425133488e-02
2.093512677327599436e-01
2.052046233461366220e-01
1.809957622771674601e-01
2.352922976565833824e-01
2.795342980425870039e-01
3.694069287064422613e-01
4.243362847725206666e-01
4.602611572361035019e-01
5.331215025467850310e-01
6.175108168766401118e-01
7.515609305073180924e-01
7.486627091078528196e-01
8.889149916601082335e-01
9.592536751926880045e-01
1.098672646255370866e+00
1.131043562862861007e+00
1.212209425011856467e+00
1.179893201767164168e+00
1.286467666191044801e+00
1.309440312961246411e+00
1.119229166783454410e+00
1.142134547822341695e+00
1.126255567025796100e+00
9.452454295613189617e-01
8.564103801656950399e-01
8.302621150235953706e-01
6.957088338295774887e-01
6.524366715740418377e-01
5.187337435911293371e-01
4.529045321261134238e-01
3.848821114150748901e-01
3.196083782176923349e-01
3.011145941949738281e-01
2.547829152648876661e-01
1.914735122099380238e-01
1.519160359009964489e-01
1.485414431212083164e-01
2.102497212129467996e-01
8.812747326705276663e-02
1.180462710349059752e-01
1.422544180576755801e-01
1.054477203722677392e-01
1.333478917161468047e-01
1.021734745104055098e-01
1.376145966367608997e-01
1.390820616765872098e-01
1.085480788926002360e-01
1.541781130920140686e-01
1.172248568622701326e-01
1.337120975416286051e-01
1.595434075689354803e-01
1.972203142328943226e-01
9.620628435309172555e-02
1.872589722338812157e-01
2.049431178042890878e-01
1.536074745218240223e-01
1.822384069326816181e-01
2.100722743823269512e-01
2.137912812377274485e-01
1.765231340277941818e-01
2.112574141510858705e-01
2.024661404020882127e-01
2.344485454629942622e-01
2.461030021782615873e-01
2.291930710980689401e-01
2.351997450607605233e-01
2.915752314678220491e-01
2.701864097712630697e-01
2.598151459413339803e-01
2.320086404415445114e-01
2.352228963550603846e-01
2.528986779310103961e-01
2.527190955631716807e-01
3.137946628143905015e-01
2.756966601108348236e-01
2.468840809426489091e-01
2.890523672036949265e-01
2.738176598837638864e-01
3.248120847693327096e-01
3.162467022251901350e-01
2.828038715351112176e-01
2.638861088640068742e-01
3.289520852213924651e-01
3.624655090165071480e-01
2.669426460812334700e-01
2.441463659048495327e-01
3.191322696254461633e-01
2.906545592810542145e-01
2.881017285021024721e-01
2.185657180584223702e-01
2.474181779852101526e-01
2.757094621944396473e-01
2.749401730665349541e-01
3.338602850841841940e-01
2.987664342106380877e-01
2.760355995133375595e-01
1.809579511484940839e-01
2.667472658605779534e-01
2.289054476173972286e-01
2.251165687248879166e-01
2.681412240697277349e-01
2.126239053563456771e-01
2.042059987539783517e-01
1.694423921038701319e-01
2.213549791958005220e-01
1.941231681106850848e-01
2.070507812646326384e-01
1.396479424224892907e-01
2.168588945608833918e-01
1.882498287625349043e-01
1.480905215414032861e-01
1.673960877225706412e-01
1.645418853504446166e-01
1.863711395738635590e-01
1.238220594662791108e-01
1.191121057143900847e-01
9.006808386096715191e-02
1.818039956035669147e-01
8.203851396615639835e-02
1.046890840505257658e-01
1.094475008826631540e-01
6.497079607404612767e-02
1.364260776177813606e-01
1.968376437719056848e-01
6.300045349832068819e-02
6.935038681012745121e-02
1.437393533238177368e-01
5.763450853634531634e-02
2.515231376649809322e-02
6.098372396689795416e-02
9.169434528064465684e-02
4.863060526224883412e-02
9.234513961774909463e-03
7.758734283945573074e-02
9.452299127233576570e-02
4.386186810337269759e-02
5.522204743068131333e-02
7.665343593465989702e-02
4.043572503747965702e-02
2.670392693091012959e-02
-7.004746728059355054e-04
4.531938037330970892e-02
3.786218274229246478e-02
7.495087279274678660e-02
2.820412980667210204e-02
5.945091054547671505e-02
6.781770112159550556e-02
3.383474636936467661e-02
6.612203818424257362e-02
7.325539553235067836e-02
4.432641123381830806e-02
4.609357379185986120e-02
7.074412607583412116e-02
7.608810154592024477e-02
7.180119326274185532e-02
6.553937581373642240e-02
3.366677333481263995e-02
1.191617279154297548e-01
1.985736374160333370e-02
4.066897860941472154e-02
3.629025859193983627e-02
6.379461471818351215e-02
8.440695753088070519e-02
2.745182340706119051e-02
4.053543997889776790e-02
4.525305683129186157e-02
1.096506583773886601e-01
4.107614854112841274e-02
2.790208174246995576e-02
8.481222533262115781e-02
4.775813824447055350e-02
6.817574524119289492e-02
4.690844138198160124e-02
7.512198494825234052e-05
6.028436649828147753e-02
7.998826111063214728e-02
4.320561596537488003e-02
6.574554648423590331e-02
6.348722517600612070e-02
5.716908504169333771e-02
8.688920214713066748e-02
6.919855345605341324e-02
1.197614259257407110e-01
1.166415925105485640e-01
1.366366330776586646e-01
1.268201840780562306e-01
1.238925727387123199e-01
7.163187848471058716e-02
1.246658601992312043e-01
1.294736663541270760e-01
1.109343455134902540e-01
1.024251848464651365e-01
1.375854881078866776e-01
1.007309111754047526e-01
1.864887550612988609e-01
9.335073747680550094e-02
9.649991715005226678e-02
1.156559049827478314e-01
1.707704404369956852e-01
1.419762937645361878e-01
1.770975847827507832e-01
1.660768527361856650e-01
1.623428883750571150e-01
2.091641791319651944e-01
2.130872629642903138e-01
2.268322403045776592e-01
2.520801780606229392e-01
1.469113924131260074e-01
1.871574577662732386e-01
2.072439876078444043e-01
1.457723151250218396e-01
1.553888564707955888e-01
2.232062847033736697e-01
2.859097248712230144e-01
2.024139230789303023e-01
2.181895557672301478e-01
1.899757153047032521e-01
1.732582442849992799e-01
1.462477535886280156e-01
1.937989091116406326e-01
1.498585718615234319e-01
1.596483704322835817e-01
1.597756969006443040e-01
1.470876066882073063e-01
1.193732288301980471e-01
1.650280147266716957e-01
1.572156305319609704e-01
1.595636524834856407e-01
1.648384518191164383e-01
1.827952934079682956e-01
1.452491346380145876e-01
2.116932000928729296e-01
2.959418287416851756e-01
3.080884125179613187e-01
2.606207690547760469e-01
3.691528005227148190e-01
5.052187998533016478e-01
5.747001044403923231e-01
6.207349830174608840e-01
7.100855702280776116e-01
7.663967109499141284e-01
9.171444983900436387e-01
9.832223689661644395e-01
1.050235249732834220e+00
1.124172539389750591e+00
1.182777371870156857e+00
1.200883225476953253e+00
1.223071372434311854e+00
1.210055389056851061e+00
1.215991459770371375e+00
1.171180163018776810e+00
1.059254913914612350e+00
9.777382702577139817e-01
9.110778823692777806e-01
8.521354109382668351e-01
7.387318762665555649e-01
6.418544431105631665e-01
5.147292540042347486e-01
4.322607941498647910e-01
3.166861132969288617e-01
3.230165809428640622e-01
2.541533987749078349e-01
1.662776960391243453e-01
2.319743870887778225e-01
1.371982216050695036e-01
1.434714756541354275e-01
1.760937261276678822e-01
1.139775734579049071e-01
1.584308259035551725e-01
1.044637060806445916e-01
1.483743616065897608e-01
1.107077553529303704e-01
9.764194986951701960e-02
1.266508131677317739e-01
9.129525642584396250e-02
1.120918386459004712e-01
1.534752590626504709e-01
1.289926658780476409e-01
1.154376359819437314e-01
1.370919600203725497e-01
1.434579475888645983e-01
9.676482320228135814e-02
1.430010234322485196e-01
1.061347656471436501e-01
1.719767750302216291e-01
1.729361586283321428e-01
2.054836702762938561e-01
1.444606568485187759e-01
2.117915930468629304e-01
2.321901941847965001e-01
2.595513753623628350e-01
2.777301562956565051e-01
2.343189085854436859e-01
2.055794725460091954e-01
2.561626238365793951e-01
2.501903001416163619e-01
2.589922886358021481e-01
2.607197601096160611e-01
2.563495321030827001e-01
3.040838999688787458e-01
2.559078072510962976e-01
3.213913783534655400e-01
2.174683444818347744e-01
2.809289478022934383e-01
2.512274909994907657e-01
2.845755254721007432e-01
2.618065567679778161e-01
2.757701647723687088e-01
3.170496727489931499e-01
3.088616595529947162e-01
2.483741193016827109e-01
2.583665018745886499e-01
2.819226649229398252e-01
2.992354766072718997e-01
2.522289034964866894e-01
2.721893635104724596e-01
2.655202766294819661e-01
2.520361529413435719e-01
2.706957268755597057e-01
3.049006339100523433e-01
2.560113648883135529e-01
2.944461089082394678e-01
2.214591680338641178e-01
2.465449786716158442e-01
2.056903357862353565e-01
2.310301821735241679e-01
2.208486708441982915e-01
1.785393101050642417e-01
1.785796219046269506e-01
2.177404386836237493e-01
1.662017384415822030e-01
1.522315686845896465e-01
1.429950696834830781e-01
1.948901331516326163e-01
1.913155538399566036e-01
1.393980585518591886e-01
1.618846891385051223e-01
1.624080682500452233e-01
1.453772983931242990e-01
1.698893279100696652e-01
1.804428727477009886e-01
8.873193990169161993e-02
1.280702335987453089e-01
1.559282531162621555e-01
1.162062136387260747e-01
7.910731761273791240e-02
7.187306395109777091e-02
8.325394314344801427e-02
9.354587452469104170e-02
8.914501929487869680e-02
1.063949134041391326e-01
4.957430265309773626e-02
8.339946477944190639e-02
6.877807804159274951e-02
9.678596912446402190e-02
6.195958030388869914e-02
3.031736037634661513e-02
6.307304777260991369e-02
3.555725161387181255e-02
4.395156764949299799e-02
4.657568939594865925e-02
6.524859296326425417e-02
2.676749079359267564e-02
6.929773430393992850e-02
1.085747338491390712e-01
3.654791410417472519e-02
4.246373220833306317e-02
3.164412449411903305e-02
-1.132948481548313319e-02
1.773911243150038189e-02
4.319032256678291548e-02
8.397783236604704216e-02
-1.452459836750392627e-02
-9.830490893234060390e-04
-4.627849629265809450e-03
1.023110698258016954e-01
7.508838261291138350e-02
4.833847141727669328e-02
2.642621817871334405e-02
4.579917927243584708e-02
3.001970143542988939e-02
-1.472743335868446912e-02
7.602220780862692026e-03
-1.121222858114815160e-02
1.125232690280243177e-02
3.184882441392905550e-02
-9.731986063782754881e-04
3.897181933139245991e-02
-6.015691433388561243e-03
2.654419603788866003e-02
2.146368926762816376e-02
7.458619039048333677e-04
-9.295127370186478943e-03
1.204806375683949334e-02
4.527339428554985612e-02
4.577942088042316615e-02
-4.564326549015111645e-02
-3.381899651250297456e-03
1.704675397738154158e-02
4.376441699593855428e-02
3.998027380931658270e-02
-1.868705828091323309e-02
4.675857352752203072e-02
7.539275086492668032e-02
-4.370047240781484155e-02
6.878396592672736398e-02
4.484562473401542890e-03
8.719396731891812524e-02
-1.966348464876135904e-02
1.131978759342050847e-02
1.867329899716685046e-02
4.889215070550687742e-02
7.714110443868284206e-02
4.591812988806533852e-02
-4.009989108573612168e-03
9.126543126791314409e-02
3.344284285520986860e-02
8.316009247179048658e-02
5.964645088855724531e-02
5.247539535592268822e-02
4.991748312964112283e-02
1.077129344586580106e-01
1.122247619111522848e-01
1.003074034451159335e-01
4.248227260639445002e-02
6.191960941263353196e-02
1.288785799782622699e-01
1.416446036923631191e-01
7.730799637949588299e-02
1.876409517898487145e-01
1.676827260300561007e-01
1.467584571960536821e-01
1.150522704377851257e-01
2.060340288002648901e-01
1.815317820026174644e-01
1.323948995074541446e-01
1.760350266424919596e-01
1.935778676440001178e-01
1.262073936874796021e-01
1.851696109872950913e-01
1.427658356530040196e-01
1.886569329217991364e-01
1.301723956175961372e-01
1.307246985523746741e-01
1.159409063036515170e-01
1.742640199221256736e-01
6.445434838361865926e-02
1.319934993300536374e-01
1.034994257509712079e-01
6.902147549836708251e-02
1.545540973828566367e-01
1.352133646126766342e-01
9.015377965052627507e-02
1.364048452091758956e-01
9.677069788055427113e-02
1.137736654461071473e-01
1.139335442421565703e-01
1.142182285085037996e-01
7.668874570271917712e-02
1.648865307101707312e-01
1.971194234266751555e-01
1.553420806162580103e-01
2.424309353058709815e-01
3.401873361028980303e-01
4.178415811333730523e-01
4.018354283995505538e-01
5.378446880379876838e-01
6.589666689263447008e-01
6.967989758380609411e-01
7.868318152326537751e-01
8.591879275836249441e-01
9.894228510670473042e-01
1.028669954760037974e+00
1.091730031620479213e+00
1.150127701847684314e+00
1.180286279924793957e+00
1.201147654841848933e+00
1.176242779768313040e+00
1.130547569526817453e+00
1.048315876351209708e+00
1.020509448662184626e+00
8.621815453791457085e-01
8.021702411731332916e-01
7.442502647315266673e-01
6.744703855258710190e-01
5.829162174538123908e-01
4.107356533813840693e-01
3.765874621653310661e-01
4.036292254513829669e-01
2.601852287695693433e-01
2.515459739996772082e-01
1.914162632350925319e-01
1.154237700553392421e-01
8.634716803825462361e-02
1.299726365278704721e-01
1.633468044925718010e-01
9.810052829406656905e-02
6.755913190913925837e-02
7.243462403096330438e-02
3.417199136036476459e-02
2.764402709318827117e-02
1.429966509958825391e-02
8.520618545625059659e-02
8.718494283857333715e-02
7.089198786204697900e-02
1.158570380224547697e-01
1.257779594694662939e-01
1.083291246638618810e-01
5.591029469239237881e-02
7.518659279859936373e-02
1.175671003780541790e-01
1.406196817989383008e-01
1.261674518621724306e-01
1.299707660582413438e-01
1.401297658013998526e-01
1.319765370249119385e-01
1.320158746421051799e-01
1.221771016029037371e-01
2.434561814038440075e-01
2.000054738263004617e-01
1.526107947645535257e-01
1.779533900298849447e-01
1.692346547539869683e-01
1.554230429798360569e-01
1.379347959701499871e-01
1.693658572780185612e-01
2.139506487839502036e-01
2.522784904855390198e-01
2.062241349455551376e-01
1.733841859140787811e-01
1.375097376392837301e-01
1.973882370740347725e-01
1.974185716260518919e-01
2.073785680400667131e-01
2.657446235923939248e-01
2.617223853526469135e-01
2.407121462606081064e-01
2.693104110230402637e-01
2.434268959269689225e-01
2.341105070955545875e-01
2.226519171339652881e-01
2.636791170567202580e-01
2.001843363890729033e-01
2.263525340627938198e-01
1.766813024996881920e-01
2.111495887505849822e-01
2.425860015330983110e-01
2.334811683495148227e-01
2.250020493506283137e-01
1.905042778028898376e-01
1.757400776257732888e-01
1.906318172688834800e-01
1.576395654737373642e-01
1.208324955238669479e-01
1.696084955554421625e-01
1.331417285060964018e-01
2.122520300821629236e-01
1.928875139994473131e-01
1.568916653804278971e-01
1.217179701458504515e-01
1.053285607794464951e-01
1.114316554143029298e-01
1.468933111581455786e-01
1.380464191560532572e-01
1.256751291711368235e-01
1.289414477203743858e-01
1.316706587950031426e-01
7.121944466949808872e-02
3.833839639387354170e-02
4.171182719674126904e-02
1.304182374869385930e-01
1.296446695313387409e-01
6.549336344270370591e-02
8.289921881376530188e-02
6.229824994267255112e-02
-4.849000288042255857e-03
-1.547401149493490835e-05
1.216126764503154545e-02
2.299978509807295429e-02
-1.926192173511811698e-02
2.738015446662821900e-02
1.749796442035884275e-02
-1.026920148034057151e-02
9.211806046713795493e-03
2.143920067826913384e-02
2.463091878272109098e-02
-1.458685317999756231e-03
-1.807448708013452421e-02
2.396741810784659005e-03
-5.622722086959659055e-02
-2.259220351578224845e-02
-6.387562557122783424e-02
-1.593619686984797112e-02
-3.034102817034889377e-02
-7.820606323961556278e-03
-3.981669386285450335e-02
3.423523601587919601e-03
-3.108359176401591720e-02
9.408593408222348103e-03
-2.168218024869651012e-03
-3.058295897193102214e-02
-7.045506487424726960e-02
-1.352818513958340893e-02
-9.660404216342916711e-03
-9.503247788893198766e-02
-8.811545379639489084e-02
-4.547296762767311790e-02
-1.002725732999121683e-01
5.167263546977406141e-03
-5.303361306497995920e-02
-5.798670880637631087e-02
-6.712738675032380031e-02
-4.694935294557907313e-02
-3.086667057739496053e-02
-2.822525364734437131e-02
-4.990302955792197404e-02
-2.937128314559991210e-02
-1.155307993872437544e-01
-1.599289719282033506e-03
-4.725836028339314154e-03
-4.199398593426649506e-02
-1.958630319449425686e-02
-6.142948070484402501e-02
-2.223447586910258511e-02
-5.461763616319786907e-02
-2.142063642264143905e-02
-4.726633495145558805e-02
-6.068951332506671015e-03
-4.811922453600750438e-02
-3.122864024863344218e-02
-3.868683405395140912e-02
-2.778846023494244838e-02
-4.195683440186510904e-02
-2.499448292449196057e-02
-1.685135872768460386e-02
1.653785293580407184e-02
-3.122488554231641483e-02
-2.253347622273444567e-02
-1.950578417044108309e-02
1.055518311538210241e-02
-6.343585275751689734e-02
1.725088901252128104e-02
3.389796917978774027e-02
-1.609025261687348912e-02
2.985909255819524377e-02
7.845195176249347702e-03
6.969524439860749765e-03
3.366858155527008289e-02
-1.683604924315254547e-03
-1.010507215980804840e-02
3.230120059187391313e-02
1.497934239293027131e-02
1.199377542736335955e-01
5.406024076097924735e-02
2.215450670615038559e-02
4.393767764051367819e-02
7.441862392221684774e-02
9.462846698846338889e-02
6.625118537675479813e-02
9.307734495674833963e-02
5.636886802001982860e-02
7.651166946700840854e-02
1.411352071329317892e-01
1.057553169144147542e-01
4.131065983894625926e-02
1.134488802514342087e-01
1.273223833836270580e-01
1.213794536693503234e-01
1.267787267231694492e-01
7.686292302201022664e-02
1.375771016112362632e-01
1.038296158238810746e-01
7.249417309365421835e-02
8.814761468736959094e-02
1.162153315205391862e-01
9.174243328754375093e-02
1.113553479331121643e-01
7.092584863204060008e-02
5.976178936370460382e-02
4.561252157999059337e-02
3.323162177829342562e-02
7.279340259774869093e-02
6.528105662062844150e-02
7.416871788422302325e-02
5.208333670945123478e-02
4.510160159331057239e-02
6.665937943165109458e-02
6.280237250279455119e-02
9.539651484103253698e-02
1.262336966233762736e-01
1.479247752178617370e-01
2.262392484507247115e-01
3.193895724890646326e-01
3.347228888050013396e-01
3.727157990081239047e-01
5.150960946169942378e-01
5.582857009441122287e-01
6.749477529677487819e-01
7.504794818640698750e-01
8.309263862662379374e-01
9.063996174315831489e-01
1.050706882187823599e+00
1.045536247452692802e+00
1.093623232364197673e+00
1.127416623506285687e+00
1.070081191083663841e+00
1.156748165171515685e+00
1.049468249126482844e+00
1.069393240191874872e+00
1.006576860606942958e+00
9.211904961333501340e-01
8.038109020577438590e-01
7.260098717189922279e-01
6.039801752736360108e-01
5.153080555853887246e-01
4.698877028151781654e-01
4.046372912138034850e-01
3.550747197690088952e-01
1.758714051016386226e-01
1.691412173649858297e-01
1.846166076935654987e-01
1.070725487827320632e-01
6.453154895979598682e-02
5.740729121540415897e-02
-1.344973121196644389e-02
2.765745419168685187e-02
1.934728654610644305e-02
9.608472989240932072e-03
-3.220731139052052105e-03
5.194738163185366742e-02
2.371476967098645749e-02
1.483346314948846834e-02
-4.117306180978644314e-02
-1.481205395598324259e-02
3.021452483861808425e-02
5.468302080260262210e-02
9.299233390693047163e-02
1.113760228048525924e-01
4.710844383802523239e-03
8.245421036713782015e-02
1.030039619563492131e-01
8.625809557619280865e-02
1.086688971139112420e-01
7.236740154928950064e-02
1.044628942702905267e-01
1.465686438834102878e-01
1.151925685373701158e-01
1.039032224808706106e-01
1.419881120251676176e-01
1.389043371004844429e-01
1.826341554035310899e-01
1.309506927839766133e-01
1.705140244608319700e-01
2.067482660588734200e-01
1.750279823160733328e-01
1.152464508510094437e-01
1.497375076024142215e-01
1.798699017004880552e-01
2.125267293214600506e-01
2.063431404820292581e-01
1.711617198167199871e-01
1.922453360620457186e-01
1.949058815627290886e-01
1.882415019789680788e-01
1.627618760807228449e-01
2.090002224157125610e-01
2.079604026578402154e-01
1.725873566833561468e-01
1.609519509495928313e-01
2.569255170392122922e-01
1.494468547026084893e-01
1.990321110857561082e-01
1.968734011200042600e-01
2.076809112093504495e-01
1.727992817687539484e-01
2.033537404789755032e-01
1.620218601458714436e-01
1.588803729815008725e-01
1.786508965104389168e-01
1.777156636227320841e-01
1.342771670298993913e-01
1.311479794368604623e-01
2.257602181475711345e-01
1.495714090805948804e-01
1.640363187703200998e-01
1.083706078099241354e-01
1.477020638408357289e-01
9.758404179786239752e-02
1.126535919585662238e-01
1.239886445679457272e-01
1.377416814974412596e-01
6.460256304868727817e-02
7.488848140461737413e-02
8.501877205023559980e-02
9.179363859348627086e-02
9.624730444095028203e-02
4.510550604488838822e-02
2.452757313158252656e-02
3.294937847805561731e-02
6.470595219983599211e-02
5.110271150308072496e-02
5.046204045007916805e-02
3.927715932931741261e-02
2.952811230867569137e-02
-1.263435544876361644e-02
-5.350848548273876015e-03
2.111536843782512579e-02
5.080153829451700825e-02
3.693205494217872975e-03
-1.883690249824116619e-02
-5.695129615437759252e-02
1.185345607558645209e-02
-3.529076700738453809e-02
-6.066179130832093092e-03
-2.573581869002588771e-02
-5.941409261951566267e-03
-7.085946511566408590e-02
-2.797615589931062158e-02
1.641551125398135053e-02
1.060635154053024554e-02
-6.945460504612853414e-02
-9.353220389170119331e-02
-6.702051285327366437e-02
-5.585946585905872397e-02
-3.356191127475771641e-02
-2.562982529985526059e-02
-2.598471585900630210e-02
-2.351977796103087159e-02
-7.688613789525129694e-02
-7.682732858271699994e-02
-4.550350158260037248e-02
-3.555428880595311314e-02
-5.684419391330453042e-02
-1.118818660641606177e-01
-4.143009037199686662e-02
-5.632730687156871363e-02
-4.737625529710436101e-02
-5.287686380433373468e-02
-6.272176433772422288e-02
-4.226841645372549083e-03
-7.648286655099212350e-02
-3.908478205372612618e-02
-6.183514292835624870e-02
-4.759506458295512804e-02
-7.711387691793383792e-02
-4.925688820513277055e-02
-7.303854703543877225e-02
-8.945656347740985059e-02
8.778275061702679738e-03
-6.672919388098627613e-02
-9.660406408354242636e-03
-5.284692827157286277e-02
-5.760366269526184801e-02
3.103251615291773707e-02
-3.573654746600831572e-02
-1.104116909621935400e-01
-4.533830307140000043e-02
2.781553260471766875e-02
-3.799462779084263053e-02
-4.433796571722276730e-02
-5.716470992703369391e-02
-3.423807745704193772e-02
-1.361533379670736288e-01
-3.382988548381633126e-02
-2.699715840701201464e-02
-5.570187628774644906e-02
-1.269572114667127244e-02
-6.038947695840220925e-02
-2.749238423182941843e-02
4.122176579683118486e-02
1.775397641758159895e-02
3.436769344043809349e-02
-2.697472886187369384e-02
2.736256086701711193e-02
4.598239391899482109e-02
9.408632169238123621e-03
4.690702059511541594e-02
6.242486671246844782e-02
-3.976514471074915624e-03
2.552477620814445902e-02
6.822969190670419293e-02
1.542727319028096983e-02
6.007334261818969567e-02
7.179307475071980416e-02
4.704914925510195883e-02
4.185475462251908585e-02
1.071621042240248345e-01
1.228925881151319011e-01
1.203516132113521264e-01
5.865870133800592939e-02
7.739790923376457799e-02
1.335954019660571812e-01
9.364578420444395757e-02
1.423102914517122008e-01
8.705788555172168375e-02
7.518800255708635305e-02
8.218138553009013414e-02
1.470268442224643701e-01
7.895606100103190472e-02
7.388017056043445774e-02
5.635658340907166025e-02
7.971556661641582275e-02
1.141358193533352217e-01
7.724193194687603570e-02
1.316438086909966498e-01
1.086073026402868680e-01
1.144457576562955825e-01
7.481935953068138967e-02
7.758851202756651688e-02
9.368066970016833417e-02
6.238333771407220119e-02
4.333719647842312894e-02
6.080137007197840282e-02
1.043430758045509193e-01
2.732493038870412172e-02
1.015388259871616017e-01
9.679424822737361933e-02
1.230715098387713813e-01
1.222228277606610264e-01
2.145188645332053445e-01
1.848957406395426162e-01
2.488328662240184563e-01
2.934855855363212584e-01
4.246240578405833244e-01
4.836842655134170332e-01
5.431043456300133077e-01
6.940454228929797686e-01
7.832087074194891141e-01
8.684089550416427272e-01
9.209096928030133800e-01
1.004861949007145761e+00
1.076527879774145102e+00
1.179754247175938797e+00
1.130852089035530472e+00
1.162494153295180910e+00
1.107685040966801759e+00
1.081726204456960216e+00
1.050115330626571364e+00
1.034739271366271751e+00
9.021624537514791875e-01
7.782236239779120046e-01
7.474963091256282555e-01
6.586774818649846486e-01
5.695600567483157795e-01
4.779639581217148825e-01
3.790760486954630193e-01
3.373128499521558243e-01
2.566759340400474043e-01
2.055978565794055191e-01
1.556807332189380499e-01
1.168461425942992071e-01
1.122274009647142023e-01
1.105481853982830664e-01
4.944858948411719191e-02
3.056553089237089987e-02
4.918599703039539667e-02
5.288576035978432427e-02
-1.651170345601243872e-02
7.173698677096085330e-02
2.641485734437283572e-02
3.359154487316947518e-02
2.848070971305934757e-02
8.937801091562982969e-02
9.457538154044371759e-02
-5.999177853924661519e-03
5.943626490819942099e-02
6.438088239415522274e-02
5.720373198297529216e-02
4.231670587552450319e-02
1.264818985201484058e-01
9.212979881381891389e-02
1.105432700233052595e-01
1.159313633784997410e-01
1.130116800713930891e-01
1.412297622376756379e-01
1.377332846278472855e-01
8.262919755907904840e-02
1.336811306374451891e-01
1.513367242099600551e-01
1.264159042622089169e-01
1.593720043832670408e-01
1.521355779675559461e-01
2.050428434918347420e-01
2.117408304252141882e-01
2.007983860440172574e-01
1.696888534232958712e-01
2.050656395908851959e-01
2.468244536372929399e-01
1.780574675537850982e-01
2.448512279181380979e-01
1.916649830371125185e-01
2.052224583401354718e-01
2.230901892290441946e-01
2.420206876788351946e-01
2.300286491655982868e-01
2.010753401950830244e-01
2.015599521017184537e-01
2.400487761467444692e-01
2.627918896740860100e-01
2.272384842347254241e-01
2.335009201528102651e-01
2.228598980619623249e-01
1.983839177769226025e-01
2.209861670815720935e-01
2.263041769314801110e-01
1.925804846412397242e-01
1.767669433878863994e-01
1.950418723939504884e-01
1.836723703274024122e-01
1.492910813429301764e-01
1.379608959057843642e-01
2.202858366352089259e-01
1.176234721816204754e-01
1.878889170156805566e-01
1.358536584757685795e-01
1.586770754451451160e-01
1.140455047981187436e-01
1.457014201674733944e-01
1.530419939290435238e-01
1.643980181815974662e-01
1.100638511118562368e-01
1.293529026883025179e-01
1.109221020773608068e-01
1.424650809859840939e-01
1.190799008638750156e-01
1.021707230663705668e-01
8.410044234354628612e-02
5.963706997612615301e-02
2.274979392664396374e-02
9.554073357276403333e-02
5.859410550703647580e-02
5.485717325465910843e-02
5.331945134617786797e-02
7.361460652686149797e-02
5.551460023739161059e-02
3.557091455720237660e-02
5.285554950557039278e-02
5.212984808183591945e-02
5.809301317796310149e-02
1.530980424534039708e-02
4.021575721223534516e-02
7.378163065369917895e-02
1.581112850856665475e-02
-6.827275214708022899e-03
-3.805627908539599424e-02
-1.508707223970381581e-02
9.999132341186739437e-06
8.216028800217214934e-02
-6.266817690775552258e-03
-2.534902261357473152e-02
2.034694054367177513e-02
-9.825748442880560818e-04
-1.807967070661439107e-03
-1.587948072790340212e-03
-5.936432884726002696e-02
1.308752297093181138e-02
-1.471700233790156423e-02
8.697478480063657036e-03
-6.531720082414545214e-03
3.387692364228526293e-02
6.518782230879462125e-03
3.625882701411501513e-02
1.664020511029528498e-02
-4.638608434062144875e-02
1.809293014355788792e-02
-1.232379030874608018e-02
5.294516327161418595e-04
1.999010429340033861e-03
-1.457578079230246321e-02
-4.016450412407234632e-02
-4.844434292632037418e-03
-7.168005654178566215e-03
3.748528838165677418e-02
-5.826326152754819632e-02
-2.154386433115208083e-02
-9.432727615386379133e-03
-1.522613073147557027e-02
4.909298612917060989e-02
2.445474239979129188e-02
2.610610260914959790e-02
-3.673187324620426353e-02
-3.220204329506487495e-02
1.277711972143986269e-02
3.563534783462060564e-03
2.435633686904282655e-02
2.058582627954854208e-02
2.213519110804925902e-02
7.361607818211620899e-03
-2.888287410782691342e-02
-4.791318266590893164e-04
3.451867134653601593e-02
3.862398062601041238e-02
3.199417213721052894e-02
3.044012169712806762e-02
-1.667249672814791195e-02
4.491885912531999592e-02
2.690597185946260947e-02
-2.411082797952496942e-02
1.054454580749785396e-02
4.579151836601408343e-02
-1.360439571628105880e-02
6.771679471922036064e-02
2.464036046455649401e-02
-1.161601444148974496e-03
5.543443029222285684e-02
9.981942521966130633e-02
8.885583648330867834e-02
8.489279509593472550e-02
6.639851838547278229e-02
1.114437493368522075e-01
9.473194951468255631e-02
1.360526586809258087e-01
1.185845862579991555e-01
1.308434820623635975e-01
9.867864145363501593e-02
1.331967338161187953e-01
1.218016850399610274e-01
1.229702175632858968e-01
1.011003325561752597e-01
1.572882877187546102e-01
1.264964795414489918e-01
1.278790888288819372e-01
1.766579312375660682e-01
1.770566781816176050e-01
1.478242191011371331e-01
1.173227451267570276e-01
1.914331150473022880e-01
1.707660096594263432e-01
1.901513875173571344e-01
1.875619204055276878e-01
1.158500133206327443e-01
1.460246016065616659e-01
1.209166286842177779e-01
1.258349570559812447e-01
1.350413982624311671e-01
1.018182145596211591e-01
1.478200846384986611e-01
1.432238362049127745e-01
1.428321925465413922e-01
1.424058678889983942e-01
1.800557146761251059e-01
1.198626028393850185e-01
9.525037810441293329e-02
5.331131938643514367e-02
7.205836672077142735e-02
1.899302359605166968e-01
1.693245136915254578e-01
2.003995772881038417e-01
2.874536868957490721e-01
2.697676204929069788e-01
3.321099674982471162e-01
3.521767314205093147e-01
4.136085735662805574e-01
5.528026582870860794e-01
6.349636894470120918e-01
6.696214883562335851e-01
7.708042894461765160e-01
8.959682368176722367e-01
9.790480198532378608e-01
1.047182205004886457e+00
1.105916193953418780e+00
1.112839833115852217e+00
1.210412986548032643e+00
1.186882088847230898e+00
1.150696985280676543e+00
1.164068788837973267e+00
1.099499210104790681e+00
1.026473508372438115e+00
9.402430471057551253e-01
8.210897489480791789e-01
8.052523586171865810e-01
6.937315803008933246e-01
6.052335031065896320e-01
4.880798631850676861e-01
3.517814727172015044e-01
3.779704790863233632e-01
3.443769499283018121e-01
3.047089341349333846e-01
1.719229276559895991e-01
1.842533955939096857e-01
1.514909460523403695e-01
1.418798703203912603e-01
1.201968802535362257e-01
9.860458143319662805e-02
1.528564878599381616e-01
9.119298993241152507e-02
7.620977466048139970e-02
6.412078050419900421e-02
1.125810633156553858e-01
7.966973344396424683e-02
1.452542866136439792e-01
9.640282782410919404e-02
1.127874004127508989e-01
1.197990518442137303e-01
9.411567597277620267e-02
7.013771599533813461e-02
1.757338485512139892e-01
1.319197208246335185e-01
1.533578889353185426e-01
1.294581885313249303e-01
1.078237382598040972e-01
1.324112419002343444e-01
1.752822945586081094e-01
1.553958252794905293e-01
1.231972908932441463e-01
2.250518828281403427e-01
2.216720455324773797e-01
2.064868753448827476e-01
2.370679954976129822e-01
1.907613317702729350e-01
2.109673738119923203e-01
1.885999124867961119e-01
2.667822137347395373e-01
2.856395101242082957e-01
2.742075654861299006e-01
2.735606548218255663e-01
2.664061060141477699e-01
2.526812970694515270e-01
2.317568670256232033e-01
2.705485064670000162e-01
2.639392043088585882e-01
2.184251393376048789e-01
2.795354827056089619e-01
2.603658726380129740e-01
3.043018138775941961e-01
3.050053101268681011e-01
2.389746215783760952e-01
2.954870853081082993e-01
2.556621120460038088e-01
2.322657257665625696e-01
2.553306055245345707e-01
2.484683820681072297e-01
2.702769464645106701e-01
2.658787413765440477e-01
2.601453131656632500e-01
2.452271539812476697e-01
2.724062010382914956e-01
2.657864995116651086e-01
2.174853851545663630e-01
2.180783098158510791e-01
2.684995861091134528e-01
2.507976851423408537e-01
2.373950163126236634e-01
2.396760255124652517e-01
2.482248130558240007e-01
2.530134009176151499e-01
1.828867824421687716e-01
1.695098424878315746e-01
1.851123428397820903e-01
1.827934796135112783e-01
1.371045067813420337e-01
1.782135635063097356e-01
2.012498739142679349e-01
1.881951794718931537e-01
1.736357778919553341e-01
6.459368634895698569e-02
1.419155318566470980e-01
1.030489860138664310e-01
1.368843546756511320e-01
1.353509306944954416e-01
1.036945933029776445e-01
8.647062265605842679e-02
1.155660576224535607e-01
6.117706043417293210e-02
1.173896034048730608e-01
3.615882938437976063e-02
9.370814413843844837e-02
8.361567504610799284e-02
8.418902604958901359e-02
7.809906196182533900e-02
1.068262531245053049e-01
1.619833744427905814e-02
7.614385585434063630e-02
7.308786281419007991e-02
2.284291851998918044e-02
6.163146375428854573e-02
6.631880676314515222e-02
4.106238038882036728e-02
3.971034199605243120e-02
5.046079445887136083e-02
6.216156952463069985e-02
3.498449246782495831e-02
4.773721370631561767e-02
4.304025986947711269e-02
9.756474820953904559e-02
7.231799626043650120e-02
-1.969573553711694708e-02
-1.382114789946389116e-02
1.850918957288529010e-02
5.711370419756338357e-02
5.297482073244007272e-03
4.303552275084967377e-02
3.882866440434277339e-02
2.612241677474850046e-02
5.666912924537048646e-02
5.790241032091326956e-02
1.734994407575761455e-02
4.927103323448798339e-02
7.143337265100038747e-02
3.461965834720358987e-02
8.547413409619808444e-02
3.690764092534930263e-03
3.584379293860272958e-02
9.799012090496997396e-02
3.593131594461016626e-02
-3.663836020639191920e-02
8.419515010962630441e-02
7.887076562502143284e-02
1.485949796823706620e-02
6.194578250170175437e-02
3.994241567919686042e-02
1.279728739298325452e-02
1.547470117452363902e-02
3.659331549409419043e-02
1.656167522359131700e-02
2.762364366208896332e-02
5.928658322980616402e-02
1.033130658149094827e-01
4.554773774928093377e-02
7.457410982155091017e-02
3.420729935171575725e-02
1.213929853923755714e-02
2.554020579862178314e-02
8.348277289028505077e-02
5.601621766516556855e-02
9.280962113325338936e-02
9.948856131019101490e-02
6.015894405961686592e-02
6.311518993988324278e-02
4.793822881252694790e-02
1.073306402996614672e-01
1.232742885471925370e-01
1.119626717950771844e-01
1.165238751490070279e-01
1.136945172774967983e-01
1.970750452702911271e-01
1.408545425058110312e-01
1.110944146794833054e-01
1.357346603230567550e-01
1.470032054407942601e-01
1.605941097083318225e-01
1.832207588817534039e-01
1.772291242099829356e-01
1.379853017029646356e-01
1.505571909743425585e-01
1.691828586036408510e-01
1.415448527613152596e-01
1.544460867905224910e-01
1.374636239499617552e-01
1.816177105614129594e-01
1.328760061263973558e-01
1.771046863126992110e-01
1.935010905307235907e-01
1.931137916510299313e-01
1.695794535846396611e-01
2.444506273509836070e-01
1.954972351205753744e-01
2.061003657223650920e-01
1.977812455054852592e-01
1.612210765521123468e-01
1.620571169717339166e-01
2.361614834358068404e-01
1.540832179686335013e-01
1.936692066450193817e-01
1.452432855699072323e-01
2.070674753915013322e-01
2.150224862123661651e-01
2.112389767221584669e-01
1.887194624981535784e-01
2.116738213893999410e-01
1.904782016325927418e-01
1.586348298471954577e-01
2.213458380397627379e-01
1.914989635772059717e-01
2.040330038373057986e-01
1.606876153095201931e-01
2.728292408197824370e-01
2.766626346041587969e-01
2.768291201952100544e-01
3.185537729059065848e-01
4.442785913169806089e-01
4.994305123179335615e-01
5.849025778872490866e-01
6.317606459634433902e-01
7.270020121339617614e-01
8.486754250547596801e-01
8.623755095491236755e-01
1.025164606907377651e+00
1.091469884415579905e+00
1.142085092865629203e+00
1.136807858365816770e+00
1.265317825012442166e+00
1.211082368780071583e+00
1.212814466029005223e+00
1.231794966815211945e+00
1.170243329085910444e+00
1.119198206263473994e+00
1.033490311179238175e+00
9.135206536391969889e-01
8.334582774622858459e-01
7.199551711061250581e-01
6.822233570761554455e-01
5.751650605080180778e-01
4.574564325995132408e-01
3.879964560182171396e-01
3.275203053785915586e-01
2.675345091838314815e-01
2.412859114164508378e-01
1.812948288766541294e-01
1.713822233783923732e-01
1.453981984351634948e-01
1.688907578308724289e-01
1.415649885116017082e-01
1.260654496335907593e-01
1.035859516350181031e-01
5.768061930437069773e-02
5.649917737535859602e-02
1.529466869271221552e-01
1.413310828775828920e-01
1.417343193128258738e-01
1.672011374346441537e-01
1.309596968178293463e-01
1.299153857984185201e-01
1.507186877075352704e-01
1.673412815847269142e-01
1.674631418205272115e-01
1.941697138077390916e-01
1.993188270516591809e-01
1.759977390574899714e-01
1.387606532876617671e-01
1.321497034370938684e-01
2.460986411329026402e-01
1.477409566980665279e-01
1.687968067946104267e-01
2.079039434782007367e-01
2.216035425949023918e-01
2.384739642940303106e-01
1.839941551063007663e-01
2.669021276733319903e-01
2.684351990877768546e-01
2.205793275909500584e-01
2.422243342632838525e-01
2.905136435919438709e-01
2.441353150233344926e-01
2.295063870704577846e-01
3.081624532061353894e-01
3.032459052268524080e-01
2.878871019580471757e-01
2.530542776043551711e-01
3.451969644532019710e-01
3.316016820894888695e-01
3.302266068109734887e-01
2.779770044528380168e-01
3.604833720331449554e-01
2.687115375946600992e-01
2.501999872401359792e-01
2.651768464255899183e-01
3.509694608309119612e-01
2.997918452003983658e-01
3.046832268504732211e-01
2.792863450697967709e-01
2.809388146229267469e-01
2.729305853559354511e-01
2.337721531381165563e-01
3.447773852206873491e-01
3.028953297749883422e-01
2.840719145830049031e-01
2.403917584072779723e-01
2.238386343559720659e-01
2.170020429067333612e-01
2.273281261235909900e-01
2.438664487356322352e-01
2.667597551477767226e-01
2.643984088328060755e-01
2.171746363466998675e-01
1.814829768487868644e-01
2.653082501936916970e-01
1.739198434717988961e-01
2.429794893158918612e-01
1.984945617724943046e-01
1.080962685750106733e-01
1.862560453670160654e-01
1.460780642816127683e-01
1.300061845440236841e-01
1.477115042823031188e-01
1.175633376336727431e-01
1.515064922865873576e-01
1.026631813966743939e-01
1.784918442910894687e-01
1.158930521931929580e-01
1.277977036924066168e-01
1.243386277904601767e-01
1.136132094324692199e-01
1.353596270257004797e-01
7.310789042821110029e-02
7.653260751939433559e-02
1.366320499024087920e-01
6.838935493487915962e-02
1.013611398199926183e-01
1.269033026081298199e-01
1.080053890128048477e-01
4.470412539961620552e-02
5.108017322232697582e-02
7.722777787872703303e-02
8.273453232307104166e-02
7.571035083928306930e-02
7.776982187596150065e-02
4.824107304677605068e-02
4.797923422482722883e-02
4.120706652635180295e-02
3.169150193289518858e-02
6.491227188259884873e-02
-4.251580254570980211e-03
3.586904553321310085e-02
5.088841838208369578e-02
5.893789177121991352e-02
3.202445731477542024e-02
1.040184035503546600e-01
3.556915881371969235e-04
7.100920690589032636e-02
2.357410896039636647e-02
3.683234461419535033e-04
7.440110600101590421e-02
9.230208786907508067e-02
6.302465403476278927e-02
9.209993192152221564e-02
8.259147169441152792e-02
4.416487455467544426e-02
1.855424921352508139e-02
-1.700788884033953979e-02
-2.730189050931156047e-03
6.949305866716835867e-02
9.037537431714087743e-02
4.108943422657585637e-02
1.903331777066943203e-02
8.462401084057574741e-03
3.962455072131497447e-02
6.765384609021792006e-02
3.572173798092925096e-02
3.364047420810808986e-02
9.239990366593171800e-02
3.886045883374335957e-02
1.949144307089985956e-02
4.288824731379021343e-02
4.389132851949283792e-02
2.144964578197215352e-02
-5.399625883419481576e-02
6.293357272656241452e-02
5.316163925849169691e-02
3.686353103064694825e-02
5.543692202960587290e-02
4.173528985597653451e-02
6.212342736589619024e-02
5.366763032439878650e-02
9.406742016805885731e-02
2.571680254082796616e-02
2.327361377450721039e-02
1.104726550963386067e-01
4.838138749182475939e-02
1.344274508731661544e-01
9.749362415206049015e-02
6.314213180434966044e-02
1.272418918583532177e-01
9.783681140105457419e-02
1.055916861942787777e-01
5.498790839743437908e-02
1.162034851637795269e-01
1.357955256407157030e-01
1.269928110378009123e-01
1.398410992339946257e-01
1.701517479698248514e-01
1.111208302636627621e-01
1.419547009277880023e-01
1.200921099113325952e-01
1.207507505201001474e-01
1.306729276677110752e-01
1.581649259240869299e-01
1.654577720793820594e-01
2.008142584597281399e-01
1.275385171892223501e-01
1.934381606301769640e-01
1.546853246617127808e-01
2.179481545148414801e-01
1.459579505357365969e-01
1.581656493919673112e-01
1.622030105759194041e-01
2.249870520870740909e-01
1.696582876542734875e-01
2.012789169234707465e-01
1.877507449504683956e-01
1.523572020947076555e-01
2.086530371346254076e-01
1.839134917533466473e-01
1.231722277831144297e-01
1.823288517161664735e-01
1.568965946278403356e-01
1.527577823442976823e-01
1.774474057040763830e-01
9.398439993437830708e-02
1.668089344250918149e-01
1.305232017211403472e-01
1.818231071471354821e-01
1.239496327114502916e-01
1.957534469779021735e-01
1.574990810128347740e-01
1.936571873008818279e-01
2.400313943620751567e-01
3.359681184031196310e-01
3.007775529791706370e-01
3.836756356842432325e-01
4.330134613666110077e-01
4.995994111725275411e-01
6.145166490208135990e-01
7.786426335412025557e-01
8.358692511286028859e-01
8.971951025922656475e-01
9.911618051036309440e-01
1.038776319053134944e+00
1.102140735265214166e+00
1.137745987316522989e+00
1.182989075479850660e+00
1.180160176191658028e+00
1.230089950277921007e+00
1.203689700473886237e+00
1.070893322423036587e+00
1.097337980945631397e+00
1.008807316671820331e+00
8.587474650418011057e-01
7.927216951086224483e-01
7.057163297434659865e-01
6.114639057816747547e-01
4.939167301991295167e-01
4.369685873760597028e-01
3.950079698047079813e-01
3.371910977089143668e-01
2.558451538094305144e-01
2.092507296292248076e-01
1.927316199893298887e-01
1.505755588465740313e-01
1.132616100395638509e-01
6.442220318249254618e-02
6.941360392158496539e-02
1.037286025319682781e-01
4.093299563544389175e-02
7.377680520366762529e-02
1.003330508971418400e-01
7.570487904763659182e-02
1.140391566294381154e-01
9.581447081099130070e-02
1.162123453889699898e-01
9.516367216548750341e-02
4.847209305045592498e-02
1.128261759975408007e-01
1.348457771653061299e-01
1.126668668595363354e-01
1.123567187630340886e-01
5.741084162892316767e-02
1.348219703964850802e-01
1.061240224807145777e-01
1.653741628007847075e-01
1.128300097382032713e-01
1.599819764267910449e-01
1.915091226081421238e-01
1.759584702047613802e-01
1.856658757204057431e-01
1.902437899513955144e-01
1.941154636274776413e-01
2.348732624645449296e-01
1.967754920992268175e-01
2.678753919488697233e-01
2.283019765681950919e-01
2.063662574274487127e-01
2.702548468525520775e-01
2.116569371242560393e-01
2.074735014807370104e-01
2.649681164290784707e-01
2.296422383298073189e-01
2.032309185654715966e-01
2.427096033676037767e-01
2.810739833123644948e-01
2.721572384132013300e-01
2.162442079962955677e-01
2.861636780822286452e-01
2.787348292161135888e-01
2.324748621578975327e-01
2.091321689120214655e-01
3.060604068843307823e-01
2.680206410549353935e-01
2.362223552713451913e-01
2.576414293679756828e-01
2.358132495144874552e-01
1.980264299030449759e-01
2.339345847892829733e-01
2.344361090113369350e-01
2.351938776162435241e-01
2.152871277119737525e-01
2.222473269110168126e-01
2.752304547633299681e-01
2.034508642960269342e-01
2.176055414915615549e-01
1.665770931139227695e-01
1.722479570802609161e-01
1.794595630628309790e-01
1.737218987386427993e-01
1.704649042808779047e-01
1.632405462501955451e-01
1.612042344761893953e-01
1.419903275593913661e-01
1.322517924647224341e-01
1.323908346147254500e-01
1.217991797549816263e-01
1.196984156606814981e-01
7.262342535728499859e-02
1.030616530256384944e-01
9.291786421478052949e-02
7.864425271860073230e-02
6.966005770126337815e-02
8.360199788341278471e-02
5.065622899114709254e-02
2.617999373367686788e-02
7.657751343555607715e-02
6.635552512330536445e-02
3.539423479376829079e-02
2.604949070812459175e-02
9.950042277750278941e-02
9.320393744424010363e-02
6.701303173434804139e-02
2.130495184845413587e-02
3.377606169541105124e-02
-1.887100373945668763e-02
-2.785186882376658110e-02
2.392126563646440607e-02
6.158572484947068271e-02
3.314195281739477222e-02
1.988838334230599511e-02
6.445181600506411090e-02
2.383247446529914923e-02
1.096608151726110106e-02
5.530428449476688067e-03
-1.975595860192085051e-02
-5.627337884053768002e-02
5.535622438074347396e-02
-2.186837407290431398e-02
-1.502420260798449647e-02
6.074637117665676600e-03
1.681759700027482540e-02
1.088363594097790585e-02
-1.058928000938820502e-02
-2.897030681615674064e-02
1.066840290790276383e-02
-3.577621509111749733e-03
-1.560132377606043147e-02
2.552087273280573970e-02
-5.332192890119474143e-03
4.028786060021737059e-03
-6.936901110233797962e-02
3.342874076950087814e-02
1.036905768142065004e-03
1.140176441467553523e-02
-2.400680919700808047e-02
-3.407033117990408699e-02
-1.417423186388773806e-02
-3.212707581473801810e-02
-6.766786206899567252e-03
-6.706745690225259827e-03
-2.549566651031389547e-02
7.484723587122698099e-03
-1.548463811969304042e-02
-1.157774382182749119e-02
-1.510994050149340809e-02
-4.213841905556989231e-02
-1.971990919241381479e-02
6.628360009535660263e-03
-5.172801173994093227e-02
1.101030180809227203e-02
3.509773967779529491e-02
2.183377778688534721e-02
-5.702734287390242435e-02
-2.235400009148226508e-02
1.684156330706452348e-02
-4.886392104442436463e-02
-3.361902695829410703e-02
2.071301704285175710e-02
-3.688913830234888391e-02
1.733176812785502952e-02
1.607921622475397272e-02
4.535894363775634652e-02
5.192191816282328010e-02
-6.212842918381398377e-03
-5.272144816021586550e-03
6.476299857919605441e-02
2.450666475382052081e-02
2.526273188739835279e-02
3.758264319933374287e-02
4.529676711497152009e-02
1.571881880215847752e-02
5.701870569020429935e-02
5.117127142929037142e-02
5.835290226576791972e-02
3.613401293217775173e-02
8.208138137700311809e-02
1.120240134976120960e-01
6.517545591870163579e-02
1.068557606692308870e-01
1.275050320771440870e-01
1.250216565446615469e-01
1.455954542261437001e-01
1.442808194848232139e-01
1.058259494483698854e-01
1.290800852541661714e-01
1.645301688448275179e-01
7.684147781677989897e-02
7.529508332562570572e-02
1.177374203506858230e-01
1.451535668760459141e-01
1.072154521651642600e-01
8.584923820550090234e-02
1.192552348411815566e-01
1.379872546361096408e-01
1.363523603339038548e-01
1.133448960322476634e-01
7.579163857797530102e-02
7.571527222284274439e-02
1.056363613758586756e-01
8.581259310886715785e-02
6.706125001897306204e-02
9.183826428862507107e-02
7.511331698132625578e-02
8.256172129692793127e-02
1.308186327767460744e-01
6.305332606371520654e-02
6.053253044533558197e-02
7.231460629972895349e-02
1.135835643163647657e-01
1.680159827152037655e-01
2.392670367663224384e-01
3.083201372331415002e-01
3.562720779625805356e-01
3.203110032608078583e-01
3.907055864293214609e-01
4.792506441145996110e-01
5.591272962437825456e-01
6.386385857321169590e-01
7.382399188982942118e-01
8.889008601308350244e-01
9.537819430805097864e-01
1.005215442258752923e+00
1.105467472229365145e+00
1.112016148661591375e+00
1.145499761531119098e+00
1.176412279577012443e+00
1.137469675369339850e+00
1.068883629860183371e+00
1.063301687730121348e+00
1.010979984277374788e+00
9.069433515067073515e-01
8.112716583817087823e-01
7.378632027525028336e-01
6.485255050960890832e-01
5.834488307713847632e-01
4.200920272392246746e-01
3.981756285529697292e-01
2.944115065063019343e-01
2.721596310689535780e-01
1.631405442898143376e-01
1.324133514562165770e-01
1.704445221990130155e-01
6.554819168047565370e-02
3.287999728350225054e-02
8.606384696284874458e-02
8.854050688659576007e-02
1.057322731395112653e-02
7.281359816554364150e-02
1.918835714703966827e-02
7.043684218911766548e-02
-1.353739152791760825e-02
2.843263953364126573e-02
4.672537584497306329e-02
6.819389927688426778e-02
7.815740092266465489e-02
9.379740361365257462e-02
1.004295851443955112e-02
-4.587618454350773922e-03
6.652391466470780612e-02
6.160417177301358294e-02
1.099435109867104993e-01
8.680550173545635573e-02
9.628792194490512490e-02
1.379456138289197609e-01
9.322957463879194551e-02
5.163920560248156516e-02
1.056872686701489095e-01
1.404166101761854801e-01
6.356135506132706836e-02
1.220390326381440294e-01
1.753858067606614557e-01
1.627781430670129370e-01
1.654875994185397992e-01
1.456516387989552075e-01
1.750301212621376001e-01
1.791739979103817992e-01
1.387415934290738284e-01
1.617017063919788666e-01
2.142135967585513945e-01
2.139670839903373423e-01
2.246308445017184963e-01
2.646666552342921142e-01
1.961048862679882765e-01
1.631386442305342022e-01
2.115352363272499092e-01
1.811450129815891652e-01
1.605239660044330274e-01
1.178176471534053693e-01
2.310681860245579478e-01
2.366600434470734204e-01
2.048951218577259592e-01
1.872424525521267369e-01
1.864615258767665096e-01
2.035430586423969679e-01
1.593716857857450930e-01
1.834676163251575398e-01
2.108163413661099383e-01
1.800056877654527543e-01
1.822671536925064284e-01
1.388274646268691515e-01
1.826708443635191026e-01
1.303839228424887586e-01
1.433907318136053710e-01
1.762600248619423660e-01
1.370798735139032165e-01
1.469406567972772470e-01
1.367044541911426880e-01
1.196374802295160078e-01
9.583953092128053020e-02
9.204969195051732056e-02
6.985159068616658695e-02
1.360583344729070221e-01
9.152078111275718797e-02
1.105616362375914236e-01
4.969731449207206997e-02
1.353466186845998787e-01
6.952955145503975087e-02
8.506776856307413093e-02
6.965907154625224085e-02
4.624719031467306590e-02
5.211725572266335399e-02
-7.268285005894811746e-03
-1.078918747560409647e-02
3.190005351141920326e-02
2.466203603023582602e-03
2.580997651067543086e-02
2.221919845730763871e-02
1.386880616579767161e-02
-3.147840315593387200e-02
1.307900440312349116e-02
1.057381367171739139e-02
-1.166220476130733902e-02
4.503586284672392998e-02
-4.569273285074628571e-02
-1.454635445564657348e-02
-1.134839481576043613e-02
-3.325324750051084077e-02
-4.877553383163155121e-02
-4.748032875374291750e-02
-4.137777923784180523e-02
-4.646159535693355352e-02
-3.663668954659632382e-02
-2.656042215643363708e-02
3.250371910383373364e-02
-3.454946823479228268e-02
-5.598643546832469953e-02
-3.484157650053533450e-02
1.644224471818875322e-02
-1.721901590802355983e-02
-5.747076582776060316e-03
-5.669442229007468081e-02
-6.023438367438704866e-02
-5.432305085924554744e-02
5.689658943540523706e-03
-4.862237622715794017e-02
4.608507109400895863e-03
-5.858033924583639501e-02
-1.691653411811203794e-02
-7.577847785654558133e-02
-2.342285336478510532e-02
-8.519865170929029341e-02
-3.373112231614176781e-02
-2.440783575901237304e-02
-4.044000791854358845e-03
-7.728276999123422086e-02
-3.214551008674781940e-02
1.515880584486394012e-03
-2.417947736522832805e-02
-2.401374935934907917e-02
-7.043642012110742923e-02
-2.952118143706957201e-02
4.495483716731488860e-02
-1.099858689494376957e-01
-9.726218165640040936e-02
-5.861653241718033092e-02
-7.775971700238962225e-02
-4.418489316851514914e-02
-3.687862691382419456e-02
-3.271832345446337026e-02
-5.279481885322691304e-02
-8.971507455315333446e-02
-1.327308205024236437e-02
-7.723201209111796306e-03
-2.904337442920966808e-02
1.167539593171010304e-02
-1.090876789944968811e-02
-5.416681726967491339e-02
-3.901168574346483564e-02
-7.675662779308183026e-02
-7.408777941998004324e-02
-3.481556042025220343e-03
-2.514796350981842246e-02
-7.469771121719305518e-02
-2.239379513497348137e-02
-5.063819397504949749e-03
-2.791064907575699361e-02
-5.939255412975846804e-02
-1.354125884525957113e-03
8.446571086560827890e-03
-4.905723549585887244e-02
3.232414787403242035e-02
2.356202372157466945e-02
6.892971782203723141e-02
8.344345750608313239e-02
8.925338273617453022e-02
3.965593474642474525e-02
6.075224250840902118e-02
1.433050952827111257e-01
2.783016301951055094e-02
4.120512041972152623e-02
9.833510852309967909e-02
7.101052141715655242e-02
5.978895047576648913e-02
1.036341766053535396e-01
8.313502500178196475e-02
1.226862002158363441e-01
5.346402901163976179e-02
9.027173098690380315e-02
9.350518136619563603e-02
7.675537017144298813e-02
9.225068518890502944e-02
7.430624831059144675e-02
1.290110524461079156e-01
8.090845623076484139e-02
1.121238238953593674e-01
7.503877247697175734e-02
1.146995238433265729e-01
7.884236417326420665e-02
5.184395236760348802e-02
7.338585909752255720e-02
6.192436620392471891e-02
2.123681573148766821e-02
4.831722197458040297e-02
-2.621737215465653331e-02
6.677186238444927924e-02
6.603207697199167669e-02
6.561483744333210244e-02
1.115778720714447614e-01
1.790920980394529183e-01
1.843280263370611349e-01
1.985355377232230212e-01
2.412324306562782239e-01
3.042725467203076239e-01
3.490614325932700490e-01
4.954302960800456290e-01
5.781166786912836919e-01
6.862776417758145175e-01
7.873456207866222911e-01
8.495363876052750562e-01
8.859477883475183058e-01
1.000722429186544193e+00
1.039301429240349517e+00
1.129480662991820372e+00
1.185919625226852903e+00
1.153767089226274578e+00
1.121219262516609305e+00
1.091724391447509435e+00
1.110019529421774509e+00
9.829894460896744235e-01
8.872681016155511413e-01
8.094245188811987068e-01
7.579674767822869308e-01
6.203906412959276917e-01
5.234148120958980188e-01
3.959858469234254219e-01
3.441952538781876680e-01
2.239229090379045439e-01
2.717714683549923294e-01
1.825702319997333789e-01
1.066978981535921384e-01
1.198272917519804248e-01
1.240979399686454321e-01
2.608226639533346713e-02
-5.240356237009878571e-03
2.079359966105381874e-02
2.819725835810699827e-02
-1.121691660655762396e-02
7.634847865144588075e-03
3.771335456445255863e-02
-3.077803338845433445e-02
3.822950424193380381e-02
5.621152423261261549e-02
6.362457197669629805e-02
2.069542540684972398e-02
7.226428488282882201e-02
2.676478993289406472e-02
3.565725474822718788e-02
4.999459099313902782e-02
6.622615833289569043e-02
1.069832406277304582e-01
1.035284526451558107e-01
5.764822035398714517e-02
7.690818537963167723e-02
1.126679672525185971e-01
1.551413594512660588e-01
1.305691032817399289e-01
8.583541412666614856e-02
1.013159876842064933e-01
1.156134529672640382e-01
1.687865683845053422e-01
1.390174395096611948e-01
1.692733609547708018e-01
1.361582926271283911e-01
1.675718924508382279e-01
2.228363475129032933e-01
1.978134972235762457e-01
1.577730354670866253e-01
1.970840668617703795e-01
2.178844361959046683e-01
2.642573446407326943e-01
1.602629395193442274e-01
1.951703133439461335e-01
2.005497407490162420e-01
2.317345912827828147e-01
2.063079163578063202e-01
2.296218818026374842e-01
2.300273345957387361e-01
2.066134731378410638e-01
2.576461017465199177e-01
1.642347443616804792e-01
2.176320279224374654e-01
2.223265655633726301e-01
1.946470200074946755e-01
1.884293951310321569e-01
2.119953690567942250e-01
1.927479948290155010e-01
1.233293919763729651e-01
2.114968930235707478e-01
1.881188927596248450e-01
1.670179484092045585e-01
1.689887412868389671e-01
1.917490217020044740e-01
1.034235780989426201e-01
1.889757816938925361e-01
1.678598912219735340e-01
1.726955394939128086e-01
1.167477724685377083e-01
1.082527871815530673e-01
1.070533473416039882e-01
1.000515382702469314e-01
9.340300119278208135e-02
1.075434302905486639e-01
1.044656540411214862e-01
8.847119485253651661e-02
9.640580269085635701e-02
7.583097061793291072e-02
5.738112821690243004e-02
5.922379351504164502e-02
1.598695596500950694e-02
4.737156225712756130e-02
3.953814635040369535e-02
1.406813187082437550e-02
2.296140908880650588e-02
2.817712941856641284e-02
-3.213229194031032993e-02
6.471171234072260747e-02
-6.831309291343158618e-03
-6.352531656583806918e-02
3.848964240994109248e-02
-3.491130461185973366e-02
-5.995034751942099338e-02
-1.449007180825888363e-02
-1.008390251354436551e-02
-5.147117340374694761e-02
-4.385965030069860493e-02
-1.532784152339435046e-03
1.986695744506642575e-02
-1.538416707850913043e-02
4.833525585614326797e-02
-4.141570956246662383e-02
-9.073557784962930917e-03
-5.509381190252519989e-02
2.598846868700533524e-02
3.260251237626053677e-02
-4.045973899243850147e-02
-3.408094730573216907e-02
-3.354111926389827941e-02
-4.057500952816224526e-02
-7.761343658059241535e-02
-8.908603204677684184e-02
-4.222318831927689142e-03
-3.384261859934129674e-02
-4.520962957749846689e-02
-2.548097824949172377e-02
2.486887790624855293e-02
-4.683616191742691337e-02
-8.488967746494836819e-02
-8.811668945918746387e-02
-4.112748694696235358e-02
-7.179684166006694568e-02
-5.501886340395038821e-02
-6.041761679930478246e-02
9.675760486214990408e-03
-5.895432696156385766e-02
3.006206051651582820e-02
-1.869821321684496385e-02
-3.548267146053916271e-03
-5.234671150114763444e-02
7.277617949600079239e-04
-6.258209532128485020e-02
-2.821027206724514846e-02
-1.404909534249184667e-02
1.263833292211059833e-03
-2.005417282153359321e-02
-1.095229745695324927e-02
-4.636480788295136574e-02
-1.840301902174488330e-02
-1.252615780791247781e-02
1.288917096879322460e-02
-4.528219521435293549e-02
-8.848606197429850773e-02
-4.945760345474871367e-03
-5.226608183084086034e-02
4.561139732019264814e-02
-1.105596979308189759e-02
-2.762227398428899333e-02
-2.431678938146947244e-02
-1.308723642748528537e-02
-3.558974117497439027e-02
-2.756036762353115260e-02
1.568892492343519976e-02
-8.734223968817118877e-02
-7.767126695001924652e-02
-6.358888193487943763e-02
6.693688767860014877e-04
-4.888181897410862065e-02
-6.253942198668335783e-02
-9.157006296742542517e-03
-4.616459252866605967e-02
-3.010618130575870577e-02
-5.070071467248440239e-03
4.979689366192592559e-03
-1.654072752136800245e-03
2.054723858442540629e-03
-3.370168395983524912e-02
-7.731076589579279068e-02
-1.227879521250751713e-02
-6.502922830114993280e-02
-5.938723758722420920e-02
1.088405883962524634e-02
-3.680355326407105943e-02
1.254265572929493325e-02
-3.514434972574897315e-02
-4.327004406808115933e-02
-7.406245247451528901e-02
4.561842328247775469e-02
-9.506246167426455826e-03
-5.274935150289208896e-02
-7.533735948967659746e-02
5.840267977390872778e-03
-6.319784945753256777e-02
-3.194558493094631219e-02
-2.549820633379426549e-02
-2.064927808883834301e-03
-7.697804495323204432e-02
1.422916644729874808e-02
-9.071212417391739946e-02
7.513760244345548539e-03
4.432368345620954497e-03
2.586753713627610793e-02
1.804001193097955896e-02
-1.128902041535779534e-02
-5.696903673558170733e-02
2.465774820460599204e-02
