1.064904906736404921e+00
1.111698398504696872e+00
1.064765334734022684e+00
9.806402483502197898e-01
9.472872163117550537e-01
8.641443797768619817e-01
8.180561998235230670e-01
7.004665159191216794e-01
6.141264381441357001e-01
6.039305043508109705e-01
4.612577852111504617e-01
3.817711461126495065e-01
3.291709408557906835e-01
2.859962868728961327e-01
1.966705906762216127e-01
1.233277332203598919e-01
1.221370810001651402e-01
9.163141903785031184e-02
8.300998085470959187e-02
4.613210781152637247e-02
9.415763836012906729e-02
8.776859653675599116e-02
3.300157225051360277e-02
6.034000771051130363e-02
2.765550411888234236e-02
8.938281504903887453e-02
5.590353785724644364e-02
9.122238644363921123e-02
1.106953421915363306e-01
6.154074658071025106e-02
1.033701299168072879e-01
6.068356045528591064e-02
1.139549462425105686e-01
1.118516968214976759e-01
1.290672178746944954e-01
1.469627822622580071e-01
1.466974164507436895e-01
1.417851483416195657e-01
1.236721275831094286e-01
1.271185999877019468e-01
1.548349435876634761e-01
1.681620925835183300e-01
2.139696071104794373e-01
1.879910549393100094e-01
1.630111633730929321e-01
1.892462737243011950e-01
1.643287124040914982e-01
2.149745552766290924e-01
2.015113889411764558e-01
1.859018626008374364e-01
1.867516059861960565e-01
2.254758013253445048e-01
2.603008278918644836e-01
2.673177745411957629e-01
2.183612462262806420e-01
2.155353600955208782e-01
2.487046167113673989e-01
2.328064966869359265e-01
2.451830561073922443e-01
2.584780216021676513e-01
2.478944258020406854e-01
1.807126585257955720e-01
2.580163703127439367e-01
2.578549368167300515e-01
2.420504070255809770e-01
2.367377016257434241e-01
2.115002512309660243e-01
1.969932402614996692e-01
2.607980889247545897e-01
2.283846302221219093e-01
2.590797283505350546e-01
2.435457999392939832e-01
2.686851629813880593e-01
2.332566545902845512e-01
2.205866425365819450e-01
2.714842255459552489e-01
1.895547885741009908e-01
1.670246328898159494e-01
1.786879857333249777e-01
2.496382748341408053e-01
1.384208370176952529e-01
1.825765849496576165e-01
1.714256968995652164e-01
1.891046952928417957e-01
1.789154268363935540e-01
1.396846473317808757e-01
1.434532407002236942e-01
1.805343805305097415e-01
1.277234436159607467e-01
1.389968038743204792e-01
1.670860844019495806e-01
1.120024649880519696e-01
1.469223619382343249e-01
1.067049023639567440e-01
1.105270312720767478e-01
1.171980339458030262e-01
1.003963198346507490e-01
-1.943177892661310247e-04
8.378246712999543044e-02
9.735595951638653656e-02
1.190083035422639934e-01
3.762369043882844710e-02
9.843559371192643626e-02
9.491251243149505246e-02
6.199486216081776663e-02
6.407015086333600618e-02
5.814400294115351642e-02
7.831965655423811512e-02
6.120059243442808189e-02
2.522776306311580452e-02
5.530114634527963369e-02
7.978032612518071165e-02
-3.179522786433547354e-02
3.518102779254396462e-02
1.731774251937596293e-02
8.024432448444132615e-02
5.776430006461964056e-02
2.658516431006512082e-02
1.816715464373593394e-02
4.358935276428184402e-02
3.741784826692989147e-02
2.558525815356833821e-02
6.855163708039817283e-02
3.176437047201013247e-02
1.069818776935867362e-02
-3.405572042601062027e-02
2.665807442722504736e-02
6.017680500126266346e-02
2.381907282472946891e-02
-2.981039133344465242e-02
5.518921697309066288e-02
-1.190195527083628274e-03
2.376936632393986462e-02
-2.346976752223903923e-02
-6.299643174746674679e-02
3.248751340154662492e-02
3.534693616496639712e-02
3.082405008034908023e-02
3.219371189914685405e-02
6.059316599884759930e-02
4.573031252963592058e-02
4.348566942182800071e-02
-4.506769896163834166e-02
6.269065454328116849e-02
3.581637733043147725e-02
-8.456033733043495648e-04
3.164958749831660312e-02
3.767274254506987330e-02
-4.055630536344473347e-03
6.372621179829127125e-02
-3.126105073396539397e-03
-1.410941209076310016e-02
-1.505393840098498415e-04
9.877833790928114421e-02
1.968643905430047386e-02
3.531581190826981603e-03
8.310334427983748218e-03
2.434899028551913702e-02
5.119672075271308742e-02
4.059003976442646100e-02
7.696796184976567590e-02
7.820028873626773402e-02
4.257775177431890462e-02
8.337681723875092765e-02
2.195739536768295114e-02
7.870405935478756720e-02
7.294844969730068795e-02
3.928162732153422931e-02
5.812863176115242586e-02
1.046636886125915378e-01
1.072913454393185084e-01
1.116929631612659513e-01
4.928693320130936306e-02
1.321653448723566215e-01
8.364559075159641588e-02
1.115444809796037329e-01
1.425756227910247309e-01
5.263621988824807030e-02
1.135507353166575750e-01
1.622369537194152112e-01
6.532859447398790820e-02
1.486447743979915914e-01
1.499415195715650961e-01
1.353251637971427113e-01
1.814725367198407324e-01
2.214472044159580266e-01
1.584355741807794427e-01
1.972198872206326337e-01
1.543472794481488275e-01
2.317908274864592111e-01
1.837166322123274520e-01
1.876890578865102188e-01
1.893707826795064109e-01
2.140525015957654154e-01
2.008724697398425740e-01
1.261004252908069501e-01
1.861925736041954993e-01
1.436761361286836292e-01
2.091982276057429146e-01
1.739817081062619564e-01
1.455650502058360440e-01
1.670348583328205017e-01
1.722959025694069113e-01
8.528129420989043197e-02
1.195428265802571943e-01
1.362159977156884028e-01
1.629339235902798610e-01
1.825428578093505061e-01
1.846408296507527913e-01
1.378207895938023675e-01
1.342376008102985629e-01
1.402018509380593136e-01
2.120920231009580381e-01
2.300363231684771081e-01
2.658468361446374439e-01
3.173596370900257924e-01
3.984954268363037899e-01
4.409807980110974635e-01
5.103457784561302724e-01
5.328173332005472496e-01
6.206589864562166436e-01
7.017409611308476070e-01
8.460281754133410770e-01
9.409073057904675519e-01
9.753516379367310751e-01
9.893039437477946230e-01
1.127933776315613867e+00
1.105725911923646221e+00
1.121909717412559182e+00
1.057345875587752060e+00
1.072637315207235709e+00
1.051662188642775275e+00
1.042351213485953165e+00
9.835424326507884452e-01
8.089997246276453557e-01
7.809825270258573537e-01
6.295831752127263314e-01
6.043096771647085141e-01
4.940404847357010576e-01
4.262698076047527485e-01
3.676249147497092640e-01
2.970887830287557430e-01
2.516860759146161697e-01
1.676498856357439560e-01
2.374924282896395400e-01
1.660224388950666263e-01
1.157693791707008202e-01
1.797871128121674711e-01
1.071532097322378391e-01
1.214567297252677341e-01
1.367755442725281656e-01
1.008936417364929838e-01
5.160020253728719863e-02
1.082880802013362620e-01
1.840121973919594534e-01
1.406036735886755651e-01
1.160626988415516814e-01
1.465220600584982713e-01
1.075406077022450085e-01
1.136445066103829726e-01
2.147897148740191831e-01
1.455725792173766797e-01
1.560741861354047189e-01
1.549563898208419777e-01
1.948352840283716358e-01
1.464327688436718455e-01
2.531136588557838518e-01
1.711145123138771706e-01
2.468415175333366074e-01
2.405487483653776515e-01
2.454884012233879420e-01
2.493123031637273501e-01
2.408252096700761735e-01
2.330894181418756705e-01
2.620387872275140029e-01
2.707472007657965585e-01
2.004578416141655772e-01
2.593222048994953122e-01
2.843938915405224144e-01
2.068126668630173304e-01
2.222855838147593799e-01
2.917603038334768972e-01
3.099116519442704498e-01
2.735768097432998425e-01
2.527813546647728060e-01
2.747391256089008471e-01
2.554967716061867788e-01
2.841328126525317077e-01
2.605358488756975843e-01
2.763776407066875218e-01
2.666979893654107814e-01
3.229563801276806867e-01
3.324794908837434004e-01
2.813615640626549452e-01
2.492166816950622810e-01
2.375147964462624439e-01
2.795084775754525519e-01
3.016223688193105934e-01
3.033477735482107973e-01
2.335840744900382904e-01
2.762156615677469618e-01
2.738238236893731914e-01
3.539080428499895015e-01
2.491725254386762956e-01
2.774428858701022405e-01
1.907201649722348735e-01
2.184198779462531992e-01
2.359998408270258252e-01
2.589164642207770761e-01
2.573096154223231680e-01
1.980140585820636678e-01
2.750444615241181001e-01
1.917607988591142343e-01
2.482431850331144330e-01
1.683235274485846422e-01
2.194966436172626767e-01
1.609012932329885459e-01
1.499763408333697479e-01
2.225997097327542806e-01
1.741338030692733130e-01
1.448974949296650272e-01
1.847792198209917691e-01
1.262554269200935608e-01
1.259219374643127665e-01
1.385085231950021201e-01
1.176954763536411097e-01
1.741346754509691397e-01
1.448141160412457773e-01
1.197106463460964471e-01
1.253108751689407385e-01
8.909999136441668077e-02
2.545444899109247650e-02
1.084561244196571850e-01
4.607800102239199141e-02
9.892049433250876822e-02
1.182140550138632840e-01
6.071335945057801387e-02
1.323459978154897521e-01
4.556743545037623966e-02
1.191575645654145560e-01
3.812188328770491769e-02
3.552986163314419965e-02
6.147896068523497903e-02
8.173664501169372598e-02
1.036055424809438907e-01
7.567377574471997881e-02
9.771137768853682681e-02
1.344334804627276420e-02
5.024316377405624312e-02
8.250625611434206363e-03
2.991114914377484071e-02
6.071576917063972734e-02
8.444168850377110902e-02
4.083762515374705915e-02
5.701222070473893622e-02
8.465943784947210782e-02
4.961801162957717171e-02
5.393848160573541661e-02
6.396027150331151656e-02
7.147986840633023531e-02
9.577739531271010909e-02
5.060941288209386268e-02
6.121948910790266790e-02
6.509606135023393580e-02
9.195946065157722948e-02
7.507565663616860840e-02
8.119440727794982604e-02
2.782899174955064114e-02
2.055668530915958497e-02
4.360261791304553824e-02
-1.460251710781777096e-02
2.852107652102470539e-02
2.249442102671247654e-02
5.680389454772463015e-02
2.526201834902811610e-02
-1.747428802622436050e-04
7.363976062233823505e-02
4.225947245475848019e-02
1.064244477389421767e-01
6.541828736089728979e-02
2.198121928336114334e-02
5.014533706924742540e-02
9.540141821390185628e-02
2.659336166381745178e-02
5.691786105202435719e-02
8.510830793311904841e-02
5.682643718113494780e-02
8.142263173558483835e-02
9.742198622363867910e-02
5.093766502946631136e-02
6.802866262325617253e-02
6.832635506943640635e-02
6.061400184465946805e-02
1.125100114407294738e-01
1.098525373109639769e-01
1.257730637963662412e-01
8.610966866907393547e-02
1.406427283491375746e-01
1.101535426353995317e-01
1.743027857299728756e-01
8.935525744704041207e-02
1.490636736584488586e-01
1.614696393295821097e-01
1.844558265227819738e-01
1.660594497980987239e-01
1.355697786202499089e-01
1.207890023762285547e-01
2.104110071382096769e-01
1.527481806371747131e-01
1.827480175904664383e-01
2.056507950533545404e-01
1.631006638495780814e-01
1.341300681694719832e-01
1.824494610500291825e-01
1.969342910391855550e-01
2.056078709128382198e-01
1.831579443182481115e-01
1.862283087086380462e-01
1.757162930858870431e-01
2.182366307421234608e-01
2.074479425693866730e-01
1.455589503843481292e-01
1.218612289723997877e-01
1.931655997644183276e-01
2.096809153090096467e-01
2.079604286895256615e-01
2.043685309242246617e-01
1.963323674859742407e-01
1.465362111596020533e-01
1.116087936659556634e-01
1.976679631003255000e-01
1.740689465900844279e-01
1.298139948682287270e-01
1.780103512951396738e-01
1.500834146968018645e-01
1.640206598196300158e-01
1.817049791084585086e-01
1.018829422032137832e-01
1.446950686511251083e-01
2.245382108431613066e-01
2.025886268247841238e-01
2.334344910006733720e-01
2.829178645172251150e-01
3.223155423239591477e-01
3.992864452427056232e-01
4.681302626533618838e-01
4.916337855034768056e-01
5.565743456471048400e-01
6.189353988555809094e-01
6.951053673204874439e-01
8.316757085286593520e-01
8.892824622305215421e-01
9.624587593667497387e-01
1.033011560793840378e+00
1.038376901769538563e+00
1.105972302691263565e+00
1.173737455662015483e+00
1.122431182312661146e+00
1.104576832582034429e+00
1.094865005375463163e+00
1.021406960682602172e+00
9.469810423966575907e-01
8.577991747365190101e-01
7.722330882621263326e-01
6.731003211902187866e-01
6.640995366391220234e-01
5.189381874086280710e-01
4.857463566527456811e-01
3.942365791030973954e-01
3.341779139710965296e-01
2.840540879213875880e-01
1.975156229244408035e-01
1.097858570216955210e-01
1.685815649689685058e-01
1.433239291573004948e-01
8.007000752788398512e-02
1.142332325271019633e-01
1.268763460603407611e-01
1.175786572170802458e-01
9.166957777306919408e-02
1.237003892131194882e-01
6.035727038776100839e-02
1.065478331400753070e-01
1.516075383480151584e-01
1.241551808544795882e-01
9.826800087549635021e-02
1.695450771588741246e-01
1.347973203564446776e-01
1.421728013874412888e-01
1.654018048617547088e-01
1.496190374768300024e-01
1.462552540384553790e-01
1.668581632276983640e-01
1.808254350538814059e-01
2.514780299756490534e-01
1.676984362818501051e-01
2.236653112959872125e-01
1.901661916765956806e-01
2.222830268036213586e-01
2.009251243809218879e-01
2.078628470219456570e-01
2.113775098001627328e-01
2.646620044513128822e-01
2.347859621604463376e-01
2.466518376312154537e-01
2.743996677147750307e-01
2.461488370561553951e-01
2.476179388314937169e-01
2.618159556014482137e-01
3.131965756744197749e-01
2.425988575449640472e-01
2.875240695973972360e-01
2.696711916781436846e-01
2.761811207931109124e-01
2.556079697511703386e-01
3.322527341406133483e-01
2.992080952289192797e-01
2.783908003545272347e-01
2.678933845947693571e-01
2.938264537934887621e-01
3.072714702272645870e-01
2.589030287881632919e-01
2.720901093128617054e-01
2.974881229315855524e-01
3.024681398358434747e-01
2.919831489885235110e-01
3.036019417255663710e-01
3.071845411179665586e-01
2.606193456523738239e-01
2.563570983863372454e-01
2.543263260335690834e-01
2.104757031109802945e-01
2.430575150499540982e-01
2.182641353707805987e-01
2.406937533747799951e-01
1.909064017392076706e-01
2.121944916140035553e-01
1.647317952031271404e-01
2.309803120235548457e-01
1.675551453178620032e-01
1.594591101295183277e-01
1.655396986493180567e-01
1.736035567876652030e-01
1.714450287092210701e-01
1.391150926543743838e-01
1.876981876011638573e-01
1.362545192166642882e-01
1.541375576194559949e-01
1.222733358510761648e-01
1.655530112025663247e-01
1.898887915098493862e-01
1.030392793592919826e-01
1.347876076184282568e-01
1.178303382688491996e-01
1.351568551713030475e-01
9.156479660020852562e-02
1.046581631726577200e-01
7.179680392200905870e-02
1.292431057494951852e-01
9.850202345014689997e-02
2.423120266868718231e-02
8.373352093390586115e-02
6.734706328396679320e-02
3.209568099531751040e-02
1.161707727083040181e-01
4.935912712190927698e-02
6.484109355379739925e-02
1.346944623027713714e-02
6.581084505796779005e-02
4.574215404290369463e-02
7.482659626679713516e-02
9.173606802349185130e-02
1.021743213832305430e-01
-2.304380791177791654e-03
1.055255176883782009e-01
-1.416592525375837824e-02
6.498451255689048633e-03
6.337085771810305190e-02
5.602169413306413992e-02
4.553133224382189398e-02
3.171253589524716809e-02
1.007101561121171752e-02
4.578906515887561784e-02
5.124591570207287505e-02
3.728798083117218498e-02
4.009137170915194615e-02
2.184892254206187087e-02
6.324159761068687269e-02
4.805462621041052540e-02
2.320112647279676948e-02
1.971453827844097187e-02
5.760702278719022351e-02
4.865789963409247743e-02
5.243260520569024974e-03
-2.034760245242102014e-02
1.262383133683143109e-02
4.080019009139533581e-02
-6.216159098462743782e-03
-1.678527008229248330e-02
3.371069662148233614e-02
3.923307374905492945e-02
8.445851706497914391e-02
3.927086808107996263e-02
4.401258186798379796e-02
6.967224576595595908e-02
-7.579106519940873032e-02
8.451056535268113012e-04
1.561138742140193506e-02
5.242695485215358164e-02
3.540919824669141319e-02
2.085523119219746119e-02
-1.433537724436837954e-02
3.599906370928289412e-02
-2.003287818358654576e-02
5.090878043983054074e-02
3.011885058679479935e-02
1.613417840198021203e-03
-1.611171673546693550e-02
3.118560228865269179e-02
8.389434157316200125e-02
1.717556114382573496e-02
1.887256537279499366e-02
3.772137638519761083e-02
7.545955324172562428e-02
7.697656075598394154e-02
6.106833116078762974e-02
8.079946969300104420e-02
7.358370689168292067e-02
6.432249712545651255e-02
7.104494879110567762e-02
6.827040202913942091e-02
3.736374966355382465e-02
9.862313585758653023e-02
9.415723852284925421e-02
8.820378076245029286e-02
1.229753547389800944e-01
7.594576873637286230e-02
1.410023920627056226e-01
9.917653031365272764e-02
1.070460418404903802e-01
1.635558767224993271e-01
1.712226669465459206e-01
1.586988515763362861e-01
1.756176907318004188e-01
1.615764196966723576e-01
1.968451541151194362e-01
1.566610531464529832e-01
1.317516034908165212e-01
1.326742138571989915e-01
1.413359689151633403e-01
1.370484607371208197e-01
1.635237645727554145e-01
1.337860053794461546e-01
1.260344037152547891e-01
1.350375248197134559e-01
1.216900753862550227e-01
1.291523983573769352e-01
1.673518519420497674e-01
1.587204636523862900e-01
1.180891869312963305e-01
1.129697821593153989e-01
1.279008486314043846e-01
5.900515430489354507e-02
5.923085502300622779e-02
1.046026498042130215e-01
1.497344027299194191e-01
6.557878182911772158e-02
1.939474767285511159e-01
1.656737018589259369e-01
1.820608044693924343e-01
1.791506298995834412e-01
2.491626047150410084e-01
3.466110525083884730e-01
3.981331663355525685e-01
4.364010331324032488e-01
5.643993381495067130e-01
6.443299501643955374e-01
7.126001025952477530e-01
7.829444683613812073e-01
8.514054185795227880e-01
9.348177426583839100e-01
1.030526406554898688e+00
1.092841925466687236e+00
1.080284863017852315e+00
1.158699603224899066e+00
1.086955612648625946e+00
1.128238247167030250e+00
1.001676855762051011e+00
9.955418043693537999e-01
8.877073524970389151e-01
8.277691361932184577e-01
7.328972933339589213e-01
5.997319294657036393e-01
5.821516174722177750e-01
4.674847389847633927e-01
4.272534999875197692e-01
2.845177342449475288e-01
2.551450132673235283e-01
2.092409383188221506e-01
1.883724366035810227e-01
1.259272237680006401e-01
3.931416870512662726e-02
9.219031222661523695e-02
6.457243467238403534e-02
4.875776183049657098e-03
7.087353354484746126e-02
8.088629803954996977e-02
6.460704708097664284e-02
5.822858417113930402e-02
6.787806572615955047e-02
8.217098761881418134e-02
1.124846115214015174e-01
1.140898250620750037e-01
7.720223898116065908e-02
8.941097657827207223e-02
8.714213380290970756e-02
1.158945840511090286e-01
6.450921353037730732e-02
9.770724691569823706e-02
9.582205984333304338e-02
8.267953962099461318e-02
9.193553741026089243e-02
8.042904359293238936e-02
1.647016264304266009e-01
1.963400473602744112e-01
1.996293695297116921e-01
1.779560604586369887e-01
1.629589380764079609e-01
1.432952794974041155e-01
1.741494085323070373e-01
1.765895308362038230e-01
1.350285590412002301e-01
1.693706445460277654e-01
2.012530972302578047e-01
1.426216681211078807e-01
2.059199560924917238e-01
1.407786269697096637e-01
1.772155175502168889e-01
1.686388028639735914e-01
1.777227688765344316e-01
1.568940230856854523e-01
2.504491652252947009e-01
2.629785343611534820e-01
1.643825226545531926e-01
2.139355434596669214e-01
2.649801708224209795e-01
2.243969596332558158e-01
2.606670056359504106e-01
2.483682918550015328e-01
2.874756310032911544e-01
2.764652117013463584e-01
2.239986075514967534e-01
2.725701482123107922e-01
2.402602794592471613e-01
1.965040320447314359e-01
2.134092649294092037e-01
1.823869137935786311e-01
2.582695465076214059e-01
1.959014907189866039e-01
1.569842810469818384e-01
2.146424485135123850e-01
2.053158661185191525e-01
2.401499566479195213e-01
1.979110849106728021e-01
1.435471135545415000e-01
1.821139460382876218e-01
1.535064124213804670e-01
1.242899661475630052e-01
1.624685916219248127e-01
1.464498182622695488e-01
1.225996645478062974e-01
1.082360671168468846e-01
5.054821900314798722e-02
1.672615949661457324e-01
9.836955957551080099e-02
9.089905778253878910e-02
7.930550501345226544e-02
6.039969101970718568e-02
1.151611935169749440e-01
2.432580716096643253e-02
5.915513790129971194e-02
7.767810957195220301e-02
9.276330354270559408e-02
5.634457080904702042e-02
2.584289678500852408e-02
5.958093272760937864e-02
3.285052652931297335e-02
6.685638844815194187e-03
3.705215387538390859e-02
3.664387905444294741e-02
-5.483128876193711643e-03
-2.657095810758915155e-02
-2.282905629256007027e-02
-2.711914794631110903e-02
-6.011540326834945158e-02
-3.947117346658557402e-02
3.190796521447608614e-02
-2.676513358378859730e-02
-9.253942835634226122e-03
-8.938558559148573890e-03
-3.259722783591305351e-02
5.756975198938450028e-03
-6.564097385364793535e-03
-3.477064658127601571e-02
2.352511428289826012e-02
-2.498171498119114778e-02
-5.534722388017742495e-02
4.284875426313113078e-02
7.492139150993906704e-03
-3.504378325277354711e-02
2.090053417867152388e-02
-5.756918645406182422e-02
-1.020216001486200924e-01
-8.293180826777958592e-02
-2.079734450106620475e-02
-3.968441643832053278e-02
-2.197082918952111830e-02
-1.306749239126061071e-02
-7.364539600108171297e-03
-3.089390817689367102e-02
-8.028444824155656079e-02
-3.291451956829773151e-02
-3.343774439928366010e-02
-1.519841039195495014e-02
1.539563476662853675e-02
-4.033335830708994346e-02
-4.978122877087015619e-02
2.763083727719300303e-02
2.029405735108270187e-02
-4.134609006128352193e-03
-1.256890364288512640e-04
-8.740129905471219485e-02
-3.144324202274444147e-02
-7.750105191899067658e-02
-4.036932208299758018e-02
-1.174846301790137548e-02
-3.267239379260063192e-02
1.563451743563003260e-03
-2.541318056288734140e-02
-3.708516535005648707e-02
-9.775510796655069445e-03
7.626702209247722408e-03
-4.947914917177825139e-02
4.887048074252386270e-02
-8.106482796658553980e-02
-5.700540076034307096e-02
-9.843870865324740038e-03
-1.828717120247036476e-02
3.270405797484604582e-02
-1.469694102669150820e-02
1.943160519767414551e-02
7.906959818850714528e-03
-1.901623227549933265e-02
3.904857014264635773e-02
2.791727263110797830e-03
4.280814469537715106e-03
6.137287548883818555e-05
5.180414052273697723e-02
1.318751082073255781e-02
2.904082564931048660e-03
1.065191831637475883e-01
2.621967664776533868e-02
5.592191240537445346e-02
2.482294448965641220e-02
1.063857310977466136e-01
1.008038305254048000e-01
3.506943232143808209e-02
1.778075792631850227e-02
8.904636669899246293e-02
1.102449492783259960e-01
1.041987109159737829e-01
1.131968098594862138e-01
8.276499636806253224e-02
5.926808936688793966e-02
5.182959328672389482e-02
7.928272519712779853e-02
1.504551477727222031e-01
6.691501737243704673e-02
8.918132650985208243e-02
1.225732736605942841e-01
1.626576803018951745e-01
1.165624900138300113e-01
7.645763065571233030e-02
7.126284425669322797e-02
8.043065420989911618e-02
7.254016755463010835e-02
8.913021565937812030e-02
9.532532194567114314e-02
8.336275013889443697e-02
8.613107379990087020e-02
2.484108725651085897e-02
1.076690335326252468e-01
4.596560305092412674e-02
3.913172247831385453e-02
5.275967969772605431e-02
3.452699815677161971e-02
1.583563776012152924e-01
1.346528358361669120e-01
1.879107998368875210e-01
2.480548824811290576e-01
2.564785408749914453e-01
3.614316682389163704e-01
3.313896555131101707e-01
4.679538588893307205e-01
5.281850897364820385e-01
6.533648344452729351e-01
6.768878462448699729e-01
8.095736208555428526e-01
8.941607959907742487e-01
9.009153480289292526e-01
9.216898253272076680e-01
1.009821403527489281e+00
1.070099225628289519e+00
1.070527060293113175e+00
1.023232674549155119e+00
1.027532918909098258e+00
8.948518139973147267e-01
8.814562123305009766e-01
7.656796518876641811e-01
7.080351093279805275e-01
6.092338074211631760e-01
5.472237724488648869e-01
3.867233918309059271e-01
3.691332647347441154e-01
3.258918308791703411e-01
2.300532758498735897e-01
2.498794110381701294e-01
1.085051548860050397e-01
3.124852886940352598e-02
3.032208805708039301e-02
3.843447058854833343e-02
3.981378062822677616e-02
1.154328474484758726e-02
3.565195192467285334e-03
1.626127923471560460e-02
3.403568061469165046e-02
-1.780091893613055393e-02
4.169439126672690177e-03
4.937670559635706780e-02
-3.159292425668595861e-02
1.499728570101255265e-02
2.590242441708238974e-02
2.132263548170579281e-02
6.041958006682494886e-03
-2.833602312683667496e-02
4.452585504604811284e-02
6.449188460098255471e-02
7.850650968813717434e-02
3.479742259206228261e-02
1.017409847638017228e-01
1.240785311703847538e-01
1.341762496204907951e-01
1.156472681810936237e-01
1.175897207908412484e-01
1.641457345936019607e-01
1.541628964139850622e-01
9.795640340849823269e-02
1.165006006565311170e-01
1.322678455900690719e-01
1.075599850796903900e-01
1.106408901298701064e-01
1.536238559077591215e-01
1.666278577839034880e-01
1.593807453168377408e-01
1.611239119172253043e-01
1.330004745763436191e-01
1.596960679423419238e-01
1.767242112158647627e-01
1.803676909915184201e-01
1.476536909657434893e-01
2.004290666547585420e-01
1.308549922500383267e-01
1.532219657329052243e-01
2.299323360174667374e-01
1.633869912961034010e-01
1.446738454245390382e-01
1.910446199046852978e-01
2.050107775386229014e-01
1.670081053664387583e-01
2.192392111247944142e-01
1.791649091943759431e-01
1.758191353258738432e-01
2.283404170402658362e-01
1.859156115332804560e-01
1.265258632073483491e-01
2.467281921603843853e-01
1.816450683598672122e-01
1.412477643898225887e-01
1.924204129586539191e-01
1.163102206986985215e-01
1.118777008302103138e-01
1.595946556956658602e-01
7.651471993137499983e-02
1.621122330280183599e-01
1.090071863765088855e-01
1.346054877995979671e-01
1.327611974994110933e-01
1.612306192435003505e-01
9.194725886168519935e-02
1.452741208700124853e-01
8.961291970051535327e-02
1.088996849236422149e-01
6.786064422173745947e-02
8.128144268867890099e-02
7.314438836519546183e-02
5.688947311136260260e-02
-2.694713614109424393e-02
5.030559629177379366e-02
3.387250664552974438e-02
6.233879750284540555e-03
-1.480239298403442788e-02
5.361708025859061866e-02
-1.283980159519897135e-02
-5.526973824028495741e-03
-3.265591621680891815e-02
4.583991774190464968e-02
1.585257378783844207e-03
-2.085008952099089499e-02
-3.113454458331189195e-02
-7.823730841839064698e-03
-2.156955136376875748e-02
-5.529876160788478601e-02
6.118041284403567814e-03
-8.852962539598642489e-02
-6.166634956997272404e-02
-1.339884308143109160e-02
5.077016620449750772e-03
-8.609271366421863969e-02
-2.139079512166103605e-02
-4.042394040204731059e-02
-1.147031098641558555e-02
-4.871982524691739064e-02
-5.149856865205204581e-02
-1.869104318488280445e-02
1.569842471533466899e-02
-5.903762033208878601e-02
-4.497746127528164800e-02
-3.699380872454906266e-02
7.727971774676163641e-03
-4.851283459094463124e-02
-3.454431458820707290e-02
-3.684687568055747264e-02
-2.774023505902715667e-02
-8.828597064509996484e-02
-2.907856325057262686e-02
-7.876708298315579504e-02
-9.945028296864732997e-02
-4.081976155530594313e-02
-3.937304691915953503e-02
-2.650790067045047382e-02
-2.794977686693822863e-02
-3.855128667259932057e-02
-1.896270348395170599e-02
-3.425998418549266317e-02
-1.425586230919309583e-02
-1.064298072369804921e-02
-1.166066998538378696e-02
-3.787673490011156385e-02
-5.398498622861570839e-02
-3.735093368371592004e-03
-4.214517532371432618e-02
-1.373942756237103713e-03
-7.225940761749406749e-02
-4.296431345835020899e-02
-9.625405620253907335e-03
-5.563898580182833481e-02
-5.142681483313236990e-02
-7.120823670214351808e-02
-3.831821975050125201e-02
-8.009101947641233954e-04
-3.896490344721518367e-02
-5.515074930507186252e-02
-8.793579121531003295e-04
-8.287162760008467965e-02
-1.736150058691245113e-03
-1.914682086572711689e-02
-3.684685204152556015e-02
-4.627565449424567157e-03
-3.178743760991326051e-02
9.173303760832293707e-03
-1.065740700426753840e-03
8.107918432862501468e-03
3.327693366749642778e-02
-2.117278273186155163e-02
1.928422050764396628e-02
6.224708171226092657e-02
4.835553581962424852e-02
4.410601800429809344e-02
5.184234993010813225e-02
4.816631210852168055e-02
5.926978277954086938e-02
4.521925786635731109e-02
4.676813596347966645e-02
7.534405540732770634e-02
5.885310406828716395e-02
1.052733710205371875e-01
1.140072362850964721e-01
1.198265737967537659e-01
1.234668807111140576e-01
1.037351640255932128e-01
1.515926054901520215e-01
8.940828861379571113e-02
7.439563782376942824e-02
1.197520595733794074e-01
1.510147349200284816e-01
1.284174930160109085e-01
7.792053274336205315e-02
7.509310987379949620e-02
1.136512577295507725e-01
7.933839423461097606e-02
7.857335954031169356e-02
1.754620982176771093e-01
1.097696739229311325e-01
7.057944153015248412e-02
8.333663851339737083e-02
7.984690381527576042e-02
8.170262838687031293e-02
1.275500344314057233e-01
1.009267750846542661e-01
1.493078299225409633e-01
7.965455505802471192e-02
3.737924242601176061e-02
1.283050087357706648e-02
7.186791356303484646e-02
8.786120437429074947e-02
1.796124303753582896e-01
2.214668203940681479e-01
2.127811919732882084e-01
2.594956266692094449e-01
3.108000535257109953e-01
4.314749502052300789e-01
4.612088017496727699e-01
5.810489352275467478e-01
6.370202196760590407e-01
7.475672662324953643e-01
7.980036193160738867e-01
8.145215022216714118e-01
9.710706361502595696e-01
9.813146979735504205e-01
1.029180761371583763e+00
1.052963269486531184e+00
1.093840298250197796e+00
1.061089292570213782e+00
9.568390475727184263e-01
9.186949065228613431e-01
8.546574472085577412e-01
7.415323620242727509e-01
6.943045765770663458e-01
5.953282089103132391e-01
4.933033516889473447e-01
4.353705319407890628e-01
3.387249343598077722e-01
3.225322492953620057e-01
2.351562354749274775e-01
2.070091750594562630e-01
1.579964611626557547e-01
1.756150153678270320e-01
3.359936052666576134e-02
5.333434164909415381e-02
9.811925763880305351e-02
-1.889655014224964069e-02
3.735052600869812750e-02
4.372311287712593586e-03
3.945635620243734959e-02
5.584474053970372998e-02
6.880150974126744701e-02
4.381064328687161308e-02
2.260480772409659972e-02
-5.171543271538549952e-02
5.253570133495089750e-02
5.534578019025358092e-02
1.023046264523430615e-01
7.562246332026641149e-02
8.039801011249468610e-02
8.643392100255405108e-02
9.458497808650187522e-02
1.112656319506462876e-01
7.194453560634453404e-02
5.672491030705587023e-02
1.181995229761813315e-01
1.088604077858107422e-01
1.213551782029885784e-01
2.023435748107970111e-01
1.914193504976759441e-01
1.071318619174816966e-01
1.655900739597336579e-01
1.273367291119207045e-01
1.549827965284335807e-01
2.028172225458743372e-01
1.793326922870352447e-01
2.019835233558684440e-01
1.466674387349202191e-01
2.021099720890785489e-01
1.704626879224011016e-01
1.893140881284827159e-01
2.036222938842867924e-01
2.506947743669473150e-01
2.395137843130462907e-01
1.883354720288071826e-01
2.407002237930584709e-01
2.666106114786352954e-01
1.971454279077841931e-01
2.780621967445108811e-01
2.376180665625740041e-01
2.456867404917249809e-01
2.130241009960449072e-01
1.626810545589413570e-01
2.632315639062507429e-01
2.528682896629336208e-01
1.740697220018037061e-01
1.836526051008869898e-01
2.223515414135316948e-01
1.966759432900268834e-01
2.215340622882447097e-01
1.825735029260277253e-01
1.981345898730874355e-01
1.983744580314534267e-01
1.488213905461104325e-01
1.898813389575680910e-01
1.348158328229263625e-01
1.777170457992008346e-01
1.170772162881822953e-01
1.404785397670114955e-01
1.640137534694754984e-01
1.269280130522532080e-01
1.866253490081445365e-01
1.704233986997149564e-01
1.313055230871205126e-01
1.997987853104223055e-01
8.452912250656849369e-02
9.341364438629826128e-02
1.434668243086139605e-01
6.372800873570340363e-02
6.261786213129563738e-02
6.340731653466508133e-02
7.045102184596116479e-02
5.579643168061990122e-02
8.272774358156496921e-02
6.475837653650801107e-02
2.396328125078739726e-02
7.373652637162091128e-02
6.096154108149952344e-02
5.406134967708411954e-02
1.940972378919182326e-02
5.170657395979879473e-02
3.617802004822139733e-02
4.604593412690637447e-03
4.087287505078956995e-02
3.572691573796517306e-02
2.900181450643628256e-02
5.302234869681431151e-02
-7.627419395226025384e-03
7.731313808999561166e-02
-1.428989197318963900e-02
8.369672504073537994e-03
-3.057080254032507396e-02
-1.673758967827602279e-02
-8.468151137375544424e-02
8.181693705210072928e-03
1.433160012007592132e-03
2.426181631975016934e-03
1.748206589990643559e-03
2.410758900335357308e-02
6.074326111344676218e-03
-2.613654415276476725e-02
-6.481305100931442076e-02
-1.466014015047960480e-02
3.168635460779606686e-03
-3.734771663143524739e-02
2.835905284530328141e-02
-3.814110605626586797e-02
5.531890315165408079e-02
-4.307546881839521141e-02
1.036260734937337162e-02
-9.950146099969794586e-03
3.425087889917606543e-02
1.302317458528660585e-02
2.764874581048273189e-02
-4.691152362241179409e-03
-3.820225101906860043e-02
7.918514036792301605e-03
1.024703711581226480e-02
1.435557697433071517e-02
1.668887856230709052e-02
-1.790095016227129937e-02
6.236821090059152528e-02
1.339033720110936743e-02
7.328681062083685499e-03
6.795276277896666016e-03
-5.371961337170405582e-02
-5.346258056381360257e-02
-2.938388137903904726e-02
-1.504719449526541186e-02
5.798655018342419379e-03
5.806185632470492811e-03
-7.005149790158146823e-03
-1.539072395672906428e-02
-4.734356898679790981e-02
6.694994538815822460e-02
4.893382642862172116e-02
6.886827311771924996e-03
4.524588290987830580e-02
1.773680413322111307e-02
2.547351436703365959e-03
8.271511507224641249e-03
3.120223473830286559e-02
5.448314539465561046e-02
1.009223853493921783e-02
9.046196178961975198e-02
6.642999913022698544e-02
-4.888853336087205931e-02
1.156237759483556317e-02
2.234143360600020223e-02
9.550056147856013367e-02
7.478712643837645557e-02
5.920221701512396600e-02
8.607552133625162583e-02
1.443185290690662814e-01
1.191597339828119190e-01
6.560897168405889490e-02
1.036692401145354880e-01
1.793794953307448481e-01
1.118036039093005668e-01
1.448905841349216739e-01
1.030881935338526095e-01
1.288496606187724269e-01
1.079135656257487058e-01
1.135480982847365816e-01
1.516536149200657657e-01
1.420880236199262570e-01
1.377880456687293753e-01
1.793137509890012637e-01
1.515321409810696518e-01
1.091805188682329342e-01
1.623644338052445402e-01
1.340837673805503061e-01
1.807974226442468080e-01
1.190030064871735738e-01
7.505327155679414330e-02
7.034878928395624231e-02
1.353500991149762245e-01
1.204192351899091573e-01
1.761108347629286863e-01
1.015343047106612578e-01
1.068280318649261207e-01
1.272736844125267330e-01
7.665105040282536863e-02
1.337804428618134811e-01
1.599564616085839552e-01
1.439895975288292551e-01
1.194693209514776783e-01
1.193186878927030015e-01
2.169604622271449623e-01
1.962810764800185792e-01
2.744858340245255879e-01
2.726667521509121839e-01
3.093843286871741927e-01
3.578773636536857206e-01
4.347809798158933647e-01
5.052184149440310801e-01
5.932217510642050495e-01
6.525945802052722788e-01
7.001003138844248408e-01
8.652652897838382096e-01
9.427401235877155283e-01
9.559398403618218909e-01
1.032058642391318948e+00
1.052369184901836618e+00
1.114443827786874452e+00
1.107470911069587283e+00
1.035162538751871697e+00
1.052346653632678430e+00
9.793058850050735398e-01
9.117585069519026364e-01
8.684669280717343121e-01
7.938430163554417440e-01
6.714291932111319250e-01
5.267303099454455628e-01
5.705141568687042142e-01
4.073883123562306863e-01
3.765388040694818139e-01
2.965042550200692739e-01
2.500621458958242060e-01
1.807217740009186835e-01
1.914376965581359447e-01
9.892657101401151898e-02
1.491826898846027871e-01
1.092423126056242116e-01
6.481681364386239486e-02
5.820993634020170393e-02
5.690383561380764343e-02
9.661890977818196613e-02
6.881449173966007471e-02
5.917561170859059194e-02
9.877260596463677267e-02
1.277853757785777367e-01
1.560111318763554578e-01
1.098576846159204090e-01
1.371576700559440087e-01
1.406746249856189734e-01
1.646633754648646752e-01
1.429097390273086632e-01
9.116130121621748850e-02
1.776527125443240207e-01
1.590082574725233955e-01
1.805473594516908697e-01
1.426367663946283282e-01
1.411301310373240248e-01
1.572245242657743791e-01
1.976214300757938858e-01
1.951124000732692987e-01
2.018225031874056052e-01
1.811381264968947580e-01
1.625344924172386629e-01
2.457777647879771377e-01
2.138592496031684886e-01
1.695303171373358508e-01
2.248183691210182689e-01
2.185835698697939644e-01
2.964951053203370157e-01
2.047477891841427144e-01
2.983428985235000441e-01
2.606696786434177793e-01
2.648118444942241800e-01
2.844423281213804278e-01
2.415710255078681312e-01
3.107130741807004326e-01
3.050687007782522109e-01
3.081623404230323104e-01
3.044274851066535725e-01
3.030397800591956292e-01
2.808267105584103529e-01
2.734708902288756072e-01
3.038494081173756522e-01
2.219401267961552682e-01
2.267133897587360336e-01
2.929683439126063438e-01
3.101854120411001725e-01
2.505673909896122820e-01
2.360233649840394188e-01
2.455964666580062739e-01
2.986822631347669788e-01
2.613044881136714070e-01
2.470426879313558088e-01
2.270828732992936916e-01
2.814615500924402269e-01
2.480013072094119919e-01
2.677179185949831730e-01
2.417960889631076415e-01
2.136989099669746872e-01
1.676883127513576488e-01
1.805297874444097284e-01
1.717504054794919965e-01
1.458741310390979651e-01
2.656985890754555157e-01
1.681178793115301329e-01
1.467096792147940254e-01
2.163244121510011775e-01
1.665407644217577476e-01
1.594830801431314227e-01
1.390954209611083847e-01
1.496180131817583525e-01
1.113520975881110431e-01
1.175570727815444805e-01
9.432639456265323741e-02
1.234963300779557682e-01
1.474168675516412952e-01
9.066583828416580060e-02
9.067574493179839101e-02
1.017209786632355395e-01
7.685676282652073588e-02
8.563048363574224386e-02
7.719527437313641882e-02
1.346538706890891279e-01
8.082718427147235485e-02
5.531381331878158086e-02
1.036432507233922967e-01
6.710849522605794037e-02
3.497354173274597189e-02
3.852108277790299018e-02
3.538206845662981992e-02
8.341542291992865010e-02
4.240652249402365043e-02
1.003209299160612022e-01
-1.511888767922680427e-02
3.594108876467209945e-02
5.384523217924740146e-02
8.689847488583649082e-02
1.235917206385307721e-03
2.688350897576029588e-02
3.225848413579190249e-02
5.054027066324719847e-02
9.229777723166246450e-02
2.714166919311886833e-02
7.328477735952998451e-02
3.542224561495316976e-02
4.134763504908851167e-02
4.312927867988161634e-02
4.614935705913839059e-02
8.908006341738552991e-02
3.790536960931221999e-02
2.143399840214507343e-02
1.975343065668964601e-02
2.973033839604253062e-02
5.978141220146303281e-03
7.327399051691343979e-03
6.141609005145868411e-02
4.901642151179204376e-02
6.440028492851561370e-02
4.358981356873708329e-02
9.645796422185612395e-02
1.132255448996904307e-02
4.954272974717265771e-02
4.716488397136547883e-02
4.882931803203938159e-02
5.613335889393802902e-02
3.989741902472510038e-02
1.109137499935950594e-02
5.558426020565150616e-02
9.345232136704723080e-02
4.602971556665793468e-02
6.592712820664826945e-02
8.140719238465037033e-03
6.167252797228718608e-02
8.638085644303111765e-02
7.488600825713392917e-02
9.072649811739265380e-02
7.132911230311204942e-02
5.872398776019933236e-02
5.234193076201339168e-02
9.694420334325548616e-02
8.636883438031911497e-02
9.369986755928955136e-02
9.720955999921876423e-02
1.086152166205933134e-01
7.682254077505200340e-02
1.163855945685060428e-01
1.390999083374612200e-01
1.194185336838113065e-01
6.816077320094834913e-02
1.394056089870418513e-01
1.093494075707167057e-01
1.233377627066734455e-01
1.140210565977470003e-01
1.129174809317561867e-01
1.621062424009193648e-01
1.288872675168739601e-01
1.820654943987420338e-01
1.479321141278021612e-01
2.018573497655127558e-01
2.512778593344311973e-01
1.289099100281389521e-01
2.077009609332890749e-01
1.943817643741677648e-01
1.537610062740420447e-01
2.285208652221598080e-01
2.344157583937290790e-01
2.343553567595974274e-01
1.887105407103840116e-01
1.706174480061210252e-01
1.935968378575019244e-01
1.900125206492797036e-01
2.217037921452525151e-01
2.330224492578669704e-01
1.730888488467453024e-01
1.875225647523815764e-01
1.638694869110048913e-01
1.623694999461606225e-01
1.714093859656753427e-01
1.777552765783733391e-01
1.851672452795521118e-01
2.119982891544640591e-01
1.548311703647805015e-01
1.492925661936600479e-01
8.257230219702033081e-02
1.550227118170838247e-01
1.587145610068329549e-01
2.039759506106293141e-01
9.161923631581943284e-02
1.765532182629859781e-01
2.084033163820884771e-01
2.573288099837965914e-01
2.522929435929117670e-01
3.445298904916795357e-01
3.342626461547577588e-01
4.443160380963127043e-01
5.220224222688139015e-01
5.612294284544848688e-01
5.959244848906930514e-01
7.594547712680312923e-01
7.797219545352864767e-01
8.422760990673054948e-01
9.520493919627674995e-01
1.005398899709162741e+00
1.095391073443298557e+00
1.126777140482567718e+00
1.111266596315793942e+00
1.094140569788384365e+00
1.098278166965295677e+00
1.149488909805113313e+00
1.045246871623641161e+00
9.079433038778997878e-01
9.266092080652513774e-01
8.031182884168974745e-01
6.684647653934203682e-01
6.661394421894774043e-01
5.456072920903087820e-01
4.951022559301430648e-01
4.280078731357435107e-01
3.124491916703556194e-01
3.196110091242442830e-01
2.199601332536644804e-01
2.173170885123421603e-01
1.449065020914895863e-01
1.567338065242920575e-01
1.227546096109226048e-01
1.341070220386672007e-01
3.161446683679269842e-02
1.691369534741080094e-01
1.347040842477407463e-01
1.549073538955585971e-01
1.292603754313769726e-01
1.198149633246627099e-01
1.159087372348107936e-01
1.687999220509230347e-01
1.320313802139011505e-01
1.619205431720371346e-01
1.419300164899313099e-01
1.627706046543940521e-01
1.646590543347930813e-01
9.613169075172059430e-02
2.168289991139908945e-01
2.007367000169520410e-01
1.321991525678205825e-01
2.100670275218665117e-01
2.101497791221848543e-01
2.091042344994075430e-01
2.000801551706156423e-01
1.867344893221338509e-01
2.344463041397283065e-01
2.305089612422237810e-01
2.613734140260789429e-01
2.011757132300401874e-01
2.582215007862143086e-01
2.406649934872047703e-01
2.608004541862258829e-01
2.434718635635287898e-01
1.933777051427874871e-01
2.877958268543741593e-01
2.013066851354856635e-01
2.945843337657226280e-01
2.517820001862713375e-01
2.686362168122770067e-01
3.407523396507909363e-01
3.049465974670775292e-01
2.960181143500096868e-01
2.772804903609311644e-01
2.964543853514367555e-01
3.178074983463797243e-01
2.632996035071928920e-01
2.873526508008609204e-01
2.819575003154866644e-01
2.719048025202769892e-01
2.692945019507444471e-01
3.361031003212718304e-01
2.999706513942213548e-01
3.126863358893533507e-01
2.796899386325566450e-01
3.093545854852252641e-01
3.341579967125162254e-01
2.142033414770277144e-01
2.255724267356876978e-01
2.357044230096872195e-01
1.999324699868302857e-01
2.756978196629026323e-01
2.213775878701703947e-01
2.732525683303150821e-01
2.393691918222849990e-01
1.863014081858297699e-01
2.258256312013543488e-01
2.293849582063339776e-01
1.829464403439634290e-01
2.111072207704137171e-01
2.059343886152139869e-01
1.756396385170311825e-01
1.715742792081918211e-01
1.900346178155948584e-01
1.547182761564550868e-01
1.681373987781638601e-01
6.947877928045767537e-02
1.597519927128039918e-01
9.113716644551410340e-02
1.206367531510333935e-01
9.567796918794453653e-02
1.562043772315566958e-01
1.440165852290556381e-01
5.951759262137446688e-02
1.036004278737457235e-01
1.846649511186639614e-01
5.390085344720130234e-02
1.140438150839980513e-01
8.942488930365731503e-02
6.823923506442108877e-02
7.625822584664400383e-02
6.921344089116177045e-02
1.186233238246522659e-01
8.171478918243570144e-02
8.410205974940307416e-02
8.926134713381697616e-02
4.331524012116926003e-02
5.012596750921268635e-02
6.991786361120853888e-02
7.620697842150987722e-02
2.281561873698162435e-02
1.049376147087758698e-01
6.087031597815158873e-02
2.324939973709326882e-02
1.394402614754408978e-02
7.568858448514459436e-02
4.236023705688183455e-02
4.342654290682934626e-02
7.918345374077429000e-02
2.793463354892214076e-02
4.635847441602330976e-02
-2.046220488306167012e-02
8.895069177157516327e-03
6.530463821165360949e-02
1.121671443777173816e-02
9.259913830194503592e-02
2.024554576545974788e-02
1.726056972883033627e-02
8.802768972894631228e-02
3.177391933678175989e-02
5.330878582992344683e-02
5.235683536953632256e-02
4.250691989133980470e-02
7.671634364118762317e-02
5.894894099446806868e-02
5.694861229127028135e-02
4.370194126475212409e-02
8.174713035553628215e-02
6.478197321272832765e-04
3.261598350030894822e-02
7.657774557373422941e-02
-7.989035051749235339e-03
9.245061490696515616e-02
-1.915714650194234175e-02
4.526200406486278333e-02
3.116432393357632114e-02
7.164911192477584068e-02
3.909665428289596512e-02
-4.415036039384964001e-02
7.532705879901106794e-02
7.639584936231516576e-02
5.969280897057301083e-02
4.665775340290228418e-02
7.945746204099247978e-02
5.195375426782784800e-02
8.642380562311591241e-02
7.905697401676477221e-02
9.634331201287700541e-02
1.026562682575437035e-01
4.370348514563781456e-02
8.757487509953776339e-02
8.870363680057705147e-02
8.317809817525188831e-02
1.338434832162233024e-01
8.952076676301043423e-02
7.799335596532921966e-02
8.498910155393374355e-02
1.341798010349559700e-01
1.317927519621412968e-01
1.157223436546572226e-01
1.566278980225542239e-01
1.365368191942747944e-01
1.827857433059663361e-01
1.165272203373884929e-01
1.710162444342193666e-01
1.099843573982793032e-01
4.606686705324199160e-02
1.545083585802750348e-01
1.697881220360302479e-01
1.607940411808066739e-01
1.751865962710662528e-01
1.776665774507821538e-01
1.585038719827841780e-01
1.805668262481178177e-01
1.800625307705210620e-01
2.116002560411641420e-01
1.789630091262420508e-01
2.831572045677633320e-01
1.409698378820276321e-01
1.441093173944349992e-01
1.057924093646748498e-01
1.644730925923787168e-01
1.754846257527305498e-01
1.702642328351979539e-01
1.759007675386493608e-01
1.927103204581806228e-01
1.438136545599871807e-01
1.515847010152965302e-01
1.053449303859878422e-01
1.361045654928011717e-01
1.455561871402299978e-01
8.797563842646931309e-02
1.430869587470273152e-01
1.619249360223369016e-01
1.714978367193345787e-01
1.575245077033537444e-01
1.885189668384898987e-01
2.261179125751255348e-01
2.653597937890812553e-01
3.748618258023889149e-01
4.115477885695689730e-01
4.287555248955944309e-01
5.247971579047183699e-01
6.304820779962595489e-01
7.046308224606383508e-01
7.693225583809857326e-01
9.082490221183603385e-01
9.159577208964626571e-01
9.795147872885157092e-01
9.961550772749022675e-01
1.057530362136521740e+00
1.080194704933998162e+00
1.093250564053040996e+00
1.048509119079085172e+00
1.102389386950429762e+00
9.741397164608907033e-01
9.319941721719146033e-01
8.712000097232259765e-01
7.570514170886221139e-01
7.452001084734631853e-01
6.070217193022198199e-01
5.335784718741598542e-01
4.144871739579396031e-01
4.620347556655262089e-01
4.101840800162122602e-01
2.262459352654054290e-01
2.343019688858880012e-01
1.339088020140200286e-01
1.713616380696644514e-01
9.952687038950464027e-02
1.186752075387028649e-01
8.231091884905758493e-02
5.357427283989184275e-02
1.540538883811044812e-01
9.321947386161096027e-02
1.076216109898335827e-01
6.546608520672840548e-02
9.567500630909349379e-02
8.107912640839731733e-02
8.096348843246167770e-02
3.709393646558228896e-02
1.276514383364209526e-01
1.177459818401467573e-01
1.000858360501450522e-01
1.290279273710031038e-01
8.706358981353559678e-02
8.199003159714135514e-02
1.284984428949888791e-01
1.632695643261981022e-01
1.486536693395216213e-01
1.094432139809118354e-01
1.581497366141787209e-01
1.936360918824100164e-01
2.023001048271720892e-01
1.380768704708725814e-01
1.906409494259458381e-01
2.378170904479160741e-01
2.006066089603431579e-01
2.277732435770298824e-01
1.896443360079849982e-01
1.897930950928863325e-01
2.015052940626231026e-01
2.308425878430433731e-01
2.568725562735192924e-01
2.297228748079988836e-01
2.460778966334230822e-01
2.940065947574499461e-01
2.746341043001692128e-01
2.271869881884718001e-01
2.451290722973810954e-01
2.954797077148183515e-01
2.789489846732503553e-01
2.864340202125287838e-01
2.554471578525470687e-01
2.571184678605477614e-01
2.138546678462499018e-01
2.404009332702990165e-01
2.999841558603763558e-01
2.390863869612163961e-01
2.563983375817093235e-01
3.559052768761471475e-01
2.821599417936578313e-01
2.589616344736774267e-01
2.912033890672697800e-01
2.215795673704249735e-01
2.052906707046693036e-01
2.360473735047920463e-01
2.155253320433477005e-01
2.345248081401331286e-01
1.967287465017492909e-01
1.686342007362345297e-01
2.401908747780577003e-01
1.919643295334011179e-01
1.445436319770206091e-01
1.712501616770873147e-01
1.689170376931452000e-01
1.931455634355932760e-01
1.340833205043187037e-01
1.266662277933749414e-01
1.975796076764303744e-01
1.916128398264344834e-01
1.508121280046976209e-01
1.260421526279602578e-01
1.304249086084803555e-01
9.604616824074208026e-02
1.306903622830352940e-01
1.167788478605654295e-01
1.058970991339018564e-01
1.142436590101798960e-01
7.628467636679001074e-02
6.572720248062546844e-02
4.164499929860605160e-02
8.578732448233195029e-02
3.840789065472995090e-02
4.451306034616995394e-02
2.066047202809164277e-02
7.012845618733912212e-02
2.769833158513749366e-02
4.884055937911290640e-02
4.888699901142852522e-02
1.946748894288129542e-02
1.151737004147961735e-01
-1.136158677170332788e-02
-5.837209562644417923e-04
-1.859928131337572343e-02
3.638809477984263768e-02
6.361663462377437073e-02
2.997657613275785116e-02
1.311326312980946006e-02
4.883325601003347255e-02
5.426055610838161763e-02
-1.406591703339208667e-02
4.559402377147953045e-02
1.207067766173019335e-02
4.593233416611389175e-02
-6.667220251468615466e-02
-6.149483214513249557e-02
-8.965475390546328444e-03
2.276976827802388095e-02
-5.821840856644046325e-02
-2.777765827465882454e-03
-1.331255679164666458e-02
-3.740210525207726677e-02
1.295369761568850205e-02
-2.662831599571223451e-02
-4.218934475214926316e-02
-1.487686148365744906e-02
-4.765631605996533543e-02
6.793640385027137872e-03
1.484328144250781148e-02
7.018008119652245635e-03
-6.612816880678712775e-03
-6.038265092246902083e-03
-5.733708143565990206e-02
-2.764892593343464336e-02
-1.903867975691393016e-02
1.586088105989642838e-02
-1.591794206236600909e-02
-1.087624618377105654e-02
1.151729314891187031e-02
-4.000435550015613712e-02
5.368214355593658310e-03
-5.687292775968375014e-02
1.952511264926036841e-02
-4.147586038685949911e-02
-3.793552074194012080e-02
2.284099679905211497e-03
5.224649847667585389e-02
-1.260018833403744702e-02
1.477608658536955916e-03
-1.463935354597978647e-02
-2.289121736742369406e-02
5.367710270060768382e-03
7.316770533690133971e-03
-1.399117911142297790e-02
1.588985291314288367e-02
1.117512154563971016e-02
6.892231249514909133e-03
4.020048774090880656e-02
6.264147576030390518e-02
5.157485551333741702e-02
9.002083463240188876e-02
-5.100519882191727195e-03
4.020014033894762223e-02
2.090978451192838233e-02
4.299890604254634485e-02
8.758309380575471370e-02
2.857515702592794762e-02
8.712909370261986974e-02
1.128302026049716050e-01
8.324414704120880470e-02
1.071492016515991769e-01
8.160009078220992196e-02
1.696483822313030743e-01
1.134538129787786981e-01
1.330086782116692845e-01
1.756120843308143498e-01
1.457673999759875327e-01
1.328619216417745441e-01
1.372396499198320907e-01
1.344969852103543029e-01
1.207717030061883912e-01
1.667540728413543782e-01
1.162898779852511999e-01
9.747416883134674137e-02
1.555219802729465861e-01
7.220314254310956914e-02
1.371828450148134260e-01
1.198448352344136242e-01
1.180646098160529622e-01
1.272823098641075179e-01
2.333301254669808977e-02
8.602528090438953112e-02
4.707532669765171485e-02
5.311046085463927424e-02
1.167211396917102739e-01
6.793275618880838251e-02
6.664841082109435044e-02
1.071311609932252690e-01
1.058457250528609395e-01
8.428807953132250175e-02
9.639267522620759143e-02
9.883186935652266136e-02
7.757520174255147505e-02
1.880722353692507731e-01
1.569039576241782752e-01
2.080854948299992180e-01
2.868032579396294079e-01
3.239464468874437841e-01
3.833283767409725318e-01
4.956243198340867795e-01
5.649926105344150740e-01
5.554383537624927314e-01
7.201436284541431476e-01
8.142734537067030098e-01
9.453576832702033084e-01
9.125217632488213937e-01
1.005044747177493036e+00
1.006062085184581845e+00
1.048837818641733755e+00
1.057837223762839285e+00
1.031003400677693582e+00
9.699618675863799222e-01
9.270141963008168284e-01
9.276127923181161083e-01
8.202730707663105081e-01
7.283930284155996082e-01
6.202057048202974654e-01
5.573205242045612406e-01
4.599148888687353276e-01
3.981756737073139374e-01
3.528309575941014353e-01
2.716055749933229402e-01
1.347099202505516180e-01
1.519500357562564297e-01
1.475863674976207740e-01
4.690017890733187700e-02
1.321919875924519872e-01
3.506421693877179863e-02
5.414607265519432583e-02
3.896067849680899531e-02
6.481964797251121846e-02
5.272008670386506279e-02
4.169908845585103274e-02
6.893115528220583599e-03
5.789584832445229118e-02
1.031301098390425830e-01
8.959081999641205218e-02
5.752803995266974474e-02
2.837851762335141803e-03
5.665239244509112648e-02
7.005039869094700777e-02
4.876744458688226508e-02
9.416370946386823371e-02
5.471915169771143783e-02
3.015327698184858130e-02
8.693642255319650181e-02
1.148869925540391135e-01
3.705766963299488709e-02
8.200097316359813981e-02
2.053761133374943093e-01
9.488599420290352859e-02
1.086323481873014141e-01
1.231209927105128971e-01
9.698639308460056674e-02
1.171359879480360910e-01
1.366172239177321501e-01
1.622543030380981244e-01
9.543550013123089371e-02
1.908880354897001530e-01
2.071850837736681217e-01
1.985701512316707107e-01
1.647457718050378828e-01
1.989780715160448243e-01
1.833251573529675049e-01
2.474779166583117584e-01
2.177671109683501083e-01
2.456330548191504592e-01
2.351268210137313908e-01
1.535367373477572739e-01
2.330989984576458118e-01
2.286737763464353201e-01
2.052333840570026435e-01
1.941128582565424532e-01
2.195423788454089198e-01
1.819373500444376734e-01
2.221399467694334384e-01
2.286553270962069506e-01
1.770532233462224769e-01
1.943757545961350142e-01
2.240934081628689345e-01
1.792572500255688872e-01
2.019971623733338162e-01
1.968344871762690018e-01
2.170848845801791327e-01
1.811737133932738997e-01
1.733613812376562091e-01
1.888984998922836611e-01
1.501555036242924190e-01
1.160101373263404678e-01
1.220814587310700416e-01
8.861975602233562732e-02
7.739984397465027310e-02
1.019635117558212872e-01
1.309636323393673918e-01
5.701231501898081089e-02
1.252917356089794376e-01
7.061747952759674096e-02
1.264099452469087947e-01
8.243960655639077928e-02
4.577390360053135154e-02
8.768592242530674763e-03
6.737436319226111636e-02
1.471606410904963830e-02
-5.381741500085940322e-03
6.082366849055351188e-02
5.913268645427012526e-02
3.677824731726299368e-02
8.776033266275781730e-03
5.878924099001486131e-02
6.753181958936531337e-03
6.125910093496368669e-03
3.965247723133599050e-02
2.265721118021427755e-02
3.056786307913506029e-02
-9.178887819150383098e-04
-1.814758232123395848e-02
-4.873837193705597703e-02
-6.590305162175918996e-02
-3.886807452713489375e-02
4.168009659832237063e-02
-2.229033700341585475e-02
-4.504994330146050441e-02
-2.540628608914069497e-02
-7.334599286305035215e-02
-1.605790128901767033e-03
-6.770570847136997417e-02
-1.357525829112943283e-02
-8.360953804785725696e-02
-2.603676750764487985e-02
-4.632172287281748069e-02
-4.268133554368905985e-02
-7.362715181730272729e-02
-8.463380142130838557e-02
-1.903245196580370668e-02
-4.902619021455670995e-02
-2.349567479612417464e-02
9.530025745661065140e-03
-8.785888781121170554e-02
2.286388252771717061e-02
-7.303196245422555188e-02
-5.998687137793755342e-02
-4.741360721095314035e-02
-4.329841615278023220e-02
-8.495607472170228769e-03
-2.209676447017537917e-02
-6.088997706827816575e-02
-1.189748980092851238e-01
-5.967103326379472744e-02
5.705135062536247081e-03
-7.604449023180084866e-02
-7.479551350310933988e-02
-4.570359615215260907e-02
-4.992303288159812003e-03
-8.419046445673659951e-02
-8.348804649232666186e-02
-9.068669296341384800e-02
-3.958620877160477780e-02
-5.391151042819311567e-02
-1.129530028859836444e-01
-6.074616947081513951e-02
-2.217820389774302625e-02
-9.461556934354781179e-02
-5.052513676061515940e-02
-2.518433960826217677e-03
-1.367502142210026000e-02
-2.809413587493651832e-02
-2.029964473165521421e-02
-3.709472491659600302e-03
-2.632975078465852811e-02
-2.100925389469544130e-02
-9.398302782259725097e-02
3.768792136448838315e-03
-3.681672334481189690e-03
-2.678616980797788455e-02
-5.157919041786231118e-02
-4.955947960295851995e-03
-3.945429740525509960e-02
1.951498297895871287e-02
-1.935550007353850285e-02
6.708521993886852608e-02
3.030435693183382989e-02
-6.294730049609648104e-03
3.897928383032260580e-03
2.990135786694556042e-02
3.078372761834604482e-02
1.706539881521708379e-02
4.055961118015426192e-02
5.588334080152422556e-02
1.119776813703302204e-01
3.753936940541576645e-02
6.304504054846858663e-02
7.677782455595637268e-02
8.270121760185308868e-02
1.089279611241382173e-01
1.170930303622522012e-01
2.896845489511218341e-02
1.213791154680344819e-01
9.849974623987772793e-02
1.435782548144726167e-01
9.017135946581004979e-02
1.346441614568839040e-01
6.125284788714339262e-02
1.126539176749761784e-01
7.831349730745446047e-02
1.001621034940363419e-01
3.891537832884742892e-02
7.504587603290616138e-02
1.286228284118200171e-01
1.543862505980031219e-01
9.840767349642381978e-02
7.590114193409734644e-02
8.368743304879908140e-02
2.007526082141052048e-02
8.853697777384454681e-02
4.259146577373114362e-02
7.795491725457487364e-02
3.756095425867379822e-02
1.033367107260451112e-01
8.215327729032281812e-02
7.301931714234734250e-02
9.663663048245428600e-02
1.460250046349345077e-01
1.997222471262866950e-01
2.091859531886521573e-01
2.573497510387862119e-01
2.736031704878299498e-01
4.275370734796959393e-01
4.261109565375048036e-01
5.352525246414782112e-01
6.113221997356766968e-01
7.234578726907375801e-01
7.453057850399884554e-01
8.533736150920867569e-01
8.791994502633301289e-01
1.002460294049911660e+00
1.004983064052876962e+00
9.879155544202898875e-01
1.051833457556117901e+00
1.011923227022938132e+00
9.648186139295442665e-01
9.263309037219050746e-01
8.999269836189098815e-01
8.405970047326064565e-01
6.816004938431947657e-01
5.750456180228649128e-01
5.591184781849867225e-01
4.163396911396707312e-01
3.940740595828173265e-01
3.507115247207525099e-01
2.811310954641657589e-01
1.898662890223714594e-01
1.288682959150577179e-01
1.239045380176420214e-01
1.129591705273655100e-01
1.108224018338742484e-01
1.522680027566938876e-02
-7.586088398461060534e-03
3.076293474590977017e-02
3.087578026840731571e-02
-5.809873159100218537e-02
3.463815837185878210e-03
1.681863421229209954e-03
3.767864630287122429e-02
3.726582488805653404e-02
9.572638166748276278e-03
3.914148041029963387e-03
5.639372567085368382e-03
2.075811551041079756e-02
6.425857849981593539e-02
3.850451574176534664e-02
7.399438885755502127e-02
1.131202627654023796e-01
9.803713384651641105e-02
6.721441305526498766e-02
9.692372019788630944e-02
7.872762029762986336e-02
1.095413657542533281e-01
1.343628714892327880e-01
1.118286051149377097e-01
1.047801275704023649e-01
1.475485636487092189e-01
1.742475942869116667e-01
1.679363942074870719e-01
9.559749074818066350e-02
1.445501797653385712e-01
1.577461658846595893e-01
1.374491960550561220e-01
1.906349323751491964e-01
1.616668984905518525e-01
1.570776195010897547e-01
1.973825266418107738e-01
2.312578218191133073e-01
1.497204026678267130e-01
2.064947688746892607e-01
1.792429797491480736e-01
1.977917251933346277e-01
2.212339726817774410e-01
2.028863068341855702e-01
2.359149049760735084e-01
2.094648695069709632e-01
2.449143317205355330e-01
1.642478720968940376e-01
1.931361724105786493e-01
1.282614186655804678e-01
2.195278474374713074e-01
1.863943008982791305e-01
1.909607561406067022e-01
1.638278849667844927e-01
1.827091226514011013e-01
2.112097371493505404e-01
2.023296956921403489e-01
2.300102292014107597e-01
2.488457113128232923e-01
2.193696380814225966e-01
1.833829647971468302e-01
1.189884265824635023e-01
1.349240722696818939e-01
1.085757083954869973e-01
1.463217401346705027e-01
1.670697464506918917e-01
1.442390532861761998e-01
6.088072088630492457e-02
7.058188946300547606e-02
8.022489680087702135e-02
9.543002684843984729e-02
4.856516841267977808e-02
4.259519264795928045e-02
4.500818897846250999e-02
2.487082027714062477e-02
1.016318557265717404e-01
3.250388804705554857e-02
8.963441007261863103e-02
4.128659429453827856e-02
6.548971059018582341e-02
2.840381545233999772e-03
8.137163753835670310e-02
5.771700780125837982e-02
4.928267775026584641e-02
7.334094856788649086e-02
1.930842500201011835e-02
2.005487996815731588e-02
7.007429604858436689e-02
3.760664893953812732e-02
-5.844885399657540753e-02
-1.278050011761315552e-02
2.635653054509995430e-03
-6.949843620718251791e-02
-2.275892485699469378e-02
7.745493534653986878e-03
-2.067263856518680720e-02
-1.170829138210177298e-02
-1.657838732139060162e-02
-1.698852519860954285e-02
-4.745449010480646407e-03
-2.565758934234335306e-02
-9.211851148917843402e-03
-2.839813524699945357e-02
-1.338362958665356706e-02
-6.805962035700260926e-02
-4.256575721227404824e-02
-7.898051150402120302e-02
5.531562262430338162e-03
-7.345974608820762808e-02
-3.111086714647876353e-02
-5.135447467252584469e-02
-4.709525377427595250e-02
-2.751738394731458037e-02
-3.112308388507338888e-02
-7.032563056602350593e-02
-4.582421892678052722e-03
-8.713756510663719229e-03
-1.176158825054915077e-02
-4.788789731589648130e-02
-3.764930234723937175e-02
-7.406581898529970842e-02
1.916842186585095142e-02
-4.030841363132024735e-03
-7.581526329203661096e-02
-3.474879333297927614e-02
-2.170000847340248715e-02
-6.606944257855948410e-03
-1.862745831272506411e-02
3.219414187455996168e-02
-8.053747465952804108e-03
-6.411734654399214861e-02
-2.540921921922526319e-02
-5.497917077961753801e-02
-6.011968855486696239e-02
-6.097534134215246149e-02
-2.832958969788653553e-02
-8.483793232517695959e-03
6.711008900944025191e-03
-2.005093964674380114e-02
1.426419779048735889e-02
-3.591275233273477641e-02
-7.109358403329152365e-02
-1.754719242655036759e-02
-1.572953654459883360e-02
-2.648969530508781672e-02
-7.300399907350079570e-03
-3.117945621005307338e-02
-5.370256424362321312e-02
-1.030537047625285502e-01
-3.768266051412971773e-02
-2.783599228415640017e-02
-3.796307049665009758e-02
-4.626397861330636130e-02
-1.454742408194205534e-02
-5.274110761617059606e-03
-1.519245901842576456e-02
2.119560471827278830e-02
-5.455003147642526612e-03
-4.371844196772166347e-02
-3.353646798985951416e-02
-3.327579752242476596e-02
-1.900883525754593073e-02
2.008180638647748262e-02
-9.724216708725206063e-03
-3.980584880908678846e-02
-5.576270992020669615e-02
-1.918433382925709835e-02
1.387413282641584630e-02
-5.166639384055483897e-02
-2.041740299670229825e-02
-1.347086759957057296e-02
-7.130682810849780714e-03
4.192564024284380075e-02
-1.647009662427758453e-02
-1.698163976895469482e-02
1.904954309441186933e-02
-4.903985814906618862e-02
-2.963634437816278777e-02
-2.034232058220493411e-02
-4.196595762574869409e-02
-4.098165180775419081e-02
-3.020098985462642965e-02
-1.912129303296219995e-04
-2.028049796648670119e-02
-4.800588820043839855e-03
-3.786388273010721228e-02
-4.065111737370934175e-02
-2.674585468672423944e-02
-1.306530348111278189e-02
1.192059513842874674e-02
-3.431111062704000902e-02
-9.025723583111003312e-04
-3.463697078513148370e-02
-1.158597564399301699e-02
-2.527375108310233459e-02
1.908523730681445027e-02
1.566084759497873846e-02
-4.129041066164250429e-02
8.732132270943184643e-04
7.318153417144155140e-03
8.708720617773342554e-03
5.806063954890336443e-02
