1.157393290462593205e+00
1.136024246105071134e+00
1.083008884404131456e+00
1.017754914210022399e+00
9.867831036431682357e-01
9.035053574639514418e-01
8.279408080234692546e-01
7.487530480961342993e-01
6.577601892780021720e-01
5.086304944651209858e-01
5.048672922996750856e-01
3.958140009565180306e-01
3.456396628444615704e-01
1.830208815545862622e-01
2.357463428198043609e-01
1.631035622939175644e-01
1.111818004475441379e-01
1.114461507961794773e-01
1.123162443359122242e-01
7.492832886503857093e-02
4.495726524051325140e-02
4.228655809703592283e-02
8.570095868517044191e-02
6.399740089160001200e-02
7.232095763214450856e-02
6.413511400129771889e-02
1.032967329464121592e-01
2.516811337444838786e-02
8.497243562137991868e-02
6.948257300993003482e-02
4.779632143570153313e-02
1.237372672244321098e-01
8.299753122448629006e-02
8.576879846691060072e-02
1.387088706379604186e-01
1.389582981082027047e-01
1.200587359738707477e-01
8.031163521214376710e-02
1.445590078012994051e-01
1.238163689451584337e-01
1.111393423215339959e-01
1.482994341336489053e-01
1.471914949404842243e-01
1.478966786052047511e-01
1.212685222117680234e-01
2.227541368010896028e-01
2.050595205579225644e-01
2.267470232931614038e-01
1.980681729865841068e-01
2.009559313564611427e-01
2.151657574577678367e-01
1.911279171915958586e-01
1.896003339368207974e-01
2.278575834332827177e-01
2.629033838162701531e-01
2.448917956918482131e-01
2.296376652581927635e-01
2.545621257393692050e-01
1.919580841724068121e-01
2.214861812394290086e-01
2.113063261885543276e-01
2.551625967612765611e-01
2.278306266012393444e-01
2.320289683252698965e-01
2.382396112848134129e-01
2.696713785777538619e-01
2.156615195936151530e-01
2.300581769928926046e-01
1.789467171065119711e-01
2.205283252856648779e-01
2.605284174482793702e-01
2.825194524950694897e-01
1.998394773570786043e-01
2.293910763462208291e-01
2.183870363172908113e-01
2.165416792695520065e-01
2.729679335499785586e-01
2.199678865913692605e-01
2.217768329491722479e-01
1.599359170652575601e-01
2.223023253794795540e-01
1.528512456910622597e-01
1.733297632973365143e-01
2.344632486158046425e-01
1.746748735140299102e-01
1.434987829154081851e-01
1.384933204242357330e-01
1.496994425129993533e-01
1.342984127273024464e-01
1.423224621334880646e-01
1.429707468970578821e-01
1.281808373461079398e-01
1.428087581206686496e-01
1.244206077858748538e-01
1.041999818431960378e-01
6.302751207619984586e-02
7.806163047203927563e-02
7.351883793808902667e-02
6.653110974302393898e-02
8.166214748404498902e-02
1.346335920470487224e-01
3.612477804285680466e-02
4.769336919577033679e-02
5.028941352151408695e-02
2.960138380204349606e-02
5.362057048643243534e-02
1.117695558908926301e-01
8.311557355599530350e-02
-9.922118850483635510e-03
8.898459032565272930e-02
1.376481567414522197e-03
3.939792312128860552e-02
2.867193292271288940e-02
2.030528442124684974e-02
3.743804184284833803e-02
7.833704807059133080e-02
9.223320692097261575e-04
9.133009233940423549e-03
3.041119648133059489e-02
-2.823264601164651721e-04
6.953682411033632049e-02
9.384632408725024702e-03
7.870370762756227767e-03
1.769030508215939379e-03
5.391084429880323159e-02
2.617595506960343835e-03
7.087501966325128813e-03
1.381159864818522903e-02
2.879923444829117496e-02
1.115528264024653535e-02
1.108742719760461709e-02
5.405587927604579845e-02
8.629771966756735746e-02
1.492666248407941397e-02
-1.515560583803013395e-02
3.774632604922511375e-02
2.041042950782672241e-02
3.300613104835624367e-02
3.461430426280687200e-02
5.008668182406565694e-02
4.748330378489326598e-02
-3.118459750176653944e-03
2.158061861998899003e-02
5.851025018190608024e-03
8.291798471018635430e-02
2.046542366706771698e-02
4.616297101100540201e-02
-5.409781459314168955e-03
-3.724903179246226437e-02
1.558055331788967164e-02
-1.066867348832780532e-02
-3.325901312866568621e-03
2.918954515290812790e-02
6.229437397569073664e-02
1.966641822886732241e-02
6.051491607443580667e-02
2.305702533583559380e-02
-1.965230985997154858e-02
1.197970621291859217e-02
8.821399637120266868e-02
3.854838583746134778e-02
-1.156678570889944219e-02
-1.044774929851963532e-02
3.916922878421975202e-02
1.850790069474528288e-02
7.969617376010691701e-02
2.258515279280718518e-02
9.839767673406817072e-02
5.724724239611985593e-02
5.489923039128395688e-02
3.496176686507680015e-02
7.827421740470286160e-02
9.565350097996344614e-02
6.788692109290205001e-02
6.892572088785847706e-02
1.208310659150143990e-01
1.113237494250739618e-01
1.788118717996339813e-01
1.079938512451860955e-01
1.170706558180128337e-01
8.431101059951237597e-02
9.910344844268384468e-02
1.579723265825825340e-01
9.877457980433007600e-02
1.712842110524631922e-01
1.424676123752252888e-01
2.154655078611251162e-01
1.817030990727374340e-01
1.279603174032767909e-01
1.330253595064164740e-01
1.306388850095883680e-01
2.243939713585069717e-01
1.857748356229798337e-01
1.796455193315624199e-01
1.966609053379353989e-01
1.429610668589048617e-01
1.785027697651391243e-01
1.817237926664991565e-01
2.459136479411649090e-01
1.858088852226683074e-01
2.125696906423783228e-01
1.976324183083422725e-01
1.798955762378360579e-01
1.110125617967162026e-01
1.762044815042025925e-01
1.322810219931911391e-01
1.253594696525728858e-01
1.195794559334654450e-01
1.598299728880795689e-01
1.332774068867347284e-01
1.527514454057356807e-01
1.091109144828739108e-01
1.260853276861644834e-01
1.527326893712303846e-01
1.081756956054559238e-01
1.719656230883930270e-01
1.763141836528285544e-01
2.243545542907634249e-01
2.258075070695489406e-01
3.082908496330322712e-01
3.279351113810689555e-01
3.657281836108529638e-01
4.723499908402991054e-01
5.499407159000790912e-01
6.252717038600457133e-01
7.314905341111377357e-01
8.421526166216796172e-01
8.970514873871431316e-01
1.001376764962283339e+00
1.076055809748981851e+00
1.079395697330687742e+00
1.114619410901392937e+00
1.154727277667495500e+00
1.209986988739186087e+00
1.216223787431547798e+00
1.212614807399891914e+00
1.093748370205426257e+00
1.043477063218971601e+00
9.312066033830198597e-01
8.522482779127560359e-01
8.249371966336596085e-01
7.104974022156477220e-01
5.898029739982708630e-01
5.360771377191880793e-01
4.662518901906396729e-01
3.876487346927441902e-01
2.958933030798027719e-01
2.958890752568925642e-01
1.981667579320241512e-01
2.088025165483662349e-01
1.958480642857699794e-01
1.730538096525861547e-01
1.253559800301635441e-01
1.405355726836069741e-01
1.048315193802272782e-01
9.279621319398263790e-02
6.609659354505256768e-02
2.438990394729003558e-02
5.638875838826892806e-02
1.423059984211164086e-01
1.252791764870274105e-01
1.456548265838061018e-01
1.069809455449312330e-01
1.373531210144248726e-01
1.640650354996222859e-01
1.580537367863076303e-01
1.306525827080845525e-01
1.027188026655150577e-01
1.494657829635992474e-01
1.422884131210467307e-01
1.704935206985938034e-01
1.266962584482568821e-01
1.598938090533253975e-01
2.278163501860538398e-01
2.138883437419137334e-01
2.049786755756536072e-01
2.441988432310886470e-01
2.190831148743950241e-01
2.144258518105787437e-01
2.529489860991215311e-01
2.321017174653763060e-01
2.467545455016764422e-01
2.627193949456793076e-01
2.968221651914055292e-01
2.134569251210272911e-01
2.326866564494857736e-01
2.095614005626040832e-01
2.776584219957900501e-01
2.975139379839052411e-01
2.978802580408338452e-01
3.155218356432111237e-01
3.286934342071458626e-01
3.332830122112048210e-01
2.928575050775441002e-01
2.977864543251668716e-01
2.982456799928562274e-01
2.907552259789565885e-01
3.053797003321110370e-01
2.918710811260014637e-01
2.730275028558519779e-01
3.320926843444876875e-01
2.376704086256513082e-01
2.601708507159608552e-01
2.690065657068977378e-01
2.629774755537078734e-01
2.069614501129751483e-01
3.011570169937940467e-01
2.436490632179199589e-01
2.903902162550184296e-01
2.299876090429806563e-01
2.783135139733331487e-01
2.800559852446531939e-01
2.354396662946330321e-01
2.504673507722197656e-01
2.006940553808594929e-01
1.455631551932001222e-01
1.902462855646136763e-01
2.137081594008011509e-01
2.333901856981380196e-01
2.293166889468623015e-01
2.021957046694507210e-01
1.704676624424882048e-01
1.905202023892779706e-01
1.993899091453717465e-01
1.243866720872975618e-01
1.876403045336322295e-01
1.368297132287182860e-01
1.495731835939725918e-01
1.231731326513049174e-01
9.260367836091155935e-02
1.685846600952335961e-01
1.557955096835789699e-01
1.295311557771239852e-01
1.358714541163602574e-01
8.714519098965722854e-02
9.424755896287678736e-02
4.050025048540146361e-02
8.184210930280874652e-02
1.026898016861371998e-01
7.399740564689494260e-02
1.166776705233304595e-01
1.314857195288684222e-01
7.117280077581622511e-02
7.692283486232881495e-02
1.057671201689528995e-01
4.497325045473170302e-02
7.813510165386605699e-02
4.409626400183565276e-02
1.101512890098799297e-01
7.288765550186554476e-02
8.744876684806425493e-02
3.777736643180781839e-02
-6.172954653592854779e-03
5.841305029139373661e-02
2.619341356485820754e-02
5.285815874265341330e-02
9.208421369577599047e-02
1.183745661765408796e-01
6.338993468532569397e-02
8.620602765822972524e-03
5.516506579190957882e-02
5.789111143150550698e-02
4.617935988046607820e-02
4.571474646947638193e-02
3.044924123317280934e-02
4.652865675976690374e-02
3.685144438309941733e-02
4.115923165347076113e-02
1.767688989020965024e-02
3.804015029895756878e-02
7.786164479331506016e-02
5.349419194993164373e-02
8.910549542241917587e-02
6.147955294900725454e-02
2.398413945090439869e-02
1.646948100994088948e-02
4.900589980425848480e-02
9.835146971909479452e-03
4.021704337597718781e-02
6.415636181891057332e-02
6.315938144540991783e-02
7.965950739424716709e-02
4.222842201945922053e-02
8.288408690058080008e-02
6.185045439510507281e-02
8.309375727054388316e-02
4.698116339973219813e-02
5.730050413204013787e-02
4.689751097866867030e-02
4.054781142039326491e-02
2.457246793349429637e-02
8.747188013314519117e-02
4.277837938863281175e-02
1.057982634007209738e-01
9.634920295339913232e-02
1.037683701557794713e-01
4.137276051768717933e-02
2.481703493550622974e-02
5.890175439168029298e-02
6.485745887025558265e-02
5.628669511547962356e-02
1.039498998801612895e-01
7.094796936388370057e-02
1.098639351646357176e-01
5.775975289731384577e-02
1.383214463830368390e-01
1.108122482405531350e-01
1.240094984388806221e-01
1.173201320162457484e-01
1.153135012587501590e-01
1.539207009448494978e-01
1.302216003345342543e-01
1.229786894844994427e-01
1.013716735638910821e-01
1.118089930860870773e-01
1.116127895410844451e-01
2.000731431950005246e-01
1.641222728476854353e-01
1.887616269312599182e-01
1.620972404993220595e-01
2.018701171301189035e-01
1.959994126375042001e-01
1.809901127929293974e-01
1.846275528301707658e-01
1.779892010001997149e-01
1.533756167101993639e-01
2.171010803576843562e-01
2.300847459746867552e-01
1.968771565801052947e-01
1.787972931040827662e-01
2.055657777742428971e-01
2.194011198337227908e-01
2.185159542624512952e-01
2.069423653333746504e-01
1.489822130309151060e-01
2.158343594894938655e-01
2.076204592139901939e-01
1.935714056248746262e-01
1.587591574275542261e-01
2.205295719807784660e-01
1.512589403769284968e-01
1.502443255967106372e-01
1.460350435369533184e-01
1.466252093590765804e-01
1.801549213211851574e-01
1.386286581966153231e-01
1.540193014547622252e-01
1.494499986735324248e-01
1.796754911638412389e-01
2.146083670086504080e-01
2.375346471766846268e-01
1.869318155303034690e-01
2.839353141399706959e-01
3.955552829509194623e-01
4.332304339757568346e-01
4.655816800383075771e-01
5.851664247703174393e-01
6.375829287177248172e-01
7.220496886255551861e-01
8.247058171034454821e-01
8.908834836900152432e-01
1.043279275761809899e+00
1.141580241759267533e+00
1.102877806069547884e+00
1.194689840522789481e+00
1.218985808172248664e+00
1.168294883591821209e+00
1.188217992488153518e+00
1.180842072949904953e+00
1.096430972783250635e+00
1.124177596640601573e+00
9.942445471872255469e-01
8.790696922632565968e-01
7.948315818749819295e-01
7.079607366161672077e-01
6.093019232949320463e-01
4.676838167433823856e-01
4.056702645890088998e-01
3.604238451528170017e-01
3.038170618848355375e-01
2.660499904005046434e-01
1.720943581596614258e-01
2.303218236143937947e-01
1.549225936680044824e-01
1.562259581049435797e-01
9.434457414429300859e-02
9.221340982664040509e-02
9.577984303303484215e-02
9.602202796765096915e-02
1.004573065103019081e-01
9.211668212607654338e-02
9.853020865563197339e-02
1.181559454789686270e-01
1.012125993154955744e-01
8.639264152090023186e-02
1.672873750184389052e-01
1.456544861268877777e-01
1.110166221631578853e-01
1.424155833591235210e-01
1.561938243696257556e-01
1.312916498462964043e-01
1.438018090641273727e-01
1.737512756661946101e-01
1.801695109202188783e-01
1.580555307134892395e-01
2.102927028065473269e-01
1.788955500819962019e-01
1.951522998806718978e-01
2.799094624173565915e-01
2.588260055778033863e-01
2.543225601829654514e-01
2.006446586631327189e-01
2.214870840317519907e-01
2.258945241715724084e-01
3.049929578969279298e-01
1.778028418356344675e-01
2.152530168214106809e-01
3.105873922283993172e-01
2.419417552717661180e-01
3.071568529827529148e-01
2.918341664933881141e-01
3.024828036146122168e-01
2.621878087225469889e-01
2.473649423908327039e-01
3.266684183602606151e-01
2.510481301019498179e-01
2.631943991870804300e-01
2.672918112418714576e-01
2.369139331164545337e-01
2.980497891577240099e-01
3.083077230819989412e-01
2.737289172216389455e-01
2.524829179006174984e-01
2.912848961669411429e-01
2.650962056135158784e-01
3.397419301302778694e-01
2.398782666180826473e-01
2.770729000141113896e-01
2.469386477067505026e-01
2.775842056116885614e-01
2.781061621911180004e-01
2.439954673721456413e-01
2.126535785610427776e-01
2.305765389041828373e-01
2.912425041143561488e-01
2.231936878794852641e-01
2.404747604565073416e-01
1.751894759958969316e-01
2.040619537798386840e-01
1.976712919963108384e-01
2.065611698458594825e-01
1.450220299749606367e-01
1.384811971445413237e-01
1.486836243815474745e-01
1.729350656921526397e-01
1.605496829471584896e-01
1.488962422857049994e-01
1.340995526007151828e-01
1.631480330297094272e-01
1.461487801851353296e-01
1.668448452206910126e-01
1.066541597668364261e-01
1.406744398819095299e-01
1.207236181439870770e-01
1.065848963704741498e-01
4.195701174718170778e-02
8.374108424586465538e-02
6.049945520787491232e-02
7.183189193409952877e-02
5.843075427589392717e-02
6.574264176092634027e-02
5.362413016956422279e-02
7.432596372623298531e-02
-2.635644500926098699e-02
6.353955434217960219e-02
6.467171879765981624e-02
7.110874875537258333e-02
5.484506795411638047e-02
6.412762203473228173e-02
4.371206203160383358e-03
6.729594491978226067e-02
3.376449684579742316e-02
2.473435774764063191e-02
6.137704877021052385e-02
3.189888877717182020e-02
5.428815291143342103e-03
6.211781182596010087e-02
2.893108727496915278e-03
-8.590815609700454963e-03
5.075806877665936523e-02
3.816548911418853052e-03
-4.125184202965585800e-03
5.114476035783675767e-02
1.494467031204031737e-03
7.152092554592681672e-02
6.264581500305993478e-02
5.966389718827629085e-02
6.930304682905688574e-02
-9.900918249549535421e-04
1.154947181960009617e-01
4.642824213784137177e-02
-5.911325303502995565e-05
-2.769271520650528479e-02
-1.283910102815336018e-02
-5.439726517853411825e-02
-3.476237515980876158e-04
1.709184551586734324e-02
4.452136446207892451e-02
-1.861949553873861601e-03
4.587249140925614421e-02
3.432760477150836875e-02
-1.416503009538823063e-02
9.752440137775516063e-03
2.126877643707413348e-02
5.550495657743787295e-03
7.103253204278398361e-03
-3.503130418024633791e-02
4.532569218949261680e-02
6.991425791348461483e-02
3.296713507275237515e-02
3.186630766056265662e-02
3.017765267493677586e-02
7.016415147717785725e-03
3.000076338313551610e-02
1.869835673627474881e-02
-1.584055111273261623e-02
4.072754104815806686e-02
4.385693177037575802e-02
8.270263330662544141e-03
3.721739690824016344e-02
5.063178164124931824e-02
2.431557065187168673e-02
1.800608316011273816e-02
6.976761157788392842e-02
6.935247354092152761e-02
2.868598798392919813e-02
4.903110987100882390e-02
6.115242886280678608e-02
1.204151745889834313e-01
1.009788020541285414e-01
5.555303254966981880e-02
4.082126083084660489e-02
4.822845271584352139e-02
8.241944761256780883e-02
8.294888146924829508e-02
4.722821628255651633e-02
1.249203192785974387e-01
1.181222338276637224e-01
7.004202121448560581e-02
1.210405717840816048e-01
1.248246173706845791e-01
1.498449762787956163e-01
1.353857450038465360e-01
1.264779302013597784e-01
1.643872902371274758e-01
1.508164457243582057e-01
2.074420075599519575e-01
1.881048356496187457e-01
1.885812140072876675e-01
1.810878455959344380e-01
1.699223129519072117e-01
1.171413090626409609e-01
1.514745996886121548e-01
1.190945711060851231e-01
1.387938825969449175e-01
1.247230861552269532e-01
1.482784320525739052e-01
1.320125443213645833e-01
1.623915722881811574e-01
1.362953902293929098e-01
1.112788592141762956e-01
1.793307969517914935e-01
1.321438256356651797e-01
1.427433263679760145e-01
1.226018346595911662e-01
8.722558444632239061e-02
1.118607633237040516e-01
1.158967541852128219e-01
9.691594079686019492e-02
1.296702655312167440e-01
7.972021748069212099e-02
1.021505591634129378e-01
1.659980280330149993e-01
2.250112606000376214e-01
1.907201063633933158e-01
2.536859957822488187e-01
3.080943952492278259e-01
4.066518396379672495e-01
4.321291302820345903e-01
5.238919559352656075e-01
6.034070161215747685e-01
6.969766005861981473e-01
7.530598348070007830e-01
9.018847977123357618e-01
9.114734277515232908e-01
9.717577738668841114e-01
1.058521411935912093e+00
1.136932854218100530e+00
1.178905052631437966e+00
1.168047796063472310e+00
1.131054234095322464e+00
1.142720600471095693e+00
1.077119208629035541e+00
9.747854307189731671e-01
8.930707646631673713e-01
8.197004472169853173e-01
7.532551824168987054e-01
6.384846250005618007e-01
5.817087868859677213e-01
4.346087286459647814e-01
3.639227505293792797e-01
2.950732157490142393e-01
2.839413815405814612e-01
2.024346281803164893e-01
1.982320494027261515e-01
1.409721083384028462e-01
1.450199769197294541e-01
7.249784972729519938e-02
1.178282439179431651e-01
9.271964742892248312e-02
1.117103985826950474e-01
6.193488216059227919e-02
-1.017504640238734229e-03
6.063565002932500003e-02
9.467066905173163183e-02
7.141351417951094516e-02
5.836647160819324193e-02
7.930569720065272499e-02
8.710975645399517131e-02
3.893568834639010018e-02
6.784043525287726528e-02
8.633255325944713676e-02
1.117108013801757505e-01
1.608930822773520786e-01
9.634163766947527463e-02
1.154847418967336337e-01
3.437570829645709980e-02
1.493546878990143212e-01
9.407454291787262224e-02
1.310999722526161038e-01
2.071100082919030971e-01
1.419703155787818416e-01
1.315658136505384046e-01
1.597896739410570865e-01
1.861406227363973098e-01
1.521379662928221965e-01
2.260343645723785766e-01
2.479780414846520786e-01
2.150555706267686107e-01
1.949051600028774700e-01
1.715739526660224890e-01
1.590683220794683606e-01
2.171294198295730948e-01
2.481529076789082966e-01
2.305119041053275419e-01
2.722484175961242259e-01
1.896285454912276791e-01
2.380878149212754813e-01
2.537815686056536513e-01
2.333993287573109809e-01
2.080511868363394967e-01
2.544208396224045265e-01
1.998520922158358026e-01
2.358530834351464933e-01
2.410352996600713948e-01
2.827271402410141410e-01
1.686766253865157883e-01
2.005032043587298696e-01
2.297736105563692455e-01
2.361703686917642764e-01
2.039350391430923837e-01
2.082417364898446477e-01
1.783557618881821405e-01
1.807786630382767212e-01
2.039932339539222150e-01
1.838167925761472477e-01
1.518969728563376864e-01
1.502113028468037847e-01
1.678353981804107109e-01
1.759147597936567275e-01
1.605737031650681934e-01
1.348807300395656883e-01
9.482272656337546735e-02
1.120276332040955752e-01
1.189820523114498430e-01
8.181035037790465592e-02
8.168869760549500592e-02
9.639658928425605400e-02
1.022576009020018661e-01
7.626572183741073263e-02
8.587973896536471585e-02
6.296691434665394049e-02
9.713922922898013401e-02
6.465718630913125375e-02
5.756031428582109033e-02
7.951747217361633535e-02
5.329972493950239920e-02
3.122882275674784824e-02
-3.319841015557087327e-04
8.351814152260883528e-02
-1.881489793685699879e-02
-3.058834387827451609e-02
-2.660256422216650610e-02
4.973049924322009430e-02
6.423699889019483800e-02
-1.994517022491356859e-02
2.117631597383504150e-02
2.460676690758306293e-02
-3.649775350360498494e-02
3.409136013241441387e-02
-3.784010225156327761e-02
3.270273638890107415e-02
-2.424607674625096215e-02
-2.616903306038109722e-02
-7.806982930441809521e-02
-1.411571749481909874e-02
1.455610523274132595e-02
-4.737937645452439811e-02
-2.646324115450300260e-02
-7.251986088045041245e-02
-3.257773541970362952e-02
-1.173969981441485774e-02
-9.125315865631214440e-03
-3.043662868825425596e-02
-1.110653853665793597e-02
-4.639267232734774898e-02
-8.604647361485828760e-02
-1.126716682143348927e-02
-2.240028832521979291e-02
-1.689709553074938975e-02
-4.533397557867275413e-02
-3.103568416604766955e-02
-2.633592009418785768e-02
-2.700626662090581387e-03
2.701322702566754524e-02
-6.211067258157910304e-02
-2.317265112794108031e-02
-5.513287392929965003e-02
-1.004196858946050652e-01
-4.787776102064680156e-03
-9.562095490125384345e-02
-4.866212667281254178e-02
-3.838446719284810404e-02
-7.634264504781607119e-02
-3.961239802536114379e-02
-1.453680188250394342e-02
-6.169560875266696942e-02
-1.568448026445450408e-02
-1.245954148524060917e-02
2.466237621110534822e-02
-1.845279778873894216e-03
-5.023086199149745523e-02
-4.144288680165123667e-02
-5.080826256099146149e-02
-6.143153342274963735e-02
-7.265100144451355768e-02
2.139285452529445658e-02
-6.884816530828051506e-02
-2.714562244100913666e-02
-4.291303916611238084e-02
-4.597611191439822387e-02
1.222664772941225303e-02
-1.723847248479112859e-03
-3.708116787988552376e-02
-2.811698434968270058e-02
-1.054475101819867672e-02
-5.924174974773527280e-02
-1.835643500784155460e-02
-2.393878810610393371e-03
2.077882587855307134e-02
-1.614426799988688196e-02
1.045366495230288378e-02
2.196712332561404774e-02
6.503906032746190058e-02
3.942099901358502717e-02
2.023030386377175360e-03
3.908185744525938948e-02
-1.738312488289121827e-02
5.462971214902034162e-02
8.258815024838511709e-02
8.299258936500167327e-02
5.912891171631429188e-02
2.943973465238931830e-02
3.019215229858376870e-02
1.311563836299563801e-01
-6.534439192837859789e-03
9.322895983256626606e-02
8.381899937947548396e-02
9.792369227319683289e-02
1.111367724563250836e-01
1.002634742928463774e-01
9.192439923309206340e-02
7.469750485539175533e-02
7.526519895579991681e-02
1.001392075522364034e-01
1.217947987584015457e-01
1.293986357209462312e-01
5.152929172220451631e-02
1.032130423185343149e-01
6.647361213415681203e-02
1.326991812400791226e-01
8.310697734028514583e-02
1.244431000443066426e-01
1.141229238629659221e-01
9.006694084377303566e-02
2.904443368590596541e-02
7.957522752968647362e-02
9.047518902418347220e-02
1.702886620324001871e-02
-6.574877866778926216e-03
2.328802026575982342e-02
5.041842385586668696e-02
8.110921954204178275e-02
8.438897163567243842e-02
5.379996510672255261e-02
5.875825937830549128e-02
2.261040543798671920e-01
1.693212835497834301e-01
2.234150533061192989e-01
3.068620040438002072e-01
3.039214563118818879e-01
3.674144530117612883e-01
4.623471256278613439e-01
5.437993147369575286e-01
6.015722738527692348e-01
7.584366783732591211e-01
8.408310533920357877e-01
8.810027595530269817e-01
1.007146822539553455e+00
1.057302554270866057e+00
1.047696917368273972e+00
1.063115594677496611e+00
1.041315936583430357e+00
1.107003900900723536e+00
1.037480954487255635e+00
1.006644259105181627e+00
9.362132740266363440e-01
8.590117354189164001e-01
7.849022014205564446e-01
6.788712585541765154e-01
5.435479848795647939e-01
4.903437371804377776e-01
3.947148130173899760e-01
3.719999632715393911e-01
2.664229661485190137e-01
2.387796689907111802e-01
1.067785847342036937e-01
1.419016110550315179e-01
7.612304127249977515e-02
5.956806388397263563e-02
1.402559330461789627e-02
4.265552297845025265e-02
1.303280034510358176e-02
7.031913568875138021e-02
3.476666223580479609e-02
4.077741859579628314e-02
3.976564274894634626e-02
4.807188314967688475e-02
4.168094269281891195e-02
6.029462225918649776e-02
2.015140485069939758e-02
4.370908933572973526e-02
-1.065392427562063954e-02
7.274733010359327179e-02
1.046791255509089552e-01
7.954030552335036863e-02
7.411925112087487666e-02
1.039908777597574885e-01
3.588196097857841715e-02
1.127391577444491755e-01
1.168981931301902033e-01
1.155388601226586820e-01
6.372388463133563108e-02
1.403315828563329315e-01
1.591510877772724097e-01
8.136588896067803445e-02
1.070485388056512943e-01
1.328984418772307108e-01
1.085368297127359549e-01
1.738983467007621520e-01
1.579089839808216766e-01
1.613080735930126075e-01
1.611124246160742512e-01
1.412101997781907703e-01
1.449018067039163915e-01
1.556947926505183599e-01
1.914201363583064031e-01
1.645333716868003782e-01
2.054918883448632050e-01
2.044843193426663652e-01
1.930169654224708764e-01
1.423246813888792706e-01
2.193894556548861008e-01
2.141647718221827423e-01
2.200340893854634550e-01
2.433468463850714247e-01
2.087623109017363310e-01
2.386452832237975774e-01
2.040820343025929740e-01
2.346450732266664174e-01
1.660834434935017090e-01
1.920344271511130185e-01
2.036259427804720246e-01
2.022113034371259832e-01
1.911649855508392171e-01
1.672364691930171565e-01
1.858314081476576951e-01
1.827548849404773690e-01
1.835451179985861936e-01
1.533057633220983873e-01
1.331784996998806869e-01
1.368141791842789057e-01
1.590715757025538690e-01
1.052131697044450809e-01
1.069819004840970172e-01
1.295841483337462074e-01
7.453818582114146718e-02
1.193811768169826815e-01
8.787135015937364013e-02
4.357559203733978731e-02
6.663764280528697292e-02
8.926159826951557408e-02
8.766888411603454556e-02
3.531891292427503937e-02
6.017667907697834412e-02
2.075784402916193427e-02
1.718314583832121489e-02
9.833814830130190032e-03
7.676150240389346957e-03
4.422517468986546935e-02
2.616693501523707083e-02
4.421581785879422077e-02
-1.842641024002694347e-02
4.580885905568506805e-02
-5.266575137354943120e-02
1.774126033554115217e-02
2.162715333185395716e-02
7.962492467011439423e-02
-3.310393941470006485e-02
-9.802511716472200876e-03
-6.609875111687227300e-02
3.116475708663239003e-02
2.018051537846572707e-02
-1.294629521842226294e-02
-3.092317474489213527e-02
1.752537208854169221e-02
-6.044914978306232395e-02
-2.259743280197497317e-02
-2.937545000388321406e-02
-6.969776148178311037e-02
-7.593429019100129962e-02
-3.876314463870065424e-02
-3.816939184304572741e-02
-1.889855245171993131e-02
-5.474130241495548527e-02
-6.286242877453931954e-02
-1.065238196200813531e-02
-5.997637335661206576e-02
-2.455094361164379332e-02
-1.695930193339292152e-02
-9.224033629930619704e-02
-4.789135644086819216e-02
-5.403632420730773017e-02
2.149034910057214670e-02
3.078731284727547618e-02
-4.040441918206273686e-03
-9.016550211134929937e-02
-8.008362434402521712e-02
-5.355285724748304332e-02
-1.486888833161384427e-02
-4.776138668063581449e-02
-1.927385626327494592e-02
-4.761774662782936041e-03
-6.578363797333089402e-02
-3.301708249505973941e-02
-1.759466256472992304e-02
-1.491686639293243744e-02
-4.800264630977906649e-02
-2.400789578612568323e-02
-9.388316285147413343e-03
-8.056529102179001145e-02
-6.012806760044119014e-02
-5.376454067462377306e-02
-7.317680761112668741e-02
-5.628816513314761905e-02
-4.456551507188782901e-02
-1.302483119098757358e-02
-5.908597235501845957e-02
-4.776845403768914533e-02
-3.989238994275080136e-02
-1.547781506138991292e-02
-1.185726031516230045e-02
-1.369999493642665156e-04
-9.163364863714307251e-02
6.287049143121531403e-03
-7.140199381079138929e-02
-9.314481482117982492e-02
-6.788734122691111872e-04
-6.907281965941561297e-02
-1.751978715988676896e-02
-3.684998709299822095e-04
1.136416110635056487e-02
-3.812170857720918044e-02
3.552027649354262684e-02
-3.324747099697526742e-02
-2.918002846215184132e-03
-1.032061104858612161e-02
4.098166570785111845e-02
2.814828578588920993e-02
7.862443761889326144e-02
1.061650063517830672e-01
1.589414139294745287e-02
6.216145125421061735e-02
2.902991821033619468e-02
5.217756921507229334e-02
8.348164805068467031e-02
5.939314317119546993e-02
5.843109864139402893e-02
1.396379276679591830e-01
6.932446153244280207e-02
1.105171830644004205e-01
1.279040705714220294e-01
9.630782080762098629e-02
1.394632481134869262e-01
6.136132881703747211e-02
8.222191711135287684e-02
1.745324733022634578e-01
1.218748841735974864e-01
7.340646217850584077e-02
1.017875063477738512e-01
9.565028255260621393e-02
1.364515148720649440e-01
1.024039220860859800e-01
1.350078249397719810e-01
1.083318707999493119e-01
1.204314287396298366e-01
1.304974404049120407e-01
7.628065457342511624e-02
7.304296218015482456e-02
3.185552853440413307e-02
1.158190982378088513e-02
6.141055965119929932e-02
7.733668958654468795e-02
-5.331608243513849543e-03
1.160735841684640279e-01
2.932200389159569237e-02
8.669290104504998040e-02
1.295426235553689409e-01
1.147500512125408378e-01
1.703390616594438189e-01
2.130225026562156954e-01
2.040696096506728063e-01
3.039437950177334424e-01
3.344421812732998878e-01
3.682002077130953621e-01
4.897949375375583170e-01
5.902141910726884655e-01
6.754546615039549451e-01
7.206060731004275688e-01
7.753640667774488460e-01
8.944059657090556170e-01
1.025102680047093928e+00
1.010700656318294532e+00
1.084654027620173933e+00
1.120975194995523783e+00
1.151318509315501615e+00
1.070751098667160450e+00
1.051819583068990038e+00
9.912235683863084290e-01
9.444028023035424546e-01
8.803780966325562840e-01
7.862083897545418809e-01
7.078449450986766811e-01
6.332838323854872442e-01
5.152418340240346728e-01
4.089806174562307106e-01
3.445200493240894724e-01
2.746776849122168351e-01
1.613778359627801584e-01
1.229989238109819027e-01
1.270463142281164914e-01
6.784607048627264159e-02
6.878838280910572200e-02
1.177300249534400933e-01
-2.148117443333023152e-02
3.862003518758425069e-02
8.559144058904810670e-02
2.753023360231612870e-02
1.295993502811831552e-02
8.195091852020032486e-02
6.920416903251866425e-02
8.840825945872737845e-03
2.046487541052487841e-02
5.757520554253910128e-02
4.271252749404812199e-02
9.800982435641832080e-02
5.424036476241295146e-02
8.102287488187817632e-02
3.994004533174883020e-02
1.124912604908000768e-01
1.011250335393315269e-01
1.236538490637048571e-01
7.141961460971124609e-02
1.819611993839136965e-01
1.230390932185456143e-01
9.635861290297564885e-02
1.857668693119653436e-01
1.187453083700521772e-01
1.039174739517436802e-01
1.221585235418835985e-01
1.871289478139990525e-01
1.531474626189833210e-01
1.567362266117098279e-01
2.398909149700548804e-01
1.764195984322999844e-01
2.465569198454415911e-01
2.363724981944425318e-01
1.588553698794980540e-01
2.247882972301504245e-01
1.839428340638631088e-01
2.457078668961725221e-01
2.061792097357549036e-01
2.398316346749169437e-01
2.102574047620352771e-01
2.413864129893135702e-01
2.936697755058307879e-01
2.034931933468750453e-01
2.002901857269454577e-01
2.014156375166574198e-01
2.180989758654883481e-01
2.214981820691161729e-01
2.224531121107296561e-01
1.759924737401410977e-01
1.905246032177776716e-01
2.560523938410347311e-01
2.433536505021876850e-01
2.014964126705967029e-01
2.409447806991726337e-01
1.902673531035682097e-01
1.779645226808891090e-01
2.087087600148976319e-01
1.681373573264114407e-01
1.781856282624434962e-01
1.759758277894137024e-01
1.162639934557791743e-01
1.804039238518347077e-01
1.792259774024374530e-01
1.634616974527138278e-01
1.557375022053939517e-01
1.330036464163242560e-01
1.071768169082945171e-01
1.102340280911318360e-01
1.434743500954357154e-01
1.141425227386363705e-01
1.130262902214584503e-01
6.212714361015734404e-02
3.724491828436251456e-02
9.906372333103287409e-02
9.148856780577938053e-02
7.255635431907003774e-02
8.179591777504502392e-02
8.300785877536820401e-02
5.025219765961847634e-02
-9.025750893589810572e-03
4.176283501981189333e-02
7.375156964032705820e-02
7.800127016189532803e-03
5.705101247923705099e-02
5.109589800699890216e-02
3.002904867947756712e-02
5.389899698309041226e-02
3.365905348508661799e-04
1.199338269487126331e-02
5.171397404900481692e-02
1.681408353842524933e-02
3.308232120605035520e-02
1.882923191436588692e-02
-3.303075968876381663e-02
-1.382580561120367452e-02
2.541753326502967786e-02
1.982760433710752807e-02
5.198425659869043008e-02
-1.857052277582310271e-02
2.176938553020234951e-02
-3.062348419591620283e-02
1.188418644446813041e-02
-5.427252587789910092e-03
2.689624037685622165e-02
-2.731536531499940620e-02
-6.057931063168250918e-02
-1.502579961463767350e-02
-1.964686118743799725e-02
-3.505670370584718781e-02
2.968487527114806179e-02
-1.865169218649307065e-03
2.674259844459410396e-02
-4.351350841888189727e-03
-6.082316163856691174e-03
2.572895056025651869e-02
-2.636758909497792167e-02
6.411559594273680274e-02
-2.830352193964474645e-04
3.002699945016941430e-02
-5.108837379592622713e-02
3.171241763650297502e-02
-3.778544425366580500e-02
-5.489546972927785741e-03
4.206000612589314708e-02
8.314522682516560168e-03
1.948659666230840790e-02
-7.340239936591619330e-02
-6.246571990817878506e-02
-1.812739666572019126e-02
1.045063519602188471e-03
-2.971240428282383855e-02
-4.246248204296034293e-03
4.698794533467341716e-02
2.337566142945990064e-02
-3.172930504026551246e-02
-3.288095965840436008e-02
5.102541238020055769e-02
-1.059905162883361882e-02
-2.586571071919154322e-02
1.629949661701202493e-02
1.812884320127899213e-02
1.740344078621551896e-02
2.447965273286751599e-03
3.802080964898658932e-02
4.050275080965662355e-02
3.316436354840746059e-04
-6.775543996175604870e-03
3.181625542903145608e-03
2.816354932150179000e-02
1.003519116005373302e-03
1.192522473245478075e-03
3.372296209843776010e-02
4.434048631368714410e-02
4.702283207800364573e-02
6.276496671023840124e-02
-9.984921041084891466e-03
5.510541769208082002e-02
4.833711513238639346e-02
8.249850060166349919e-02
1.135346221702006886e-01
1.375578422070704854e-01
4.473399588743361827e-02
1.183475569685375622e-01
1.574704772123839414e-01
1.568043928271743992e-01
1.360560583712108473e-01
1.552019061648777509e-01
1.306070690415139512e-01
1.686265405039859278e-01
1.152407426438965959e-01
1.190939006215171458e-01
1.982080861240867742e-01
2.424661405512550105e-01
1.382432908383740000e-01
1.711955895900418856e-01
2.191661516463230819e-01
1.778383385014074003e-01
1.834199447980006392e-01
1.748557690102484630e-01
1.606482584519504930e-01
1.637971024457695879e-01
1.854551421533180977e-01
1.320441719030297223e-01
1.940754850016368771e-01
1.386640217189202828e-01
1.402632452429362908e-01
1.848616318899027056e-01
1.318712498009235734e-01
1.101830802621467653e-01
1.042244334760442648e-01
1.620040744621983886e-01
1.380506381977327501e-01
1.123865538399392017e-01
1.881314198546692185e-01
1.219790993223242442e-01
1.003220195848601032e-01
1.151770395208760733e-01
1.381511923865347269e-01
1.688736454738966608e-01
2.226897323816500185e-01
2.506719774865409645e-01
3.690038126535733487e-01
4.158487445694561413e-01
5.283041619868992234e-01
5.949523261437386079e-01
6.099354440645925468e-01
7.336830172270508710e-01
8.787111695779581400e-01
9.045858394105588118e-01
1.021036745880333996e+00
1.060249869985983473e+00
1.137234582089140078e+00
1.163794725954496734e+00
1.179836231149435921e+00
1.139384546177605984e+00
1.140915985936028942e+00
1.098880796036483920e+00
1.073519924755358623e+00
1.039376517184245952e+00
8.734492491176438778e-01
8.810828935431094244e-01
8.031098948787613878e-01
6.773746371166499136e-01
5.223776120613398133e-01
4.989902991838592317e-01
4.013956820595460107e-01
3.043130546446659590e-01
2.702370632244137094e-01
2.445140604340502455e-01
1.618202766138808757e-01
1.146095649131803063e-01
1.011090020928305383e-01
1.406474591096698035e-01
6.673902459360944728e-02
1.040979592220301619e-01
1.143285810820494353e-01
1.333981812327147409e-01
6.946289534091695805e-02
9.973415347988576207e-02
8.571454666161011648e-02
1.161920355045725772e-01
7.515662181848108137e-02
9.579310989703709867e-02
8.299929083836532495e-02
6.501310720273292820e-02
1.352212548828725103e-01
1.606509497229320349e-01
1.123610887802168334e-01
1.420948929895234913e-01
2.000284436228171592e-01
1.141840271406634466e-01
1.985458207921788620e-01
1.729452923294583222e-01
1.872185362047647517e-01
1.797834983932652952e-01
1.658889304173997437e-01
2.026170063657607434e-01
1.613144997324329200e-01
1.511563377094793936e-01
2.241970667646621396e-01
1.798302270265904890e-01
2.437841225208912666e-01
2.424265622861887237e-01
2.790080944833429610e-01
2.691814524831907529e-01
2.584084207944591371e-01
2.769842152780175870e-01
2.602476348906390125e-01
2.580227821613531591e-01
2.546734161615251679e-01
3.049801258201536580e-01
2.545403293985855075e-01
2.602377501998126008e-01
2.734630438903055127e-01
2.861046342040182155e-01
2.614249382463543214e-01
2.751442384382636330e-01
2.744682018719065142e-01
2.790994952348759273e-01
2.710700565036924248e-01
2.714038601537161477e-01
2.271993291158347084e-01
2.978317163903879683e-01
2.483429522438990178e-01
2.638440959493858484e-01
2.454624217051679658e-01
2.942422442922592585e-01
2.608138501095496609e-01
2.850785846576855964e-01
2.709656608760847019e-01
2.299779773249961135e-01
2.441778186649889160e-01
2.466712612936002857e-01
1.920224929195174790e-01
2.650619855290372584e-01
2.533904404971321633e-01
2.475798712156944137e-01
2.020191298033296445e-01
1.857839860301878365e-01
1.567578782139966154e-01
2.246378279513451537e-01
1.806175703243624864e-01
2.344555489335991005e-01
1.338996514375751234e-01
9.741320511033693674e-02
1.201801136054116287e-01
1.553705394582433064e-01
1.059995166599745353e-01
9.605729611342385399e-02
1.682169844857103469e-01
1.186615051478167038e-01
1.347216569749731252e-01
7.018050132811390340e-02
8.635412213345664001e-02
1.189458996479066805e-01
1.103449663810192050e-01
1.597444560097528443e-01
6.975509075873474740e-02
9.591049864885189957e-02
9.913979334445638392e-02
9.552826959285909414e-02
8.378534610528227955e-02
7.951315803686748174e-02
1.011519108539919859e-01
6.079348600041872830e-02
1.035676772359309938e-01
4.606187660663331462e-02
1.938936132243583230e-02
1.152405475677350799e-01
5.686278829653218514e-02
2.379676362598414502e-02
6.756434120757662254e-02
3.024299493304917139e-02
9.559268397148915075e-02
3.745441526505735585e-02
6.840176981304757486e-02
7.910723974387109947e-02
4.510645413580106899e-02
4.613357205083613161e-02
7.202337270960106064e-02
5.517142778571125505e-02
2.929107647558430033e-02
1.885040672341398160e-02
5.225896528379003064e-02
5.525387211496753104e-02
7.017782898873591024e-02
8.183797650880829389e-02
1.791275070796454622e-02
4.367584099767719136e-02
5.747536680578425872e-02
2.802734055967375654e-02
2.305875710886963817e-02
6.771418119036923255e-02
3.407906672649933799e-02
-1.580787381431411620e-02
5.482696998569840108e-02
1.128720634084733887e-01
6.683627208222248095e-02
8.398477346899274609e-02
2.854020152304131280e-02
1.747061464389035659e-02
7.408209644810530292e-02
4.703113334713260318e-02
3.221800536363134126e-02
7.248847011662275241e-02
5.496700296556975007e-02
6.516163045117001618e-02
7.375209824158873717e-03
8.130490875148582708e-02
6.622057593390012764e-02
7.399935103830782013e-02
-2.718233146448950643e-03
4.657743474373614995e-02
2.662650013119138848e-02
5.505189231951630735e-02
5.673357641992733680e-02
8.693436854076129483e-02
1.017232798024406831e-01
1.048906912044403894e-01
1.083810794738864491e-01
2.223313009643755958e-02
7.335599751910273914e-02
6.152275660133227353e-02
9.342937052280446408e-02
5.614859274900195485e-02
7.007351185612616107e-02
1.073357332856892943e-01
1.571135741825542553e-01
1.542005847942507224e-01
1.316118606065253271e-01
1.232070621638926000e-01
7.764197280756045261e-02
1.766227015609572459e-01
2.039292005068835401e-01
8.839132429947055281e-02
1.378624098176667312e-01
1.818687514060357557e-01
1.982182388229047076e-01
1.159273203449736056e-01
1.103126869647941127e-01
1.933756545855756515e-01
1.773429106744592310e-01
2.480602283509469042e-01
1.623232296991279633e-01
1.554692357164267624e-01
2.257136219566247548e-01
2.271635722780745437e-01
1.801091893101298691e-01
1.704925392322112210e-01
1.990745933005719503e-01
1.925794252696711450e-01
2.213910226346764432e-01
2.654634498585111135e-01
1.783232632831820152e-01
1.753221995975657865e-01
1.770776114364725484e-01
1.871180585670176311e-01
1.578595990885964806e-01
1.429206580520815395e-01
1.488046730166096565e-01
1.664826982905682762e-01
2.193123279357217237e-01
1.813334746499523364e-01
1.378969425594614162e-01
2.055413963448947390e-01
1.620955337346633995e-01
1.650891829420579604e-01
9.031215499632615218e-02
2.011497674601143149e-01
1.695875114331123479e-01
2.404262175960089065e-01
2.500064729064179758e-01
2.711112588548880709e-01
3.305109314680977350e-01
3.938981447624341214e-01
4.213927887527769700e-01
4.425697812594091007e-01
5.367579059770358763e-01
6.683332069599612346e-01
7.585155552911037047e-01
8.745279074542383624e-01
9.112902036347214629e-01
9.595374937518198477e-01
1.099787341873677882e+00
1.142189391561929224e+00
1.220367127587681511e+00
1.218780797671935812e+00
1.225969631290584783e+00
1.131735119625294272e+00
1.155067480831562410e+00
1.106848981727071690e+00
1.001614572029719152e+00
9.474778316340640716e-01
8.494009250828292723e-01
7.990892896621958341e-01
6.501769856941888026e-01
5.668141687592660460e-01
5.365890708494404082e-01
3.971652464807176597e-01
3.326913131367852383e-01
2.845254778389742500e-01
2.648537330960898384e-01
2.550201128833960995e-01
2.130487919536503127e-01
1.514356301158707452e-01
1.762810583976115453e-01
1.251336722872807838e-01
9.361698421113719137e-02
1.714897936658667799e-01
9.146764701906015538e-02
1.224064117538915808e-01
1.273073939308463354e-01
1.416463357676313595e-01
9.396382074163768527e-02
1.157037037637446697e-01
2.134212272184632664e-01
1.118841645562031750e-01
1.813946773572666094e-01
1.992357735598978552e-01
1.569065729261706066e-01
1.612310557520925669e-01
8.492954128945942593e-02
1.900397532382941124e-01
1.764909419074403296e-01
2.097812691968119758e-01
1.475247975999209038e-01
2.095446237879106388e-01
2.120564084534942439e-01
1.967986762163065617e-01
2.411593679879193708e-01
1.892576095057641183e-01
2.385789884992188803e-01
2.399465423680265386e-01
2.773118416963082922e-01
3.422490264657404024e-01
2.612360058923473005e-01
2.604976930814680847e-01
2.441594048392209948e-01
2.502918877163028966e-01
2.718473715735145735e-01
3.167642523063637361e-01
3.033833879222599950e-01
2.670585133320573235e-01
3.553655392501967603e-01
2.689148518177601477e-01
1.953388705436396588e-01
2.820356147174256090e-01
3.100383533676651648e-01
3.444870549584608810e-01
2.968411893225061937e-01
3.651323575419807010e-01
3.093964075752389520e-01
2.487071310589931139e-01
2.261519586550601868e-01
3.121836541745231508e-01
3.072172724872687666e-01
3.036641694048244355e-01
3.424958192905969145e-01
2.533088639393831221e-01
2.549576124939960664e-01
2.238690582244051153e-01
2.851496127753572196e-01
2.654003511213524624e-01
2.493613303028966721e-01
2.548815363115120025e-01
2.523154795022484187e-01
2.343209683976386626e-01
2.215345454289168459e-01
1.982757951663906837e-01
1.289770183471557474e-01
1.754537606909424285e-01
2.538017232279501934e-01
2.001016858781355934e-01
2.173986870631947343e-01
1.743118302306182477e-01
1.977879686175171292e-01
1.084023855646359669e-01
1.258775779280608131e-01
1.828400279091822456e-01
1.560697250271224634e-01
1.469549124956800179e-01
1.176109201178685976e-01
1.404227535245123337e-01
1.541328224949187753e-01
1.756560175308217175e-01
1.701553056191529023e-01
1.391005553100131964e-01
7.554512749855005205e-02
8.447408905636502596e-02
1.258330681307134324e-01
1.125991119932629181e-01
5.625746546996260311e-02
5.999381519203026564e-02
1.047184346145611095e-01
5.368738177781098853e-02
1.000219966534590110e-01
6.624153874412133658e-02
5.120902506394990616e-02
1.170942249207544000e-01
1.100488363829018115e-02
9.579932920526892937e-02
6.178058469269543523e-02
3.132462427887678508e-02
4.204524460501216782e-02
2.971856246376896465e-02
2.523462935658373624e-02
7.045287652940511458e-02
6.316995701043282008e-02
4.414235013657207690e-02
7.589968846737424335e-02
3.669449015360232158e-03
-1.394487159406076343e-02
6.179943355667392307e-02
-1.757116825011977024e-02
4.687850625076908639e-02
6.929373071868680234e-02
8.305196705895032117e-02
6.768039076912081564e-02
-6.953395064578940521e-03
2.098369247450303232e-02
1.378557135774671760e-03
8.449603901514424198e-02
4.625577317387460918e-02
1.348054755890321088e-01
3.959261962030351245e-02
3.324132814465867447e-02
6.683922827314453530e-02
1.953329481559303721e-02
7.331861532936712056e-02
5.765514914690007819e-02
2.257015225549267173e-02
2.051627721516057629e-02
5.878699678519261340e-02
2.429089987482423163e-02
3.892484996899813615e-02
1.957654321876012293e-02
8.458359080212505404e-03
3.193601022505417053e-02
1.825730455480893688e-02
7.546871967980286339e-03
8.852474804356655347e-02
1.681013499996209665e-02
5.090047504385407373e-02
1.526001899590298527e-02
6.346618459561523262e-02
5.521688616536155753e-03
-2.283475714582718780e-02
4.730604777005413542e-02
5.650076606594314765e-02
6.028246255435143475e-02
3.688864227429722309e-02
4.265551341154380505e-02
3.415803955122974356e-02
8.906212621215164882e-02
1.079889493800751110e-01
1.048264832151299258e-01
3.475225014649005462e-02
2.963730748259459785e-02
4.613620663099144564e-02
1.027638353111446079e-01
2.910970475983337691e-02
8.594337789798686678e-02
6.089953757741595197e-02
7.050357869104510733e-02
5.158081605445222900e-02
1.375323656983495346e-01
1.450021458154891474e-01
1.268324309787331461e-01
9.302197797495520559e-02
1.297150205563222802e-01
1.068303068564926406e-01
1.593288256217341159e-01
1.201472388928547241e-01
1.998501593499905638e-01
9.901472236762270951e-02
1.473641681853160856e-01
1.597978097709563949e-01
1.925635607007523953e-01
1.249560562334829095e-01
1.744277434036416441e-01
1.735400097866114377e-01
1.637178243496077990e-01
2.089204395076421084e-01
1.802855428827778439e-01
2.182531295626443102e-01
1.542441911120723819e-01
2.180703420663628322e-01
1.757112627083092515e-01
2.065128409313500002e-01
1.340740595316662342e-01
1.748637142915438480e-01
1.325686805552784842e-01
1.421424638613825175e-01
9.082591122952421436e-02
1.586227357621621814e-01
9.067514795995111621e-02
1.828686394063086806e-01
1.562212841658204010e-01
1.422699027757243218e-01
1.338414026939122869e-01
1.361531183373495268e-01
1.352182481636055311e-01
1.551584014137721845e-01
1.537489718893950141e-01
2.205146105029963943e-01
2.369386230663591275e-01
3.019073253017982572e-01
3.606505793123497838e-01
4.113640262369367417e-01
4.411092730841231213e-01
5.842607934494508104e-01
6.821967329915513689e-01
7.846090694210160477e-01
7.693256418717422385e-01
9.457741179629255424e-01
9.722990956256695183e-01
1.054334391071957144e+00
1.139037658059199876e+00
1.112498008695515850e+00
1.145278933798599352e+00
1.190071851355765320e+00
1.147185964249543000e+00
1.120775928684642153e+00
1.071584875935676751e+00
9.760160244178415212e-01
8.767200379629704887e-01
7.476594583359207347e-01
7.742598265159900128e-01
6.327327631630643712e-01
6.007407211921242940e-01
4.490666575723042397e-01
4.511726225581492167e-01
3.177748523499777100e-01
2.785961746869075051e-01
2.146107261116937115e-01
1.141434440567593023e-01
8.936497182124594763e-02
1.627160759737264761e-01
6.008524022900930267e-02
9.292871117400286485e-02
9.083027475615804147e-02
9.118635708524272521e-02
1.284171769747737557e-01
6.053552087955690886e-02
4.688206764535687854e-02
7.588642805101759869e-02
6.264167411652309114e-02
8.782081963316507034e-02
5.369281408232674802e-02
9.493079294901864140e-02
9.992746793214775380e-02
1.079903340727643296e-01
9.469681085058048731e-02
1.198381828184131997e-01
1.132759507414442535e-01
1.810747952287244666e-01
1.018395311818500737e-01
1.962195914865742241e-01
1.057445085211269620e-01
1.338362437217538448e-01
1.956190747579156231e-01
1.389121419318503636e-01
1.817136022265396222e-01
1.965138741674328227e-01
1.966888358815243321e-01
2.135359946006879506e-01
2.168961522796024888e-01
2.047612346882473622e-01
2.213431513657121985e-01
2.153782791506998195e-01
1.771163425646185008e-01
2.558668919202327641e-01
1.985167759622618044e-01
2.305103540636604664e-01
2.056728313905670236e-01
2.525487866246157176e-01
2.998025924763522698e-01
1.968505027038275901e-01
2.741603207109578610e-01
2.382838769845251059e-01
2.849280316002678060e-01
2.939074263782630592e-01
2.593071077857481699e-01
1.928329671042792737e-01
2.779953863891820864e-01
2.030286208536337955e-01
2.323437664551325221e-01
2.598882731584337136e-01
2.560134504889553519e-01
1.885591783469702520e-01
2.217780166274748166e-01
2.252267000727522506e-01
2.523969308667042832e-01
2.221548912047135171e-01
1.888175274699366857e-01
2.002880733537067137e-01
2.502818851808959466e-01
1.529132233352742676e-01
1.787307508976185288e-01
1.707291789898719436e-01
1.348783166021424174e-01
1.726927430078106507e-01
1.958739381248620071e-01
1.584243832907384908e-01
9.293824041597183172e-02
1.222627736199941445e-01
1.763069795487180458e-01
1.704838461809328742e-01
1.314543236399053627e-01
1.279547556420624621e-01
9.760530172704191820e-02
1.262549462552062518e-01
1.174231056687491948e-01
8.055793985052669970e-02
1.439426445287405043e-01
6.583583252849574408e-02
5.940584211371758433e-02
6.441305693763438311e-02
3.343127514080258128e-02
1.152113256419004007e-02
2.498032750505722877e-02
2.229556663965150468e-02
1.495706764624877248e-02
3.198172507194346065e-02
3.592990493976569444e-02
1.175084016195002135e-02
4.662724745771203855e-02
1.516739594325001821e-02
6.298010125576332385e-02
5.133261162020931467e-02
-1.311772695589227475e-02
2.325573863833913998e-02
-2.229120311868479018e-02
2.816549912032939584e-02
-3.560922137168321192e-03
-1.937124476442588644e-02
-2.166131692676354081e-02
-4.274480095891469017e-03
3.509539334011611833e-02
-3.154672891652436639e-02
-2.416313160133205101e-02
1.353420509518489349e-02
-2.172769290709555129e-02
4.337295182358549828e-03
-1.718313304775247879e-02
-5.579330448665129061e-02
2.825324664403124769e-02
1.099812011161196632e-02
-1.147522525616519184e-02
-1.432887193751310878e-02
-3.955285847248517922e-02
1.697470989977592493e-03
-6.993553030072791055e-02
9.199241678519192583e-03
-1.774103460842909458e-02
9.494851071722022751e-03
4.104935831767193843e-03
-6.673792719020980868e-02
1.428280433496592269e-02
1.130396104545161942e-02
-4.602628252862056568e-02
-4.593423336711711935e-02
-5.469989180420387065e-02
-5.804819866004305717e-03
-2.665414761804460464e-02
-5.095795082289540645e-02
-5.095002672824663209e-02
-5.824372611553028239e-03
-2.249587118503797861e-03
-4.030282892412173634e-02
-3.270615349144077866e-02
-2.694931639968111206e-02
7.955196236225616641e-03
-3.331365616722752748e-02
6.719363160780211092e-03
-3.071421621353011971e-03
-1.445432002315531934e-02
-6.901004033899017787e-02
4.102000057187242532e-02
-2.949950032891959784e-02
-4.141159679434547325e-02
-5.581466410340425038e-02
-9.724264003240744303e-04
1.985444399907605739e-02
-1.668994112416645817e-02
1.151736879254175797e-02
1.857025729540826703e-02
1.696187367856830108e-02
7.351862809045373037e-02
-1.828741583013891725e-02
-3.221675224460809200e-02
8.878361635812993813e-03
4.236495013417839600e-03
6.801674763319938422e-02
2.858977694344325485e-02
1.258006315920823237e-02
-2.508025224530769509e-03
2.020156677153492689e-02
6.303759760171964710e-02
4.915299431189418256e-02
2.909762977170515796e-02
6.052896895388200360e-02
5.954680290591736480e-02
5.553556101991914684e-02
5.340974194329643071e-02
1.167851005555194110e-01
9.567201735555819209e-02
1.373018680896340715e-01
1.202421424523728577e-01
1.086260346669244564e-01
1.149065802065122599e-01
1.012285670718313657e-01
1.564831517481104495e-01
1.418750999965711079e-01
1.264693333372221562e-01
1.482385983034089916e-01
9.543206585187118118e-02
1.215367805478434482e-01
9.015844094257702279e-02
7.693433615508260548e-02
1.195994022427199627e-01
1.632943151376282931e-01
6.988413231419231264e-02
7.858961974321997113e-02
5.662374843524221185e-02
9.583277911257308268e-02
1.595728795428196650e-02
5.127295889314194971e-02
8.072251440360123098e-02
3.998207598802246132e-02
7.581806286169262554e-02
2.441498722420955975e-02
2.020072926926326506e-02
3.536461744933713791e-02
5.948672531285755655e-02
1.073119999226557486e-01
1.269984748224623483e-01
1.816350998150284557e-01
1.438914527059656778e-01
2.510692268138916550e-01
2.450860131403662101e-01
3.343620372588316791e-01
4.642484214490323891e-01
5.570257534431950486e-01
6.103844295464007086e-01
6.861301168691518182e-01
8.003263934240262278e-01
8.550075278768345388e-01
9.508233271415619248e-01
1.055736047582932713e+00
1.108060845059222865e+00
1.160145008996782190e+00
1.151982861943292358e+00
1.088431073136215010e+00
1.104214266763180907e+00
1.083681109718642954e+00
9.716052167162274600e-01
9.144683431044642319e-01
8.315400892603570515e-01
7.454391044063887195e-01
6.826060274537772976e-01
5.285771882441205882e-01
4.721136491112580824e-01
3.611025411949990715e-01
2.927859654416844482e-01
2.793079556966580057e-01
2.384288671063714837e-01
1.705418074183412125e-01
1.157140038336591792e-01
1.180589264732990196e-01
6.243012972844853153e-02
3.309672641675667076e-02
6.405677173174038896e-02
2.196119949787625480e-02
4.247029101065499801e-02
1.241230826572539692e-02
-3.661680618143617338e-02
3.565281698998690185e-02
3.995967065996901268e-02
-1.318107597650337859e-03
1.427810163194964677e-02
3.085801799767896869e-02
6.813490201617584952e-02
6.449086259701766743e-02
5.131251902190553382e-02
7.489080952541127267e-02
6.920036999142820111e-02
4.332045547624121390e-02
6.698677101229166819e-02
8.586606862434900678e-02
2.622315177723821139e-02
1.141346084285986551e-01
1.313639156894127469e-01
1.056236449671984212e-01
1.188511569481710273e-01
1.499738291704880710e-01
1.547192026690148436e-01
7.767212161618562705e-02
1.600297271183576675e-01
1.285550860756513314e-01
1.679145545547723051e-01
1.534063384724529966e-01
2.083148459954520804e-01
1.480068052663853773e-01
2.059016142783659242e-01
1.686863908875870788e-01
1.452250891512557873e-01
1.765790007160462360e-01
2.041161430011581013e-01
1.933534360712900746e-01
2.282569865877334125e-01
2.061621747774478319e-01
1.915160351668343808e-01
2.102942703119063395e-01
2.200768190342437258e-01
1.680475635833333370e-01
1.886308574781122571e-01
1.923437337885992304e-01
1.985685397657512841e-01
2.272115479754172329e-01
1.786903898195758567e-01
2.058728966716700526e-01
1.880777560999098430e-01
1.990297243089623747e-01
2.052401695784438485e-01
1.722591965685572601e-01
1.760961273004519323e-01
2.561170682178811053e-01
1.508221878008795258e-01
2.003042561557005774e-01
1.283880502786210742e-01
1.140982990846312606e-01
9.689933047260794463e-02
1.201699104182123168e-01
1.660000261783644016e-01
7.508568950032777634e-02
1.251988306766025627e-01
6.333141452158808082e-02
8.640565778051401136e-02
4.801904110214706700e-02
4.730497601923285694e-02
7.685038125217448501e-02
1.007940973424694686e-01
7.583535990970019514e-02
2.201073730635437486e-02
4.675851918033475246e-02
6.744683996594416642e-02
6.200616888199950855e-02
6.755516831970467817e-02
6.646665200898826953e-02
-6.597138817109014786e-03
3.424401350257536697e-02
-3.613555489897772588e-02
1.546174314936975269e-02
-3.583135649728261957e-02
3.548948714547631167e-02
-7.080897235493197051e-03
-3.441896013728362042e-02
-1.441760112028184215e-02
-2.067520005502813257e-02
-2.628312964586536349e-03
-3.081665804586756693e-02
-5.175662373281368633e-03
-6.489414370266032017e-03
2.927927110085068452e-02
-1.798338999164793284e-02
-3.769292347586530173e-02
-1.648335736501911619e-02
1.508564707628938517e-02
-8.358546399583138831e-02
-7.675995767008336745e-03
-7.277437596466032610e-02
-1.964880954115330591e-03
-3.031498425067713151e-02
-3.931654294347393386e-02
1.165422198689634870e-02
-5.075280215553017171e-02
-4.589262573665715828e-02
-4.280680062714858902e-02
-5.770652428082637814e-02
-1.220559860144462133e-02
1.052354401418858360e-02
-1.563119796437757031e-02
-5.440428159412898784e-02
-8.232135250491784406e-02
-6.655212131201193593e-02
-2.087492187304314240e-03
-1.099700346744504897e-01
-2.934629314237240799e-02
-4.940685658186420859e-02
-7.531041928148995979e-02
-2.734768898046299399e-02
-4.332303267345453957e-02
-6.499861963834288603e-02
-3.979418069942686209e-02
-1.825012035929061971e-02
-3.578916013367947069e-03
-2.508403643672524677e-02
-2.351784453414268797e-02
-7.017285819014061621e-02
-4.554129241757490232e-02
-6.389367558315756090e-02
-5.624700211425927993e-02
-5.286822570685688338e-02
-4.835840636765179751e-02
-5.598678464905797181e-02
-4.437909419784579618e-02
-6.121912638089525849e-02
-3.254747387210001064e-02
-4.634673626370967858e-02
-3.788896748151221461e-02
-2.119195518874835565e-02
-7.259653233014884410e-02
2.669633250136332903e-02
4.952990169792712005e-03
-2.028989971744874291e-02
-5.128667788566794450e-02
-1.691370051633823979e-02
-3.060376242540255309e-04
-3.776966050812771702e-02
-5.777229385003129075e-02
-3.172064973601471105e-02
2.222395857714926093e-02
-4.691096817043416412e-02
2.023766065693471256e-02
-1.492491035638047331e-02
1.522415308903506126e-03
7.565902202617547090e-04
3.048518784462488779e-02
5.913609468831174110e-02
6.239407784166309257e-02
5.523888432464252318e-02
1.355889452853559218e-03
4.038066315283570656e-02
4.380028916643843168e-02
6.740703113287707660e-02
2.717315345390984571e-02
8.223429808071451574e-02
6.445832619632591021e-02
1.233920029355829728e-02
7.022424604277099913e-02
1.067735373162701784e-01
1.042964020381381002e-01
6.522174545809467094e-02
5.596352013965769090e-02
1.430762307288334090e-01
1.264281732185888185e-01
1.134914458819233363e-01
1.146351085125202895e-01
5.580645881739797198e-02
5.550737036424407966e-02
4.825358937149922672e-02
7.941528778948080125e-02
5.812093604551771958e-02
1.296952333960518788e-01
1.820743331891604699e-01
7.999206371174297225e-02
5.483354006568777472e-02
1.008908977111223348e-01
9.958663515836843616e-02
-4.553436449377196160e-03
1.115707758358832763e-01
5.044491605880080387e-02
4.467565348580454510e-02
4.160865647825900959e-02
4.675870777006269075e-02
7.753284841493736368e-02
9.193514645610759151e-02
1.050961861937104308e-01
8.535231051699025684e-02
1.431161843988576488e-01
2.195253772393852554e-01
2.133657636358109455e-01
2.775868270450019271e-01
3.254441249264635738e-01
4.561895655838869579e-01
5.355058440363088534e-01
5.800854821022423113e-01
6.783443192978504399e-01
8.451093528764694884e-01
8.738010355650160932e-01
9.060195255098557610e-01
1.015710792190221756e+00
1.011590946706628857e+00
1.070020146616056600e+00
1.112463703952608851e+00
1.090577754513116560e+00
1.078040826974230315e+00
1.068223648798702019e+00
9.931729774127535659e-01
8.776714020613290979e-01
7.877336868147670756e-01
6.773087555291038564e-01
6.288917723124498593e-01
4.815854765335779719e-01
4.058568940528672897e-01
3.933234645934429174e-01
3.242142406709591640e-01
2.609999887994807755e-01
2.515284183241363603e-01
1.048058370949366547e-01
9.184126928263991463e-02
7.318614312142285305e-02
6.483354875678902507e-02
6.439866838875793476e-02
6.146747990845023019e-02
2.647585561197832171e-02
3.392010972840142635e-03
6.008453826321680236e-02
5.599449847401634373e-03
-4.726256153867331583e-02
-2.151249372932040327e-03
3.280616716948815681e-02
5.386392059408089822e-02
7.796991706984925108e-02
4.803269216611203568e-02
1.687523613953113844e-02
6.718783431171702902e-02
7.230571601308291574e-02
6.245760970684609281e-02
9.498428119995724894e-02
6.668392193804975610e-02
8.264848988368078686e-02
3.107566184136088816e-02
1.024874529285456637e-01
1.162848281792659699e-01
1.368041068358662182e-01
8.084812305080504857e-02
1.004121189194286667e-01
1.542694530903429284e-01
1.226777283479589531e-01
1.496137200962998071e-01
1.972514539233348463e-01
1.494581964336480218e-01
1.828252355176318567e-01
1.770626984603670129e-01
1.858092799194895617e-01
1.455371800525201709e-01
2.470455779411036001e-01
2.106453738973624312e-01
2.499019226664531135e-01
2.010279893472213808e-01
2.083896156154468882e-01
2.001495292278799576e-01
1.808770091683267189e-01
1.754632932065247342e-01
1.916386001199653910e-01
1.953734281700194031e-01
2.037704700387648060e-01
1.449774834427565440e-01
2.467557428799795338e-01
2.161064318126782180e-01
1.779741586065723413e-01
2.031710857830035244e-01
2.498841199380271161e-01
2.113412327918512135e-01
1.534867574386695466e-01
2.314251283755338062e-01
1.666167542620927977e-01
2.036694141009572911e-01
1.588362585686128592e-01
1.497991729781093240e-01
1.490172176269403403e-01
1.492092770696859527e-01
1.640683097392020562e-01
1.437020808598382104e-01
1.444629373356852708e-01
1.138769915373325226e-01
1.253425656734801774e-01
1.072826517934906687e-01
7.500762783603283357e-02
1.299298907138771719e-01
7.183700996394076776e-02
1.110352464754066348e-01
8.848155726148553002e-02
8.724783381408710015e-02
9.885264665988305333e-02
6.762145488267967686e-02
7.940806113356471685e-02
7.458816618128773224e-02
8.697050353078132623e-02
6.068669214069030704e-02
4.316577903104404368e-02
5.214920005329591601e-02
4.287451835339239209e-02
3.365413525750948764e-02
8.769547851612509437e-02
9.403496302599893830e-02
6.985423951521374519e-02
3.146657184866705897e-02
5.965715905046839462e-02
6.239538598181784690e-03
-8.999870699522558026e-03
7.786059498200390006e-02
7.274997221926326335e-03
5.477020927924938776e-02
4.267219537524709339e-02
-6.317444138580459445e-02
-3.639387395913674245e-03
3.421991892598855861e-02
-1.281276311650456252e-02
3.992149840058684118e-02
1.220926767614625291e-03
-4.948979016939966669e-02
-3.453847458044266572e-02
-2.902429528750943843e-02
9.089286345940823103e-03
-5.497635363073798132e-02
-2.916923829060393339e-02
-1.865880703473583521e-02
-1.268771458639503594e-02
-3.568673070378863138e-02
6.721821148560135767e-03
3.327834717700364764e-02
-9.786216723254347397e-03
-2.541085001147057321e-02
1.259943026333493893e-02
3.586922793937465104e-02
-7.990113936543832840e-02
-8.071348134774425365e-02
-2.021477448811053595e-02
-2.289186298300453087e-02
-5.996994152757303270e-02
-6.087442146210722549e-04
-3.408467542713934650e-02
-2.175448344154106567e-02
-3.712931935901799679e-03
-5.032263272454494396e-02
-4.850268613068933754e-02
-3.180883110891122301e-02
1.988053987992413271e-02
-5.577953414159594892e-02
-3.769773800840656164e-02
8.622466111685114787e-03
4.512337339377504863e-02
-2.071749786933489712e-02
-7.209414857706128443e-02
-1.125559175075971016e-02
6.583976796150509125e-02
2.441246041666901914e-02
-1.598066894692110745e-03
-3.202077516254257100e-02
2.963832667109708718e-02
-9.600152525637249690e-04
-1.705181898752903061e-02
-2.337562231102768492e-02
7.163585849198170208e-03
-8.601022726792104112e-02
-2.959647266692963519e-02
-6.570010554198724151e-02
5.100631807800813655e-02
-2.490879497276815568e-02
-1.753356238013298318e-02
9.600712159429768827e-04
-2.452443213995979948e-02
-5.832742053477963512e-02
