1.134490181673284193e+00
1.126461658487109441e+00
1.097548069440999585e+00
1.004435603955397216e+00
9.326006862626465832e-01
8.903122866766037813e-01
7.893043878752826759e-01
6.711860195065623147e-01
6.940818385169991167e-01
5.368457809752856802e-01
4.396624978902837766e-01
3.517305150655982704e-01
3.388219586080154500e-01
2.791561968767127810e-01
1.883156643950821829e-01
1.656249593403572584e-01
1.430707611228587417e-01
8.711192008601854886e-02
1.265572215311737692e-01
1.036023171667627002e-01
1.130085553445125818e-01
4.523269302590901542e-02
-8.121613814920694910e-03
4.557337557205262679e-02
3.385081859153141193e-02
4.590255596110958541e-02
2.535381479171388425e-02
7.653280616886196097e-02
1.022904356592866520e-01
1.378685778437294951e-01
9.752826686345954232e-02
8.930530443383434547e-02
1.272804620841496703e-01
1.398830015512209091e-01
1.165519693709909377e-01
5.140685352823642917e-02
1.206139404428913792e-01
1.295176092807306389e-01
1.052690406414423935e-01
1.550621825289038302e-01
1.007174571234759897e-01
1.066763965146965421e-01
1.382391046785032274e-01
1.538841151117311401e-01
1.637819688800124796e-01
2.178884826838510536e-01
1.501371896495846958e-01
2.193348990567852708e-01
2.087803617555538394e-01
2.329459172980435644e-01
2.186328238023384773e-01
2.407954345858500933e-01
1.629762972970067447e-01
1.926381104314415782e-01
2.029718646033927543e-01
1.948256771006621202e-01
2.435659701314698000e-01
2.705882716333924964e-01
2.278960947913099278e-01
2.946974783332924064e-01
2.439525198415607166e-01
2.116892977045602420e-01
2.282188331841780438e-01
2.498932432919213076e-01
2.760571804545704500e-01
2.735853005372683722e-01
3.010653682880055637e-01
2.225486224288683867e-01
2.921798640767304667e-01
2.427128541420237318e-01
2.355976684758142037e-01
1.655586999845829466e-01
2.353575637181895552e-01
2.093036914423185846e-01
2.560926877862202411e-01
1.885549966788609144e-01
2.526585290801257599e-01
1.778144822275380121e-01
1.753710452854562174e-01
2.255941073790910245e-01
1.751463140437359012e-01
1.215010768698809585e-01
1.162491635572167337e-01
1.811121296379625545e-01
2.208487789535637791e-01
1.429911229506033166e-01
1.456131281982973591e-01
1.841959497095237708e-01
1.518824844994747514e-01
1.458566267449940834e-01
1.460821539206052511e-01
1.148244142386624506e-01
1.215336916112204624e-01
1.348387551034049281e-01
6.887017659060797048e-02
1.628994822082226179e-01
8.763367665374563464e-02
6.838352333753339174e-02
7.297936426162078549e-02
4.816034715290769264e-02
2.042457371295363505e-02
2.693595365765884264e-02
9.272675828802741382e-02
2.043871928395661966e-02
9.733117641479546722e-02
-2.293995834318635074e-03
5.330001697267662542e-02
-1.798840208450183664e-02
6.600636437703838455e-02
-8.071975895359764092e-04
1.443528603169796573e-03
-1.116012648244586736e-02
4.707499502622637666e-02
2.832535146475349819e-02
-9.987493998758374680e-04
1.448954152453067745e-02
-2.980842935064122526e-03
3.481462292593098112e-02
3.140412156366567675e-02
1.789801801839744494e-03
-4.650067245202566674e-02
-1.367766290993500597e-02
5.041290559435554486e-02
6.938120880147455663e-03
2.577568277345281336e-02
5.621572945508839653e-02
6.310378131285329650e-02
7.965593793023742139e-03
6.391758097951270867e-02
3.713483596889635696e-02
-1.078258049355956122e-02
2.631922103451524858e-02
2.026682892139852407e-02
5.276864985079798148e-02
-2.917306863670554584e-02
-1.012682598744635634e-02
1.211770913813291217e-02
4.217740687232035546e-02
1.581801245755275545e-02
7.246404709472764952e-03
2.316848977826156675e-02
-6.078692858471370503e-03
6.970723565960768031e-02
4.156043354183582700e-02
-2.244394937820212016e-02
5.384206692380319459e-02
5.915994703228098783e-02
7.044736414490510024e-02
6.591229229665496181e-02
2.014392160191456199e-02
-8.540075455324570852e-03
2.728626529769437661e-02
9.527031359114682130e-02
6.007971791196652089e-02
1.378441655238735186e-02
5.283902292247717736e-02
6.732324747800008669e-02
2.154026878835244366e-02
1.057960633719231408e-01
6.582824804614488545e-02
7.699416785199220126e-02
6.989571135649069733e-02
7.253385859355764020e-02
9.357584807166481611e-02
1.034472405691135577e-01
3.825794616068438347e-02
1.307864622506481056e-01
1.113611750222777419e-01
1.643347344293317192e-01
1.479170073632528892e-01
1.491925522170565732e-01
7.099472631869127581e-02
6.842005488971597549e-02
1.331304281484660679e-01
6.385197606529907643e-02
1.426295716232788280e-01
1.863761606569339924e-01
1.368230907706015353e-01
1.440218161967029009e-01
1.719710031457615806e-01
1.566429077699105776e-01
1.592401593991456810e-01
1.916161722636679221e-01
1.357455911614051103e-01
2.157772774341684963e-01
1.700210510249350049e-01
1.939034282279524513e-01
1.688465636467567643e-01
1.794099600391572125e-01
1.792719904280208887e-01
1.506202820434285050e-01
1.435536575687402783e-01
1.630646800885355852e-01
1.104615703432327012e-01
1.707183156256883994e-01
1.445568381463064878e-01
1.312948358307922669e-01
1.490467969710066454e-01
1.365369708479308164e-01
1.025716701877031900e-01
1.851675020773509428e-01
1.570634507308132644e-01
2.248401585121058976e-01
1.656046445464716965e-01
1.664463343658641181e-01
2.312666593909226687e-01
2.278182071786507834e-01
3.316213948511604337e-01
3.510184696203431653e-01
4.490606921160744669e-01
4.994069928664685576e-01
5.979409070192893694e-01
7.110935901278550020e-01
7.070859148968797747e-01
8.479566572142127612e-01
9.158601656466911489e-01
1.020439851374862483e+00
1.007406490556873813e+00
1.069061727275608886e+00
1.126205099741824700e+00
1.139229040724100805e+00
1.111738926928565796e+00
1.123556798137880230e+00
1.060726596082997908e+00
9.401424009092083089e-01
9.504907412708336611e-01
8.993484540323153364e-01
8.039342921380847606e-01
7.446995479260485329e-01
5.702202521959055526e-01
5.585492863277558007e-01
4.117050144583574434e-01
3.387633537268050499e-01
3.222824868515858920e-01
2.722082291622602845e-01
2.420418800672187176e-01
1.835249622080537268e-01
1.720082541198922343e-01
1.257783164529508446e-01
1.109244977973885549e-01
8.991700569080326999e-02
9.602825598760486581e-02
1.106413231026650568e-01
6.524968595696145623e-02
1.009995179291240802e-01
1.102705085951716790e-01
1.050678193358035029e-01
1.812405125837380782e-01
1.222888150553442105e-01
1.528085779184314430e-01
1.675400066769983931e-01
1.549089318276331562e-01
1.064264789923604904e-01
1.696948902949000082e-01
9.576345679009655443e-02
2.213038327048750253e-01
1.410674833730899136e-01
1.631915901113472067e-01
1.768201310341412369e-01
1.373957362880605382e-01
2.128900758927360359e-01
1.750636137939802772e-01
1.724140145330623763e-01
2.371687183689699108e-01
2.499574035457102494e-01
2.130769816104867709e-01
2.236516375951860813e-01
1.771247112421608927e-01
2.944487028572517762e-01
2.847255447118052230e-01
2.898041182086034673e-01
2.733789326417538912e-01
2.929501635275403304e-01
2.970415272225557790e-01
2.487437958529925552e-01
2.600075325440224239e-01
3.249211769187618226e-01
3.315128033616066006e-01
3.069785166194399784e-01
3.040348457871273613e-01
2.993851566569842859e-01
3.241453233877148454e-01
2.822548100225054091e-01
2.813590366122467601e-01
3.131974242152020249e-01
2.634261910331351375e-01
2.347281038710499756e-01
2.744645013278380619e-01
2.666883816506966376e-01
3.033762682470645400e-01
2.680286997616867506e-01
2.876719041865014592e-01
2.614777222450937466e-01
2.469512097291735320e-01
2.883233711030646074e-01
2.613429042794689905e-01
2.782794359692769559e-01
2.288996522917187970e-01
2.434792896669098483e-01
2.267365506915031970e-01
2.088532258097859085e-01
2.023514022140415758e-01
2.419629026001002825e-01
2.552158450074045737e-01
1.929932827725434896e-01
2.067310983122128965e-01
2.289760713160891858e-01
1.705192291453731246e-01
1.398611772240133666e-01
1.723315888167156196e-01
1.477543912716914321e-01
1.561111549579559110e-01
1.222671944330073618e-01
1.598457585981485074e-01
1.690221053691717268e-01
1.429956609955475300e-01
1.605335388334236113e-01
1.231564644613880322e-01
1.367765004694701803e-01
1.258226814385200176e-01
1.377665622304966586e-01
1.257987836720571573e-01
1.480720522152979557e-01
8.399945705635740445e-02
5.966296166366463066e-02
7.445294498938143102e-02
1.007526997956304654e-01
9.119562272332035202e-02
2.817638681311563503e-02
8.127143223835717190e-02
5.876098498232386336e-02
8.976000203184192339e-02
1.096600990080517923e-01
8.918392466941910124e-02
7.535067527613516225e-02
4.875273989398234975e-02
9.747766877691818599e-02
8.742987520111483724e-02
2.372002677127080933e-02
9.245928389413593518e-02
5.239854709880330252e-02
8.650632644112721259e-02
5.997640998418764940e-02
4.225803792239948148e-02
9.008089767250757052e-02
1.169463664652342916e-01
4.368041278485161605e-02
2.870847397907315413e-02
7.194568810124629676e-02
5.768998947413056522e-02
9.811180602083871549e-03
9.368303233092645232e-02
5.502824979927338489e-02
6.484378618793419646e-02
1.800862188381577300e-02
4.286451837577517215e-02
4.441218254091251760e-03
6.261952499884480827e-02
7.026489994535742301e-02
3.807031597898790504e-02
5.614265221684772850e-02
4.908558104975728476e-02
-2.211625942980521842e-03
4.385712618611953273e-03
5.712412866630191266e-03
7.202429579806485238e-02
1.155091940653110716e-01
2.319790646791621350e-02
5.109193033014690355e-02
8.829678154387504696e-02
7.744714025719523498e-02
8.974992055695639459e-02
5.363741150190252938e-02
3.956430312439118691e-02
5.367040335817446078e-02
3.973232006749524703e-02
1.342707453275858165e-01
9.722148758440457561e-02
6.882768189080948340e-02
8.868850069864431251e-02
1.167303627011221090e-01
1.245876723984729040e-01
1.118686948630689126e-01
7.776545567319673169e-02
1.012319767255601827e-01
1.078163999800164086e-01
1.660318959398627836e-01
1.336294751995367736e-01
1.416815082942914361e-01
1.313389226256366227e-01
9.497703848461452880e-02
1.839398801436379349e-01
1.984170365295299665e-01
1.443578103015267788e-01
1.704133345668420452e-01
1.685328767508055270e-01
1.869308126603659859e-01
2.130251786265425218e-01
1.515152729977499169e-01
2.097317440722017146e-01
1.720313121651590726e-01
1.885381810487877785e-01
1.853476724611114457e-01
1.675971227973674094e-01
1.891990089643027229e-01
2.313091531978238025e-01
1.896386536134478384e-01
2.187500983232955332e-01
2.121087250164203075e-01
1.503939420275026695e-01
1.469578762723323939e-01
1.736358655920687555e-01
1.681789711413747002e-01
2.324713385512705288e-01
1.460444966039982084e-01
1.823257521633979417e-01
1.657277527698782227e-01
1.200534748533654966e-01
1.741743672641558882e-01
1.695130477876449215e-01
1.914652416435402293e-01
1.996261762180969734e-01
9.792935885260198314e-02
2.308252700822805425e-01
2.242826660249861159e-01
2.364091822028688838e-01
2.290213654049138015e-01
3.459157291631254627e-01
4.466716883677520622e-01
3.846387394792060710e-01
5.327248888615951916e-01
5.358944178531431790e-01
6.470644743122724307e-01
7.905499525903323388e-01
7.855414857934088779e-01
9.559259810431678384e-01
1.015866664814795595e+00
1.056129466740622469e+00
1.047532763473747908e+00
1.135465277509265736e+00
1.173808253194060791e+00
1.181017520169450830e+00
1.130880386980591013e+00
1.091190902520486450e+00
1.051301911497093178e+00
9.389626883531178025e-01
8.826691837518031436e-01
7.719039724639887856e-01
6.691151728861900461e-01
6.033583194376112013e-01
5.416214900152281908e-01
4.941416929789741452e-01
3.956125819335027938e-01
3.120445474033164412e-01
2.818635433697149195e-01
2.313939966767845913e-01
2.065264497496891449e-01
1.804449302761416130e-01
1.659280595504881994e-01
1.613658731409843006e-01
1.155474077633586866e-01
1.543069054812783170e-01
8.242012638981641159e-02
1.243011021607742933e-01
1.334700752071084073e-01
1.038637209332937128e-01
7.162365340045653839e-02
1.240267796578960746e-01
1.569545711893867990e-01
1.793994998411725939e-01
9.760529663678266243e-02
1.415818998446243260e-01
1.399365194774608023e-01
1.397370999450929241e-01
1.104672350589974567e-01
1.568549925420806568e-01
1.894360625567680090e-01
2.268762873868029051e-01
2.163540208934350284e-01
1.456153772628970278e-01
1.438535495793493157e-01
2.492623961872118543e-01
2.002529814094509142e-01
1.896668797433105069e-01
2.754746630295602516e-01
2.166846294384387195e-01
2.235918748824565760e-01
2.253508905305986743e-01
2.077251828556326563e-01
2.331650043615173806e-01
2.258247491802337359e-01
2.315240448752661218e-01
2.007379080437182162e-01
2.721614988254681955e-01
2.206246610541549025e-01
2.621463538789295389e-01
2.842484948502050357e-01
2.482438796070608744e-01
2.830818025252924142e-01
2.817477743927637168e-01
2.657422909107153841e-01
2.812402646429331687e-01
2.948177044614135878e-01
2.431627241219724012e-01
2.642288030195767412e-01
2.851850451536346309e-01
2.826294896294091474e-01
2.802247903351137714e-01
2.136531334789801839e-01
2.456449821912533027e-01
2.638456742517464315e-01
2.315394210783763285e-01
2.720142831211486145e-01
2.637521747917758730e-01
2.545191649179905369e-01
2.425068968003319114e-01
2.469624209401380388e-01
2.595973924069585048e-01
2.629422595897624171e-01
2.592635093971997762e-01
2.265821215241028974e-01
1.894294419546732611e-01
1.885502854075539469e-01
2.578254043850216615e-01
2.014407373585243022e-01
1.946349418853676183e-01
1.591881018258424207e-01
2.036153104462420371e-01
1.782085235901285647e-01
1.644246263830478061e-01
1.859007947893239754e-01
1.831073842259191287e-01
1.771807312857441308e-01
1.378813524844280936e-01
1.112877502570981669e-01
1.374765109662914320e-01
1.038628645625455649e-01
1.061084787326241757e-01
1.318276645192332786e-01
1.640882505521457368e-01
1.382548489062178920e-01
1.310868187558066889e-01
9.167675542996336913e-02
6.707578036980715863e-02
1.090486626063362219e-01
7.795149019594155293e-02
7.124968170292861336e-02
5.251595236952872475e-02
6.579878140500655670e-02
3.145394433984302629e-02
7.719335859826385871e-02
2.714324516984749011e-02
1.845035571712304312e-03
4.071964728929811095e-02
7.322994927397869641e-03
6.885620643019728371e-02
9.376363016711244946e-02
4.493603315557340161e-02
9.133086079138645619e-02
5.594797349504766759e-02
2.067575442106902792e-02
2.562405302437986698e-02
8.740639205642780629e-02
1.181405430343324472e-02
3.525065889447361739e-02
3.172877788809351507e-02
5.597733451072241240e-02
-6.994179812281432762e-03
4.241387521359309826e-02
1.056350551815372213e-02
1.781201138638531523e-02
-1.043278022701877444e-02
-1.464505997049847866e-02
1.506588742090306937e-02
1.085205586314872198e-02
1.496076487026082140e-02
3.383544695350682724e-02
3.933522371019626540e-02
2.180893535545704032e-02
6.182147690508011523e-02
-4.371135388252868348e-02
1.265627855293340563e-02
3.261189146739475880e-02
1.660310889405084561e-02
8.763031168724908296e-03
3.295107133694365198e-02
5.850188058613100400e-02
1.883939050678357444e-02
1.076078386958698348e-02
-6.358884240815737554e-03
5.129130706801700995e-02
5.723417161880683945e-02
-8.062573144087321897e-03
2.279279532429985544e-02
7.949553566664134541e-02
9.136908126767052940e-02
8.606821503714423560e-02
1.142781404532742101e-01
5.550675751986316325e-02
4.565158390637627517e-02
5.976495755325782200e-02
7.496419953873585673e-02
6.493736403472405438e-02
7.366945757628121094e-02
9.614173310964457819e-02
9.130398815049117767e-02
6.851849564173406737e-02
1.078603631496748289e-01
9.420562500616211365e-02
1.376473838737199973e-01
1.490319155034769139e-01
1.225654670453870249e-01
7.944602204045042582e-02
1.665065114775558519e-01
1.572460262728661573e-01
1.674502913414205874e-01
1.612807400576433126e-01
1.222216257600508560e-01
2.198568531004421456e-01
1.790110269210716532e-01
1.833320559751421275e-01
1.296480929962042505e-01
1.674910265012643784e-01
1.324146213989013388e-01
1.714260201467396050e-01
1.443652148186109763e-01
1.334026722669219844e-01
1.176569500703823490e-01
1.751162302074243393e-01
1.639704982912853493e-01
8.146260433867642814e-02
1.199658976237991947e-01
1.466119073943725204e-01
1.624645800508535964e-01
1.173571297614199038e-01
1.646083739715286653e-01
1.653941879396130521e-01
1.216654328468108615e-01
8.059920942656034759e-02
1.133174390020153105e-01
9.786954516796586567e-02
1.131832065901317991e-01
1.596103227492417231e-01
1.212459129263270402e-01
2.101463791445359885e-01
1.893994843964564856e-01
2.411024458850964114e-01
3.218117054913784414e-01
2.774843964286026754e-01
4.014781541249274888e-01
4.354875961932933581e-01
5.325187020572970109e-01
6.653747862431815818e-01
6.822701951907221840e-01
7.694117545728995644e-01
9.023728775663175661e-01
9.259834655875587295e-01
1.042737059243752373e+00
1.091287878621702179e+00
1.082008420375214941e+00
1.146429771438947309e+00
1.119795077070576239e+00
1.124759110939297146e+00
1.024878156414021468e+00
9.518463231457972018e-01
9.302919938613468664e-01
8.583323015895589769e-01
7.420905298610117606e-01
6.422264665472130485e-01
5.236059027202509819e-01
5.403450098754668529e-01
4.207485487001474955e-01
3.889691051906269403e-01
2.787892943525952516e-01
2.717556743434481059e-01
2.019744338445226273e-01
1.313279500084056639e-01
7.969083394011471089e-02
1.087741495421962745e-01
9.577168761810009312e-02
1.356730846175270011e-01
4.570871199715340061e-02
6.423069884218134129e-02
7.513357294055457436e-02
6.658252953401926078e-02
6.386495967121401385e-02
8.005919343078266026e-02
6.498304996004009015e-02
6.779155132300032638e-02
1.157005227176692574e-01
9.191806379096388591e-02
1.323283593085579635e-01
1.347464068076736077e-01
7.768437300892336306e-02
1.370581206171474498e-01
1.344382702634055737e-01
1.223404336474179926e-01
1.537873129273792938e-01
1.588962472619702415e-01
1.523661804540293041e-01
1.162038894588631049e-01
1.371361061478006682e-01
1.356168038908959206e-01
1.435867846223124189e-01
1.675144665164402524e-01
1.479559006076521521e-01
1.914623055062066592e-01
1.853772862553617340e-01
2.283655580351338088e-01
2.398116595219031144e-01
1.552518180410336623e-01
2.100180835757402831e-01
1.667076404410780532e-01
2.161816410088190366e-01
1.930614935881936334e-01
1.893523186334680197e-01
2.207028724745925541e-01
2.145942671210946118e-01
2.841132632796206092e-01
2.859624110847278633e-01
2.564709981118463156e-01
2.006509417926942429e-01
2.544658484936788145e-01
2.225506705069899005e-01
2.293527420002969275e-01
2.141421410185697094e-01
2.353793626982002007e-01
2.488980633608882664e-01
2.399400366839458121e-01
1.757227353275881421e-01
1.656999632034868997e-01
2.538979964691865931e-01
2.439563716147288841e-01
2.003474656246410635e-01
1.640263972823617078e-01
2.044919458874241980e-01
1.730616989843100362e-01
1.682177300637949235e-01
1.326770715633311393e-01
1.712202814902675230e-01
2.080625369434771221e-01
1.369709264873170962e-01
1.514514891544158359e-01
1.820065136549025853e-01
1.228842433716641619e-01
9.448898528244051298e-02
1.328749274682058390e-01
1.312500918334812139e-01
1.244803081095456621e-01
1.098179235592491726e-01
7.914269886507753482e-02
1.513780286130691488e-01
8.821913943838320671e-02
9.814024326294051859e-02
1.204438620714395614e-01
1.011127612575613288e-01
6.123975674014103809e-02
5.167930510720350479e-02
9.283637763409510746e-02
7.557482330133347137e-02
8.255837670617445501e-02
5.666828764744642755e-02
2.638391972484322584e-03
1.723988230614071845e-02
6.360520016452110570e-02
-1.084822666315259088e-04
3.332219565886401086e-03
8.787841319491924985e-02
-6.247953125896061471e-03
2.636135355968527785e-02
-9.851871470133628100e-03
1.166736307579288590e-02
3.977615951036808650e-02
3.533506705607072224e-02
-2.449964964157503797e-02
2.901620827731610577e-02
-5.475806901032492791e-02
3.705815707758595978e-03
3.097487136250104411e-02
-2.643130137971465982e-02
-3.779670064314322175e-02
2.361326775450562493e-02
8.523692940490563280e-03
-1.968392955756601351e-02
-1.878503047941311455e-02
-4.778629054782846525e-02
-7.116559233763056214e-02
-6.049529191823738161e-02
-4.780195756117545935e-02
-3.112526435503081002e-02
-4.097683638829772990e-02
-4.545206345015984084e-02
-6.610899208033238494e-02
-3.006279394765599966e-02
-9.339436724964296499e-03
-7.455148599444690050e-03
-7.395072395764774181e-03
2.990974665478658701e-03
-1.006931632794906412e-01
4.796971611300071547e-02
1.527465170198304134e-02
-1.874433565649029354e-02
-3.435032205420644053e-02
-3.196056398500229240e-02
-3.206502811860550278e-02
-8.846460359718015531e-02
-2.788753564095785425e-02
-2.326876431880201684e-02
-6.629216673841867996e-03
-3.094008716090865946e-03
2.133365538166794376e-02
-2.259208471378589683e-02
-5.385591671735797531e-03
-9.622641600271691215e-03
1.286446913450498344e-02
-2.220359276741938614e-02
3.580028725155565139e-02
9.414420667747239180e-03
-4.191775417861420133e-02
1.110034682234522369e-02
1.781342006505347991e-02
3.973624972028631103e-02
4.057255525222869946e-02
5.211875530599421186e-02
-1.895291745605022504e-02
7.169041483935473247e-02
6.614162759495254007e-02
5.353583568988081604e-02
6.906530478135702866e-02
4.281119080760021484e-02
4.168506013330953303e-02
4.794818244978329286e-02
1.201332201804873601e-01
7.381224682816152349e-02
1.013225302347517953e-01
6.015362444069131259e-02
1.027353380631448876e-01
1.232072104319346384e-01
8.659466527035064587e-02
1.198175118101501291e-01
1.106404471319943073e-01
1.448428799612959950e-01
1.165913113012358726e-01
1.297938307381656109e-01
7.993662678068562399e-02
1.642933578436572561e-01
9.841790661235286231e-02
6.837758992554304749e-02
1.311421515451848263e-01
1.477576678176144853e-01
1.042698338200094277e-01
4.899310243866316500e-02
1.487480816893017588e-01
6.809883885749994092e-02
6.708010621221184577e-02
6.863194708623540641e-02
4.498087077521943644e-02
2.432988033249627868e-02
1.793334702017357341e-02
5.276152459832712804e-02
5.891490590220000573e-02
3.605758332100718333e-02
9.961026538918654749e-02
1.096142578517573796e-01
1.276247031202717985e-01
1.725799416249086948e-01
2.162804173074513447e-01
2.036614395628772167e-01
2.574185849589783470e-01
2.781455434066919530e-01
3.741796870922214358e-01
4.882392796287030601e-01
5.691324782880797795e-01
7.099801518713045878e-01
7.527016589947644887e-01
8.329469909568887331e-01
9.189006240588541985e-01
8.890809604449924075e-01
1.024824572161816549e+00
1.042703993745548452e+00
1.096409103621410308e+00
1.057056802175706967e+00
1.013251061927710417e+00
1.006769594785628330e+00
9.830322707739992394e-01
8.622147417428270844e-01
8.071039056450490801e-01
7.503670287103344494e-01
6.582188056246836005e-01
5.405611414375361967e-01
4.198978128526979492e-01
3.491486949577125021e-01
3.230472904878687879e-01
2.550282294652496118e-01
1.753065382381411019e-01
1.596857251713528214e-01
9.801131651647192189e-02
7.781585587735709297e-02
1.081864803054350954e-01
9.380342135560776340e-02
3.126532904763675708e-02
2.466706487304655415e-02
1.029884843286024698e-02
5.418528363988008023e-02
-4.045988874070600982e-03
-4.597016491480986067e-02
3.128932378712082074e-02
7.536017630055710792e-02
9.960575834832613440e-02
1.283101532391942023e-02
7.909387697852893195e-02
3.235396813390867266e-02
9.508901597806004857e-02
3.346297080414611241e-02
1.006418828522007425e-01
8.364792317272724820e-02
1.198219074746223189e-01
8.298722340753229842e-02
1.161241133072515586e-01
6.495212286213164488e-02
6.977664388000454077e-02
1.234608027298038091e-01
1.035623419160253689e-01
1.096619170771899465e-01
1.184845171535422598e-01
1.246000055668352036e-01
1.303245229666204485e-01
1.704260627075486478e-01
8.953750347000605236e-02
1.527880405219802507e-01
1.657932032842442394e-01
1.431784952675664579e-01
1.391854848789748633e-01
1.743715566037876696e-01
1.628791327248700072e-01
1.691901382344797033e-01
2.105379386804608066e-01
1.756248739731118280e-01
1.914186437036169697e-01
1.657792966607574692e-01
2.596079661707569319e-01
1.692534456804487553e-01
1.595640823337490244e-01
1.966049842810630166e-01
1.769062467469270650e-01
2.148392628335248911e-01
1.731392834058013697e-01
2.228600151699213217e-01
2.091709329223087610e-01
1.618808117453979789e-01
1.757450965794064290e-01
1.441601557333185291e-01
1.938417526881910380e-01
1.644827509235323171e-01
1.582118600387384666e-01
1.786288389953522016e-01
1.630023408666091689e-01
1.485997633191223077e-01
1.627822287501973775e-01
1.309429101896972536e-01
1.313841661986703824e-01
1.294279076321440403e-01
1.298891938334779395e-01
1.135871083350770139e-01
1.323183438918797417e-01
7.520077774203373644e-02
6.836382387280581785e-02
4.707503761659734970e-02
1.004852760189027805e-01
6.958024420622219153e-02
7.000359756958959845e-02
1.236262439391373064e-02
7.305389836473433207e-02
5.188132217214035113e-02
5.583481849551146653e-02
9.441448069636768081e-02
1.631925509871483271e-02
5.929292634476918122e-03
4.022315554178779867e-02
1.639891120463659452e-02
-1.425586987478763557e-02
2.494850697435807563e-02
-1.371620745556608595e-02
-4.670437055271683957e-02
-1.518125270922630193e-02
2.935629142774395794e-02
1.346238101828931694e-02
2.024762330329350074e-02
-2.399284857092612994e-02
-3.294247277274602037e-02
3.947527333971738439e-03
-7.191731829654132713e-02
-6.947237112021886762e-04
-4.061880029397345326e-02
-1.171847728073828893e-01
-2.630470458298329178e-02
-3.225229441955189402e-02
8.515431548060385658e-03
-4.132175395377393756e-02
-4.387645705352123671e-02
5.079903117567800830e-02
-4.001210785459331787e-02
-1.415606436725975331e-02
-8.817811726784104132e-02
-2.865859543731572034e-03
-4.839982318556901308e-02
-7.533631389117931287e-02
-4.864477670803549203e-02
-1.558710713716787016e-02
-1.967662866404097655e-02
-8.059023758419293915e-02
-3.994415431468534977e-02
-4.316553973817467693e-02
-8.679183991023706191e-02
-8.799337742976680310e-02
-2.865823804483492304e-02
-5.014116487956209872e-02
-3.764702584855034867e-02
-5.180987366158961577e-02
-5.649273508701128238e-02
-4.578975148930931882e-02
-4.125890375735222909e-02
-6.542736217788780451e-02
-6.833507588211912287e-02
-6.570379986840604869e-02
-4.842591119073721972e-02
-4.144717909365822073e-02
-2.346944482281551961e-02
-1.551145202555472696e-02
-3.450450573477277516e-02
-4.221498591791381094e-02
-1.643258903399327786e-02
-8.579439211456039993e-02
-8.430344480492374393e-03
-2.481492673551730782e-02
-4.265822817846608161e-02
-1.507891426741272967e-02
-2.364673113494900752e-02
-3.823544687024703348e-02
1.522171901874791455e-02
-7.801726177729534362e-04
-1.047319189132632500e-02
-1.397646833895320462e-02
8.466382969913949230e-02
-4.735328098755801907e-02
1.552633069554527206e-02
-2.225763042246016454e-02
2.628028395882298779e-02
2.103944853060685932e-02
8.630036236840038510e-02
3.157061790263686329e-02
1.095666806317607544e-01
1.005761320148554072e-01
5.353119503373177102e-02
9.533342599731470246e-02
4.274460209144529538e-02
1.034524457999011493e-01
1.357266640933741941e-01
1.023891057756098066e-01
8.606191879992944327e-02
9.717616082620895990e-02
8.100009237319293065e-02
5.738376683332696571e-02
6.308564684971212921e-02
1.221759936512218925e-01
5.220203612192197973e-02
1.228555840792581039e-01
1.734643782160115999e-01
1.273720452351832511e-01
1.465901633147399241e-01
1.215386982460622545e-01
4.759882076516475102e-02
1.156559659533245299e-01
6.447219658815758758e-02
8.940179288507310584e-02
6.635548779787803220e-02
5.710820416482709216e-02
1.161313236003357757e-02
6.608311156773702399e-02
2.774333828700730614e-02
4.891897223093179953e-02
8.546237140033674518e-02
4.928557148984796799e-02
6.034052874947967715e-02
1.214404654321651900e-01
1.516945147851472275e-01
1.701520270334632434e-01
2.508034991121659840e-01
2.596097763306662309e-01
3.342572481720821331e-01
3.721331680707918865e-01
4.699896254844077581e-01
4.967102762513799785e-01
5.887813538089023968e-01
7.448836881191700510e-01
7.732522666611306716e-01
8.784966744632676239e-01
9.618070034834784732e-01
9.764709417157788618e-01
1.038636620143696954e+00
1.045173399945965809e+00
1.017753183483878887e+00
1.058036370813567384e+00
9.750913312038902436e-01
9.562036636655802946e-01
9.645068843629195365e-01
7.953336734324538693e-01
7.666914004841197672e-01
6.624094783738462278e-01
5.009355119050518113e-01
4.411899878872512226e-01
4.355788092734972361e-01
3.505585081126419422e-01
2.596916462139317039e-01
2.325603261074317696e-01
1.429116669345526502e-01
1.498411040603240263e-01
8.315071751458305571e-02
7.277664660830432397e-02
2.084025475163218954e-02
9.185255191130621555e-03
5.896279334081670764e-02
3.838565041349988050e-02
2.130746052550427233e-02
9.493347426337291062e-03
5.195833384634768182e-02
-9.273270256426137392e-03
2.500493225165472538e-02
7.546866408575540752e-02
2.894788881847389084e-02
3.442370402946518665e-02
1.045199328766373975e-02
8.395687438560409110e-02
2.877157215380832245e-02
6.403435266648338509e-02
5.506073018789332807e-02
8.470627697927110566e-02
8.902819060964545228e-02
4.335351352242942935e-02
4.078756055601715641e-02
1.169775211365390727e-01
1.335198423366419640e-01
1.271892244819488038e-01
1.298673863363868086e-01
1.517099387658610854e-01
1.354929477709291841e-01
1.334472922963986230e-01
1.863475116841493417e-01
2.218134795895385925e-01
2.067660870692621389e-01
1.680424042921092598e-01
2.289429926339187626e-01
1.442762395239578777e-01
1.565336069777708838e-01
2.540895906165487328e-01
1.991528278434671895e-01
1.869759858600730795e-01
1.506220947701743529e-01
2.355758942289028213e-01
2.112481896242502100e-01
2.280766561195688158e-01
2.506594801158144037e-01
2.527554351529686105e-01
2.201685372791714890e-01
2.380485442107830030e-01
1.976822802455431571e-01
1.542281067577660758e-01
1.950851373135507327e-01
1.973767233099934237e-01
1.882657770661930741e-01
1.959820248453874036e-01
1.926137934598104173e-01
2.020093052975515113e-01
2.027635866374108975e-01
1.379962017523998496e-01
1.814186960443647245e-01
2.026520023444103868e-01
2.043759693561419954e-01
1.828879287985411828e-01
1.532790803323496875e-01
1.486298502606117899e-01
1.194912465657283485e-01
1.599703188097433282e-01
1.691023435761352944e-01
1.444257523649460084e-01
1.483696967578129466e-01
1.252194099406536976e-01
8.176124811382920465e-02
1.412382108589137486e-01
8.311447510861673382e-02
9.685937195400443067e-02
8.075522480010793869e-02
7.077733947269126968e-02
6.679868566919751338e-02
8.501103194836390209e-02
4.753014524493355542e-02
1.194364675939968007e-01
-1.487622340886413791e-02
4.695182120347926591e-02
5.013566570765274483e-02
2.427997751148512628e-03
5.650473239638390682e-02
5.986170605915062948e-02
1.951876679685532121e-02
3.383062180815117614e-02
-2.593836623318272749e-02
-1.547574791419802087e-02
2.415000845021973361e-02
-4.637956659442329238e-03
-1.774926982634307190e-02
-1.818099637197042109e-02
-5.306619691371224079e-02
-1.877423194527974223e-02
3.701600666135948514e-02
-8.596564260095043708e-02
-1.015239109603111728e-02
3.918968424046344323e-02
-2.595113876890217663e-02
1.480184465360034896e-02
-2.775169494429274158e-02
2.771555760026560983e-03
-5.554769086987958182e-02
4.024936879835891435e-02
3.288194730607083005e-03
-6.416194222244805956e-02
-1.900357722540802277e-02
-3.873831357280064364e-02
-9.410273590851897518e-02
-7.222375456684441627e-03
-4.538389665783451599e-02
-5.778062949858046859e-02
-2.465602810461117733e-02
-1.681451762523926419e-03
8.417776968415897898e-04
-3.633075812418715134e-02
3.292271439766256830e-02
2.695918541386045642e-03
-3.111011613159380546e-02
-5.536683633815543681e-02
-1.759098025863633716e-02
-2.799407664440443921e-02
4.953549594797072853e-02
-5.292071908681690584e-02
-2.156621950070675142e-02
-1.179377396538504839e-02
2.301414501376762567e-02
1.748266017951388002e-02
9.341157745699650572e-03
-1.578770526996623597e-02
-5.201976371702964064e-03
1.779889531844389833e-02
-2.941760161367857479e-02
-3.212377962114582042e-02
5.159478717435619921e-03
3.700289331734632481e-02
3.019607117199805263e-02
1.598316840982475298e-03
2.485928893007277596e-02
4.371109314052586126e-02
-1.304399856573641540e-02
-1.287217927561298131e-02
5.636514309272626366e-02
2.301830792139073628e-02
4.262634324235061584e-02
9.359602160263863491e-02
1.022576570660989892e-01
7.250899881212712061e-02
8.408100546184876789e-02
6.778719656710913144e-02
9.021902857427221978e-02
8.953949716992802565e-02
8.798819181414138657e-02
7.840497027894877125e-02
8.648971155737969485e-02
1.303706118315890450e-01
1.279727640766999130e-01
1.158172444683461672e-01
1.063425013181380496e-01
1.427454837729263959e-01
1.226321701921807561e-01
1.511051160125886916e-01
8.400493668834529970e-02
1.705822885847941839e-01
1.765744030426093791e-01
1.685432858487811436e-01
1.560998932916079496e-01
1.253915461841392520e-01
1.799083262548447637e-01
1.609668847711794581e-01
1.143191302991345137e-01
1.097363799689493186e-01
1.489016509392420695e-01
1.048448315282952820e-01
1.678280023220173334e-01
9.627293724213513426e-02
1.150761188659471940e-01
1.240316425567154490e-01
1.155533520299682343e-01
1.013955171846430275e-01
9.258376725221169334e-02
1.514235469692933600e-01
6.684258387452966799e-02
1.840438480750878902e-01
8.434708799666305878e-02
1.477475919349756917e-01
1.844458178830006567e-01
2.073136171290380914e-01
2.709027945178688057e-01
3.168813616417310852e-01
3.543500778763497006e-01
4.315516863449423424e-01
5.039213497517334162e-01
5.814650037987660891e-01
6.734812009242040487e-01
7.588045648619083927e-01
8.375712367695140603e-01
8.942673689931662784e-01
9.892072482902627417e-01
1.045159593851749280e+00
1.080892691933564853e+00
1.111979235737383220e+00
1.124369625785895721e+00
1.102835808373944682e+00
1.029684820936493050e+00
1.021509538095177305e+00
9.242479398483898212e-01
8.529757169119107640e-01
7.694715217740216717e-01
7.046533092103526297e-01
6.299362654185978183e-01
4.815129739345158089e-01
5.278629149646891783e-01
4.028484436846967998e-01
3.052762073411814381e-01
2.698599968157491813e-01
1.917329229306951877e-01
1.932191564604567313e-01
1.640343983356390145e-01
1.415820969863357259e-01
7.662975563988036476e-02
9.637290035517655229e-02
7.895828013720482264e-02
1.725826632251929171e-01
4.074895494577095156e-02
7.352750827438749026e-02
9.629655460405325829e-02
1.100404914890084213e-01
1.175062177357034110e-01
1.143614533818188561e-01
9.564059230052462945e-02
7.581631691571261156e-02
4.700376360389798419e-02
1.682859551629772854e-01
1.643378845589482662e-01
1.136880170775459026e-01
1.745434294860530866e-01
9.777058135835395292e-02
1.250413340714955635e-01
9.920397968125312105e-02
1.869031693612943079e-01
1.845463392140194447e-01
1.654565159246386974e-01
1.876679190951358600e-01
1.383878624836910320e-01
1.752672257143884638e-01
1.804275040569131017e-01
2.217570840829389822e-01
2.490300508045712735e-01
2.995755336506016886e-01
2.674767483550807290e-01
2.874015311575022213e-01
2.469191362381131516e-01
2.463836898404154763e-01
2.286324955922541813e-01
2.562427586011876701e-01
2.296851993379123158e-01
2.278651107684333821e-01
3.063102616197785344e-01
2.794686811788019143e-01
2.745038956067438196e-01
2.316230890544685173e-01
2.910578117158056366e-01
2.487545241622124148e-01
3.028155110422619534e-01
2.868045329237877694e-01
2.624813356329757652e-01
3.089989540789845335e-01
2.796092440062890594e-01
2.510931578031234124e-01
2.218252119518476784e-01
2.908038824049511417e-01
2.323004124576609764e-01
1.909298052338715412e-01
2.471951807624085951e-01
2.395897636254787910e-01
2.799825906069347559e-01
2.378438835649199223e-01
2.509055205414325029e-01
1.980661695796019917e-01
2.037666729266272014e-01
2.272680483349715230e-01
1.976088863767331560e-01
2.598836324796185981e-01
2.506007758539877117e-01
1.533977111875008403e-01
2.476093777968552401e-01
1.647397949431281261e-01
1.677902803122400810e-01
1.982278511588545789e-01
2.242663635196575911e-01
1.403274514633208458e-01
1.243822055764982337e-01
8.809052004684110593e-02
1.267024210654255634e-01
1.381792932781013838e-01
7.948494225667042390e-02
1.656845453135470381e-01
7.376692987962825410e-02
1.073082778893634515e-01
8.389206270647595054e-02
4.026177765729845037e-02
1.318950482156173720e-01
1.012519927637386685e-01
7.925397872224372586e-02
1.256927590474863077e-01
5.362318500553925338e-02
9.768410998171371540e-02
1.099559509441723620e-01
9.337152078787980258e-02
4.075235192658956118e-02
4.186330095090311232e-02
9.731416007796184209e-02
1.002428696855819090e-01
2.819955621299126067e-02
4.793894089989041846e-02
2.155038420908678837e-02
1.403353672196961874e-02
6.282023240377621054e-02
2.948109829716748231e-02
6.282175045206210562e-02
2.787108907867670918e-02
8.806518486848335936e-02
3.336720260626707679e-02
2.489134736349345872e-02
4.449656885286677049e-03
4.010583893185254434e-02
1.107703130837416408e-02
7.265585933382776029e-02
4.299319161582274007e-02
8.048147053880991275e-02
1.357480650259691723e-02
6.597252970250283566e-02
2.751683526464357085e-02
4.661512831086039865e-04
1.139580989119120050e-02
5.123616741353093779e-02
3.390491343941259839e-02
5.977142861247255329e-02
7.603353282645861078e-02
7.927836859241568779e-02
5.293729867949490547e-02
2.586627136294558649e-02
8.393995147899616094e-02
9.660724356643046740e-02
2.574875263810012804e-03
8.328977075463522839e-02
3.038582631330930678e-02
-2.843515329227853244e-02
3.059322628915457296e-02
3.244483021143415580e-02
1.124142400904801775e-01
-1.173225153912655500e-02
7.153108461881244051e-02
5.524792600599064130e-02
5.681062225169800084e-02
5.124229676016241880e-02
1.174497268956981311e-01
1.248451560895668666e-01
3.867279180229477725e-02
1.534420074833569431e-02
7.775162096933557754e-02
7.219847094320153147e-02
1.150791705353343686e-01
8.884375900671710735e-02
9.695542693207710727e-02
1.374450898391302855e-01
1.294254790883594408e-01
8.704451499429194383e-02
9.874969807204728167e-02
1.828317605847364913e-01
1.496788523761469480e-01
2.417767895789583732e-01
1.728575161271920790e-01
2.098719217405390913e-01
1.701149927033220044e-01
1.731775965227999592e-01
2.114718364048717991e-01
2.041554617425240525e-01
1.455683259824676334e-01
1.612576129686596471e-01
1.464287721387434460e-01
1.638393464165397162e-01
1.823742010601719366e-01
2.223032954970120822e-01
2.242892425573010662e-01
1.760034572796675412e-01
1.988129042416733050e-01
1.868617645463214738e-01
1.954944294799242366e-01
1.592029074089763574e-01
1.453302764840090910e-01
2.250102684266684638e-01
1.358727515381786266e-01
1.622018465395582421e-01
1.522714246420397433e-01
1.836683177440656678e-01
1.469839980412442071e-01
1.439977974615819500e-01
1.192850831052810479e-01
1.459088901969926855e-01
1.144597877097011940e-01
1.163079221292419307e-01
1.904016828405021844e-01
1.188763881472413297e-01
1.861223551526585696e-01
2.294010189545383493e-01
2.586340255344718453e-01
2.630074415159835421e-01
3.258160502847814444e-01
4.592576922077685753e-01
4.211178214926549201e-01
5.445458949663742887e-01
6.213480313651903453e-01
6.769439174493832034e-01
8.205824197127501440e-01
8.131398934207104690e-01
9.782936753773284755e-01
9.713443968282493568e-01
1.070239985235885483e+00
1.148224658156226097e+00
1.111982701869602463e+00
1.158486231113152298e+00
1.150235507739308272e+00
1.098383696448742564e+00
1.121355085239264859e+00
1.005049629127643174e+00
9.583778175508810282e-01
8.621371119731420229e-01
7.221258429124387535e-01
6.263372902289378041e-01
6.275476957730916627e-01
5.087811807471994685e-01
4.467839973546753329e-01
3.764135990267016840e-01
3.074878604300529394e-01
2.805458360546952967e-01
2.114635159293600797e-01
1.887185479355561746e-01
1.672009584618264766e-01
1.338921506897129132e-01
1.003603125522891104e-01
1.415839852282014810e-01
9.327740834516173862e-02
9.848304510256136735e-02
7.947360800500179179e-02
1.389170897543760552e-01
1.300335536208987453e-01
1.183268907850372198e-01
1.842575224184170024e-01
1.361049449261261535e-01
1.067244918117493391e-01
1.584850367540991123e-01
1.483057453655635405e-01
1.860637180095247589e-01
1.200351871013101701e-01
1.590029685942638271e-01
2.142581652450930019e-01
1.560187088275903633e-01
1.840979409089666397e-01
2.651811082453143786e-01
1.595719782711614576e-01
2.182311468363800078e-01
1.953448784006440453e-01
2.383124239275120904e-01
2.289611411805217989e-01
2.500370854280998811e-01
2.929150725656637921e-01
1.977536148717152498e-01
2.254811295100689339e-01
2.713530891651587673e-01
3.282742519465553510e-01
2.544647749444270413e-01
2.734802423802714655e-01
2.845920872436108473e-01
2.734420331437779073e-01
2.941691491672383529e-01
2.774468177919262590e-01
2.548370135925899227e-01
2.782532265197387167e-01
2.159094897944434932e-01
3.539063271636566643e-01
2.815201048654712990e-01
2.764306190820468578e-01
3.388618901184451970e-01
2.979390251688754376e-01
2.434592579732087481e-01
2.782507192692007525e-01
2.780235943227684081e-01
2.981828826320460091e-01
3.161836522240613623e-01
2.585006802623867062e-01
2.967709831284901512e-01
2.729617912301812166e-01
3.384556908934910902e-01
2.199694647977439299e-01
2.575438938128649657e-01
2.944471249466467100e-01
2.990015399475707825e-01
2.566532826376298204e-01
2.471482605479762007e-01
2.314102168504470480e-01
1.873769128465012923e-01
2.665983990818430183e-01
2.055139351591674657e-01
2.065833111506632236e-01
2.005403395336905759e-01
1.845745034295150910e-01
1.950767383937908883e-01
1.842440292532011858e-01
2.081723754597835652e-01
1.529260619547402889e-01
1.915757891469929974e-01
1.386367977709554999e-01
1.546790190803154497e-01
9.016559822196998364e-02
1.571386589687852331e-01
1.245895353850479392e-01
8.579788205627492115e-02
1.441842187161452293e-01
9.649524414965390817e-02
7.928933343507685305e-02
1.015429901889514791e-01
1.103459876474440771e-01
8.857188251192657513e-02
1.428071548700035331e-01
1.121686284505384185e-01
1.381306617341117593e-01
1.168829079974543494e-01
1.109775718299673836e-01
2.767926616224823666e-02
9.504957218823967269e-02
6.362964862027130353e-02
1.053546217784257499e-01
7.203378746427023527e-02
5.186444188714439685e-02
6.399052149920674004e-02
6.990746956983878713e-02
4.989741682449128773e-02
6.127918416918221728e-02
3.714859614030357332e-02
4.470351885196938851e-02
3.465274085252344205e-02
2.415226687481313375e-02
3.989046919507799327e-02
1.984824406454592169e-02
2.999760325193333299e-02
7.435139474581431429e-02
5.617414121971946173e-02
7.492924532499242729e-02
2.959342907939728831e-02
6.379089216825714614e-02
9.517693017261261157e-02
5.621282117908739384e-02
5.423688588069101174e-02
8.088621411675173123e-02
3.383781840341636843e-02
3.748019621853050654e-02
3.226416322657727626e-02
1.030923982418660984e-01
8.611444145256846872e-02
5.467883999374646004e-02
6.947955375798621491e-02
1.155604222539910880e-01
-5.540002448780625977e-03
7.748958359877207436e-02
7.473733963680886938e-02
6.171352057860627488e-02
4.526521296604729683e-02
3.664676819153442344e-02
7.353198277116509973e-02
3.733339070565118434e-02
3.468123016985247969e-02
6.420591952824825088e-02
4.864750275263056423e-02
1.532891423282059865e-02
1.200069287636989779e-01
7.591526915047944191e-02
9.833770329810706534e-02
8.274643960281169441e-02
5.227658247211095649e-02
8.770582136924900962e-02
1.025776029832045355e-01
1.520584085324989398e-01
6.572286034985000414e-02
7.029106454651097569e-02
5.697474488768117240e-02
1.702922189136853448e-01
9.594820695897272878e-02
7.529922905067026884e-02
1.611462552127199688e-01
1.254970715406213688e-01
1.232252799855495518e-01
1.700363149884629999e-01
2.008121490692500732e-01
1.365761075050746787e-01
1.588550015859335196e-01
2.159845433317090224e-01
2.111480161588493720e-01
1.999730577204325010e-01
2.100242234306475830e-01
1.720956489755657015e-01
1.909958423982373588e-01
2.162722862830570025e-01
1.877471967684860576e-01
1.911790406925012453e-01
2.144251627986573649e-01
1.451754789044686911e-01
1.327092240321925132e-01
1.390869769450602811e-01
1.547925722815478855e-01
2.244078962458482818e-01
1.526827153251105740e-01
1.670066829421077981e-01
2.282518788686485056e-01
1.508626869598688747e-01
1.635431337111048489e-01
1.277561953399113936e-01
2.156797856380271161e-01
1.444628282856684209e-01
1.094544342168855267e-01
1.447180227973205446e-01
2.091690322880949138e-01
1.453529322682843294e-01
1.214928585520334281e-01
1.631812177091208349e-01
2.717147787903570477e-01
2.655812539156017227e-01
2.825919515305996832e-01
3.124594366129638257e-01
3.985170233943540197e-01
4.425934195476529665e-01
5.308846540517594415e-01
6.125985447929119809e-01
6.987725464646149520e-01
8.135130196289945825e-01
8.919177470022586762e-01
9.730421178580461739e-01
1.003907520845315871e+00
1.045451532358000257e+00
1.101829872335767346e+00
1.203535425753004651e+00
1.116773561222635491e+00
1.118759825790060392e+00
1.070356164644556074e+00
1.046312392848626649e+00
9.746769859370429945e-01
9.475549645166448931e-01
8.124423451544184882e-01
7.248579737272553558e-01
6.478619169677314327e-01
5.331904203990787128e-01
5.157677503426522092e-01
3.921003466991245245e-01
3.372597344998163327e-01
3.143039060210168767e-01
2.450548435716641271e-01
2.095905789848377110e-01
1.215268165127666167e-01
2.321990084852769698e-01
8.653999729103678540e-02
1.236181907116143813e-01
1.571085198731392574e-01
1.489257318596131641e-01
1.289010146251443611e-01
4.799000980354183044e-02
8.436955793567771367e-02
4.981336304696112188e-02
1.201343879227536326e-01
1.258916667087443264e-01
8.992081695778147976e-02
1.334007289198146928e-01
1.231210403264083875e-01
1.513299840514114869e-01
1.441699702841554853e-01
1.122815243234378257e-01
1.931476757180302095e-01
1.338573844173963356e-01
1.775516326388814070e-01
1.636489099035076111e-01
1.569577172236533147e-01
2.242189946056832861e-01
1.898015247004053163e-01
2.221848495316511851e-01
1.758204941136033983e-01
2.631191393614197294e-01
2.043702708290439096e-01
2.312011295777071096e-01
2.145804064304647485e-01
2.471805939518285644e-01
2.203823037647660854e-01
2.569654241279461515e-01
2.959118432937644649e-01
1.980097216630665735e-01
2.563039147495086989e-01
2.380224626732931337e-01
2.544425917390669145e-01
2.817874964690543771e-01
2.535581161766802816e-01
2.648026572126625511e-01
2.684228606473068601e-01
2.684169353558811255e-01
2.841678833433954332e-01
2.654382647138728846e-01
2.725498467635671385e-01
2.836197993176389209e-01
2.617271205125149547e-01
2.782110538227085539e-01
2.671807993987717067e-01
3.079234998931800193e-01
2.453680111332010028e-01
2.257705696578974630e-01
2.495491488644275835e-01
2.699347185563618079e-01
2.689525970215241868e-01
2.551761042168356752e-01
2.024621066004110292e-01
2.676522520028331575e-01
2.646732589742640807e-01
2.166983256632765142e-01
2.467648018921546615e-01
1.745247379774209073e-01
2.382824523390336402e-01
2.144890955497674723e-01
1.318627143959106851e-01
2.324472954887965570e-01
2.364106348541567260e-01
1.972613741260151599e-01
1.914093020748889595e-01
1.727894727180326606e-01
1.648832615662976231e-01
1.176234707600777168e-01
1.728203652686710057e-01
1.248693548877382598e-01
9.524123352448440882e-02
1.229193732983232673e-01
1.019324304482397692e-01
1.158567260887661821e-01
1.033791488008546366e-01
6.975091513305034518e-02
8.931460411106577346e-02
5.371686626465660419e-02
9.977501857966347698e-02
4.334630629916962075e-02
1.206270709735791646e-01
7.298064814671217926e-02
9.646172529135926821e-02
4.768335516099109217e-02
5.297187406952610922e-02
5.279386551943612838e-02
3.682731684154535307e-02
3.279541888385281712e-02
3.035969838687915118e-02
2.998607557038374116e-02
4.896889653682907212e-02
5.238998634165881185e-02
3.134391757923732369e-02
1.933959961521726154e-02
-7.071660855039036547e-03
1.396523267023035315e-02
2.756604981391481621e-02
3.992894996109380701e-02
2.697455616000676848e-02
2.207345138654623340e-02
-6.654457039952724196e-04
2.366774858647784779e-02
-9.063563027499298153e-03
2.448308169519056859e-02
-3.212299629798558154e-02
-1.259529087866497962e-02
-1.275063935806889162e-02
1.620991505651856943e-02
-3.085161462743233468e-02
1.129092280954029082e-03
2.185270284436707788e-02
1.718432692174931900e-02
4.269876405559719368e-02
1.738643142019919915e-02
-7.153570692193725322e-02
2.450310546076831658e-02
4.822986228823974986e-04
-6.442933457964277258e-03
6.102917280692992524e-02
9.852853875174984177e-02
4.730285484928720835e-02
-2.124031321407067116e-02
6.235957637684913513e-02
-5.394743023907704049e-02
2.407375416362895690e-02
1.206444222621910409e-02
-9.435339363871362781e-03
3.904723021490820456e-02
1.840970823533349954e-03
4.461256016217031439e-02
6.913617689567214467e-03
2.463755589221828385e-02
2.429926278987439014e-02
1.070185018701113322e-01
4.352915612475466434e-02
2.569605637599515699e-02
6.932543157197064432e-02
6.655923507547836793e-02
3.143585286634162368e-02
6.246992231148152525e-02
7.181615691405082713e-02
4.424831782562379384e-02
5.815472534865091109e-02
1.337541261227186973e-01
1.128519434881555539e-01
1.134130500909199396e-01
6.524525008575153551e-02
9.250047326274600523e-02
1.577706887493177668e-01
1.160427804206597552e-01
6.461417760582849334e-02
1.536914169249796180e-01
6.238892019821894175e-02
1.484507453571281554e-01
1.888450657486086537e-01
1.478687672454633284e-01
1.812689426591273245e-01
1.581083305196050171e-01
1.714676465347778900e-01
1.138416147538353074e-01
1.312776029985552595e-01
1.374650492287662062e-01
1.345859905243385612e-01
1.878843082774641349e-01
1.302408801483339040e-01
1.473876220794008707e-01
1.454275698966104868e-01
1.249840600601581087e-01
1.120306448678592831e-01
1.681489257570513152e-01
1.261518875124189309e-01
6.221107779408257404e-02
1.213087399503393060e-01
9.350639998257130603e-02
6.528307596528595824e-02
8.955435619817524173e-02
1.009149726515679718e-01
1.078308750770321511e-01
1.110596516673694051e-01
1.313234744501289852e-01
1.324255703527581762e-01
1.120266852990256801e-01
1.262488978495805159e-01
2.221476785694499745e-01
2.597533351325344020e-01
2.638623757698577710e-01
3.699916673030562708e-01
4.209962484429251584e-01
4.588687052608733108e-01
5.380617103891165431e-01
6.169921488331721049e-01
7.180890882884852777e-01
7.881929246020171753e-01
8.525834158709948429e-01
9.376162799198578535e-01
1.008288356160943033e+00
1.134595061959179363e+00
1.060420378231728300e+00
1.110588014847558869e+00
1.071260337873818580e+00
1.072981024857361465e+00
9.984253065404886662e-01
9.339851325048484920e-01
8.231707103395928815e-01
8.472218376067548462e-01
7.248913586961541755e-01
6.587859079831581699e-01
5.347073253043205243e-01
4.463774823763540511e-01
3.533469024688258853e-01
3.080857423928459737e-01
2.513820629944600316e-01
2.713736232571731799e-01
1.785085590242516396e-01
1.471483265922773342e-01
1.191587413171718984e-01
5.021326327795078842e-02
8.687494890643354672e-02
6.487938122291594945e-02
7.168127319847431012e-02
5.354285676373648356e-02
3.868421677571855233e-02
1.695686305623290632e-02
-1.399576325501243265e-02
5.632495965270183091e-02
7.579715069393497262e-02
5.153181236774287410e-02
6.623450915905146341e-02
7.037576934482650537e-02
1.306732917068231525e-01
4.717185855487149998e-02
6.974594649194756912e-02
9.412856193608661048e-02
1.169006468928552867e-01
9.076095896003974484e-02
1.530703940484672843e-01
4.640990164933041229e-02
1.546641849661630486e-01
1.344539797608406972e-01
1.161414679791731575e-01
1.284153944881172849e-01
1.254631313872190124e-01
1.968008893231401046e-01
1.751094670078191806e-01
1.263063746092034090e-01
1.348621463246716945e-01
1.814529028196645855e-01
1.552055156954889048e-01
1.486681349272528929e-01
2.141360634264222462e-01
2.497820543610341226e-01
2.097515186950216770e-01
2.176520337979123421e-01
1.581643762601361858e-01
2.630210901739575835e-01
1.997592228375243417e-01
1.926251182084392777e-01
2.181454737632511076e-01
1.876470116058419624e-01
2.425231815967327786e-01
2.330451657650208230e-01
2.186445930786746206e-01
2.402256344772207008e-01
1.404039552885096576e-01
2.283181911536670827e-01
2.056452783485672176e-01
2.161706041798212019e-01
2.069747555072239675e-01
1.453855122281382528e-01
1.882320493558977681e-01
1.861836919779619737e-01
1.995976105474632778e-01
2.299431750103870797e-01
1.656771719946683596e-01
1.049955558990627313e-01
1.993242684931020026e-01
1.636019312090648825e-01
1.682068958161470063e-01
9.832572444282516866e-02
1.312092676644207312e-01
7.782923420901945166e-02
1.471893351157338159e-01
1.285404554917626285e-01
1.079488991126063696e-01
1.039654583903811685e-01
7.377511853865945102e-02
1.524345836009997068e-01
7.342788700100136290e-02
9.174928580696717351e-02
8.920139159969164844e-02
1.504899039348321921e-01
3.238042914081940699e-02
3.863907700874373574e-02
1.739174626671093071e-02
-5.228482871766858275e-02
7.183969117665392479e-02
2.205692767122784809e-02
4.971118722897242825e-02
2.011954844088145039e-02
5.517194205349127550e-02
-3.661702890295893270e-02
-1.749159624734704377e-02
8.708997695350065293e-03
-4.478930498730503834e-02
4.626937955214315001e-03
2.838205294309276150e-02
-1.075702058385235443e-02
-2.254092730815294640e-02
4.323392194974815667e-02
-4.098668168576517779e-02
-2.817521859614021545e-02
-1.713032404516510662e-02
-2.647258485659214136e-02
-1.150889844264700937e-02
-2.680112310246787755e-02
-1.182667447032982252e-02
-2.791859199864848637e-02
2.605567000602044408e-02
-5.581938431057120731e-02
-6.549472093490910085e-03
-6.308930014063970915e-02
-5.211806913513410133e-03
-4.326379887555682757e-02
-6.652815457558157453e-02
9.910907505930897921e-03
-2.632720934381438740e-02
-5.007718633608826408e-03
-1.290379439483711407e-02
-7.119586376519813908e-02
3.180135132548635168e-02
-4.149638885084797058e-02
-3.166027421869264946e-02
-1.834693590175127606e-02
-4.579600987315780858e-02
8.447530014421500422e-03
-4.454381015594371940e-02
-4.767929158251483363e-02
-6.251519465263744024e-02
-4.148670440851361108e-02
-5.755032391228098732e-03
-1.953548540877705561e-02
-5.968337798882855649e-02
-1.611227807853388844e-02
-1.954886803058752953e-02
-6.995587323302708549e-03
-8.561747498201856266e-03
-4.453673576401277756e-02
-3.689965098932909693e-02
-3.327468933934120410e-02
2.211803507968995025e-02
-3.624156351899888301e-02
-1.918559163436359127e-02
-2.807314929556945643e-02
2.310762500633027627e-02
-1.619300286420063267e-02
-6.771678237281508750e-02
-5.469862694771996520e-02
1.652820497941695499e-02
3.941331665320783884e-02
-3.881557871915349012e-02
3.367891162026522001e-02
-4.282868832505476453e-03
3.913324176264734722e-02
7.314779855939085307e-02
1.044633669506342954e-01
4.653861265690684146e-02
5.969355949644875037e-02
6.099345918345072670e-02
6.181723713608360676e-02
7.090682245272281192e-02
8.459431936016767462e-02
9.280882994663408603e-02
6.594146527349942222e-02
1.036251295767600389e-01
1.331167916359545789e-01
1.425324359618818371e-01
1.302991887961321427e-01
1.071483312496863405e-01
1.013452067638594134e-01
1.452298033948669076e-01
9.852539355142977961e-02
5.906791637057969002e-02
8.967081527215692294e-02
6.829492463119415935e-02
1.590513910011271681e-01
9.100123478846219860e-02
1.036598459992569415e-01
8.305990268768134732e-02
1.020215966890753168e-01
7.839177039851469297e-02
9.896692434196202592e-02
7.541427158569108391e-02
6.819126744974833565e-02
-4.860475229231414618e-03
5.189175693175757803e-02
5.206645733158103695e-02
7.943735839295583412e-02
5.504498354458148973e-02
1.265566079470574756e-01
8.430496493768685484e-02
5.712607307462297390e-02
4.944052758753083449e-02
1.595686560623617023e-01
1.264954515181886952e-01
2.288221381197214910e-01
2.299871059622305147e-01
3.171263948638517460e-01
3.212483062787081511e-01
4.898798620839825979e-01
5.156069220386154672e-01
6.256919765363039287e-01
7.086539541357350647e-01
7.462982327798939330e-01
8.012716021589730842e-01
8.974119723645940239e-01
9.513975506822294204e-01
1.059286452907503673e+00
9.862842656933296093e-01
1.063955365694816857e+00
1.049649323590737149e+00
1.022204659853108044e+00
9.628924429415792741e-01
9.400142021606294751e-01
8.501731741903610917e-01
7.946540149009817533e-01
7.364278210093666566e-01
6.524931823215791571e-01
5.468224350315584736e-01
4.026124454024937460e-01
3.354321724467735910e-01
2.779962654371784248e-01
2.099818804342571954e-01
1.699697299897620084e-01
1.847133358565763162e-01
1.623540857514740032e-01
1.045267868508178710e-01
2.997597978709944100e-03
4.222922014991798562e-02
-3.252227383579989889e-02
2.316974952060935067e-02
5.066679830116817274e-02
4.022668346710787241e-02
6.982558152086204561e-03
7.758493807305553991e-03
3.876557981780766327e-02
2.927967117905894839e-02
2.078108667690103939e-02
8.195421027284485738e-02
4.081867291441364232e-02
5.977211431618408011e-02
3.068536963473055684e-02
6.210941236498565554e-02
6.199645080285359766e-02
4.403351297599566311e-02
4.159108836088423050e-02
1.150089886470292283e-01
1.037612902434553314e-01
8.273936677118975958e-02
1.244867812892832271e-01
9.772326686577302579e-02
7.546689444118916124e-02
1.079064892963265132e-01
1.499827817853935097e-01
1.687038665694954587e-01
9.333511693384172192e-02
1.797332644875292984e-01
1.401605612204379903e-01
1.637021080924824512e-01
1.132642024864345676e-01
1.569009137736898651e-01
1.618553726142251958e-01
1.403466063668694641e-01
1.934479405367784399e-01
1.953179913513394816e-01
1.811828369902224734e-01
2.006306513575599193e-01
1.429679849455051110e-01
2.140762360476932136e-01
1.748457378251079275e-01
1.930911098178187679e-01
1.830968479689356887e-01
2.155764217826328100e-01
1.777970492329548624e-01
1.965573997586932409e-01
1.805336560380983169e-01
1.737916522368226357e-01
1.779627348037099710e-01
1.121751931394582430e-01
1.705408988728531472e-01
2.262006198423948677e-01
1.697214539031526026e-01
1.512382372087976712e-01
2.310189718724501295e-01
1.188507800606894843e-01
1.257089350155668750e-01
1.024758301800725024e-01
1.531762547763454996e-01
1.130214728909529065e-01
1.237464867109151073e-01
1.552416182577578407e-01
6.966425967178474510e-02
1.666952921200672844e-01
1.315414758205842305e-01
1.308234630733844384e-01
5.312732130794847046e-02
9.709615635660723276e-02
7.747574616163024896e-02
1.497780747797645418e-01
9.951628630260292430e-02
4.650802163738750050e-02
5.273051356918756483e-02
1.958009331609980586e-02
5.275627831858280964e-02
-2.385620917469839786e-02
1.770290406538894273e-02
4.232317830700378647e-02
3.449284856944236088e-02
-4.047266580516583473e-02
-4.275342460263201888e-02
5.934135346200170025e-02
1.366163728335459404e-02
2.785681173305684655e-02
-3.645849401055305944e-02
4.167161379548749156e-03
-1.038582409744863433e-02
-8.359967979338409072e-02
-2.640276732868706427e-02
-5.261926340114820438e-02
-2.655478822216364443e-02
1.893690251647654754e-02
-2.312675810230722939e-03
-1.213085560989289602e-02
-1.609188683485110807e-02
-1.049695648999688785e-01
2.958576290119219881e-02
-3.635130810992472788e-02
-2.482770555325537060e-02
-5.390831905578849503e-02
-6.819025026674163659e-02
-7.476103749161355783e-06
-7.417950026878269987e-02
-7.422080010918798154e-02
-5.385852302947914672e-02
-7.412096771164687625e-03
-4.250264951273307473e-02
-8.457538841497130866e-02
-4.457393530635342382e-02
-8.626001882012108990e-02
-3.927260979973625638e-02
-8.435839312010073865e-02
-2.229519973138016989e-02
6.948345022851243336e-03
-8.635717386098822057e-02
-2.873442636026037403e-02
-1.369195331283708933e-02
-8.418654270986687671e-02
-5.512211385473607395e-02
-5.352451192397637836e-02
-5.310792342299300306e-02
-3.024667742468717738e-02
-1.494174468001289655e-02
-3.515887238733099440e-02
-7.946667280168961955e-02
-7.973621508855106843e-02
-1.602128663061882022e-02
-4.088835756754921613e-02
-7.300428018277504982e-02
-4.659211936905861828e-02
-4.293988756615614577e-02
-7.085648564781499292e-03
-5.823127237590376704e-02
-1.514049072743968785e-02
5.497278057372399773e-03
-1.398293612468890293e-02
-4.277522591544360292e-02
6.198516908395623748e-03
1.128078079699251085e-02
-1.795816875215047390e-02
3.317856418287802589e-02
-1.654515656001065774e-02
2.763126098306328826e-02
3.796239019985381963e-02
5.032770271911386067e-02
4.864703961733669174e-02
1.272461920297851545e-02
-1.352467303889932915e-02
1.726647146128099108e-02
8.830992571907791966e-02
7.011158237841509655e-02
7.531071909946368548e-02
1.561488837219111581e-01
4.858261342341327338e-02
1.107292451579718340e-01
2.251504514618965502e-02
1.079428084933004850e-01
1.002162080308866277e-01
7.302012853344197474e-02
1.402160167492960130e-01
1.170594732235262225e-01
1.337602127999967250e-01
1.260003587439392780e-01
1.113691359765235644e-01
1.134307718472197524e-01
1.388366690616505139e-01
1.628876302674822918e-01
7.742502108132957861e-02
9.877810081190416258e-02
9.027752248935252966e-02
6.348568465615506140e-02
5.700917326260291490e-02
8.979215115498812017e-02
1.390455056338711359e-01
7.656714355944030381e-02
3.482223052535278474e-02
6.301074610783649610e-02
4.481433153808995346e-02
5.192799143781762217e-03
1.986628671644299210e-02
3.823662372791548913e-02
4.541976277138663060e-02
6.212851090123268361e-02
3.551185703244461728e-02
1.321664291453017170e-01
1.229678065026560407e-01
1.697388680145264228e-01
2.854368620352820130e-01
2.878397186466150059e-01
3.640770187443063133e-01
4.860704679155739005e-01
5.534061619665701093e-01
6.401076762737651915e-01
6.277538988261873731e-01
7.663944059398152264e-01
8.302260536637593447e-01
9.214730128070708348e-01
9.617894801966887508e-01
1.085736120987676134e+00
1.105459756989244147e+00
1.058951648953834201e+00
1.038914753852872019e+00
1.084803583518516579e+00
1.034288303524504959e+00
9.750008782570019905e-01
8.354762747790932531e-01
7.658220610491804914e-01
7.268865114434372998e-01
6.464263923468671624e-01
5.183197223478073212e-01
4.796376240490089482e-01
3.916601589401156325e-01
2.849277733949311386e-01
2.439754026637839246e-01
2.214900774232173575e-01
1.241972188659255932e-01
1.330432352547638586e-01
8.226548888748322352e-02
1.028510021207427461e-01
2.588444887796725880e-02
8.039329399946375243e-02
6.627647996095621663e-02
1.637483879573148338e-02
8.160278645216227644e-03
2.725031282137809277e-02
4.079925484971055893e-02
2.301551178986220580e-02
8.051984955465585347e-02
7.429940315145840135e-02
5.039940766872166855e-02
8.518436833911927075e-02
1.342164758143341574e-01
1.383577041212625397e-02
1.177308522761219972e-01
7.350520723226720843e-02
1.254872981175578772e-01
1.292130426541314991e-01
1.529210870535791245e-01
1.000319248443483910e-01
1.046969640105041011e-01
1.467768182372853891e-01
1.451665806074559084e-01
1.497697526909250731e-01
2.006941744182131893e-01
1.470475612511221997e-01
2.319012440320434298e-01
1.660748658463508942e-01
2.048890270687365733e-01
1.475874364846834208e-01
1.847978861541635931e-01
1.905280300941346316e-01
1.819211446029805612e-01
1.876168983129751222e-01
2.214407791308750373e-01
2.139265370518836640e-01
2.285704325332048592e-01
2.453093693512251594e-01
2.201540753185394772e-01
2.456965965676178032e-01
2.056208107760674197e-01
2.398506476736924631e-01
2.564908801236879810e-01
2.205441193439273417e-01
2.320493457858731623e-01
1.954951803091763141e-01
2.557849799716456762e-01
2.498566601869033621e-01
2.640600320669179712e-01
2.912429887999021805e-01
2.044247199455248298e-01
1.859610125036346151e-01
2.400194489996488878e-01
1.888015602213478639e-01
1.827672232306662148e-01
2.064804434929015942e-01
1.917920550397125556e-01
2.137229066688356438e-01
1.849715212812764187e-01
1.600334997611257970e-01
