1.045118220559766220e+00
1.040562403412016668e+00
1.021411530094466613e+00
9.316491825763162371e-01
8.886022466199385850e-01
8.807227604583297564e-01
7.574467566113115558e-01
6.758885728878293309e-01
5.875192667282365111e-01
5.264324175947864282e-01
4.530916044796735598e-01
3.584482022899170839e-01
3.180462737389581629e-01
2.266307962746208493e-01
2.416751723460743295e-01
1.286926331042236027e-01
1.075202786577061226e-01
8.591841111382604590e-02
8.227448428258890556e-02
6.856500421353553532e-02
6.498127903256693816e-02
4.582789396104564039e-02
4.667545458001532907e-03
3.161060452824973610e-02
4.817079057474163428e-02
5.110107339115853298e-02
4.349706408735461161e-02
8.834395359375944723e-02
5.537596345987486762e-02
1.088509477368213990e-01
9.711621985897768428e-02
9.210110922655773136e-02
1.139999406623665307e-01
7.230107715177727656e-02
6.902977636604648581e-02
9.778708551195591792e-02
8.334963168193379457e-02
1.959861949890232546e-01
1.441662665572109314e-01
1.222445155484741808e-01
1.572762851822654961e-01
1.510645249214410679e-01
1.938630559894845562e-01
1.807680462930995602e-01
1.738496541386468919e-01
1.739579725284735590e-01
1.722041275627204937e-01
2.253697711504543122e-01
2.263388390118112881e-01
2.156326891113542754e-01
2.315040980851340580e-01
1.967410987134223521e-01
2.309510539919845673e-01
1.622499145631156603e-01
2.284666474676093906e-01
1.851165460650217309e-01
3.080913501414419553e-01
2.118151700455390973e-01
2.188713636717949940e-01
2.725254970634040097e-01
2.764252820808560940e-01
2.055882975225561682e-01
2.123630593277494316e-01
2.572031574867298387e-01
3.015021077164817820e-01
3.284572519737246621e-01
2.397986883013486781e-01
2.433278171084041486e-01
2.583823841274921485e-01
2.864106961294052844e-01
2.872168986624634157e-01
2.511011571615998639e-01
2.476491560249716728e-01
2.419781491356784997e-01
2.264872139988743927e-01
1.922360791545841552e-01
1.799416884378476911e-01
2.165806945715328946e-01
1.745441597441301784e-01
2.219614203876859038e-01
2.304393270916236247e-01
1.533845441732000492e-01
1.926249734242799216e-01
1.784343926417827353e-01
1.532196803842051647e-01
1.872280040690051384e-01
1.120013271802272892e-01
1.352780150309439711e-01
1.273503988181081126e-01
1.270052482926957160e-01
1.395865939790756904e-01
1.082173021922282763e-01
1.214175428422492597e-01
1.737301232142378637e-01
1.031771775548285253e-01
8.111361048930570972e-02
9.230909016451623039e-02
7.894537445812407905e-02
8.366319213440011338e-02
6.740234218619091389e-02
4.652603466734601262e-02
1.006217376241513445e-01
5.607176383414295973e-02
7.627519698326042097e-02
5.971555125876173292e-02
2.270328718394350881e-02
7.966990096244817854e-02
5.811644647875782027e-02
-1.791093258426065815e-03
2.419883554774232559e-02
5.534769515709019039e-02
4.463789570765222536e-02
5.716189539179307444e-02
2.942057583251673353e-02
2.374557663518669232e-02
5.089965272681365449e-04
1.161403872880304930e-02
2.163461014068128810e-02
4.483727720271950268e-02
1.260840745372160746e-02
-5.145798492652009504e-06
4.427296689126886814e-02
6.738367700401408367e-02
-5.675026144758706093e-02
4.564343683939648538e-02
8.749011234950936425e-03
3.048548481280469874e-02
1.515511524114587782e-02
2.428788427795548072e-02
1.312890647774662099e-02
3.370149306707036219e-02
-1.178132053966569198e-03
8.392177395760770306e-03
9.119064684163721846e-04
-2.847630759977075321e-02
2.579557645662181736e-02
6.228399704850985652e-02
4.403580457058482722e-02
1.819831673804787192e-03
2.585425178912510030e-02
-4.563005649257934754e-02
-1.376162923045444117e-02
-3.004500086207955237e-02
-1.340947247356845742e-02
1.184403684397964708e-02
2.584198700037897145e-02
5.686405974325886570e-02
-2.877015340793169507e-02
-9.081955171109074021e-02
1.166869665802982431e-02
1.303250516818961133e-02
-2.087430570524780038e-02
-8.004586522949323768e-03
6.053043558450797029e-02
3.539547180196261911e-02
5.052745622378940205e-02
3.621025548681285067e-02
2.206312674433549489e-02
6.374072534943388268e-02
4.188926502150585457e-02
1.090449474016870479e-01
5.918954481613320634e-02
6.005691144724246977e-02
1.036403073719702611e-01
6.166146200651411585e-02
3.887006591879128836e-02
7.300834346452841905e-02
7.236371737431451789e-02
1.011303018843096729e-02
1.664332120889959743e-01
6.948260237840123144e-02
1.426518263206401627e-01
1.606142482243846370e-01
1.181228637737400666e-01
1.430959854697883005e-01
9.237974420238156958e-02
1.734063754767174170e-01
1.033990376912253539e-01
1.592287517161418142e-01
1.570760286178055631e-01
8.101053253426354628e-02
1.236379536154999376e-01
1.316819486563907682e-01
1.215734113661714189e-01
1.556289026117632091e-01
1.877807459096899056e-01
2.009814846880528250e-01
1.770767985379378406e-01
2.357931666455498898e-01
1.602702897974105367e-01
1.905134005234295491e-01
2.094711903138889719e-01
1.636262445319296432e-01
2.212483285961739377e-01
1.966127539238431976e-01
1.468280195818608136e-01
2.184996900671585807e-01
1.313101365643051799e-01
1.576989565559601125e-01
1.646964930437888885e-01
1.549127495612063754e-01
1.851023685399854346e-01
2.089364517102796359e-01
1.718268983510516934e-01
1.118666445772124873e-01
1.698692815760131092e-01
1.548117475248831920e-01
1.142731467015399294e-01
1.914283388037812395e-01
1.533251118481344100e-01
2.404456616714734374e-01
2.075626771041756413e-01
3.176580847858415657e-01
2.833589400967199134e-01
3.496407574021694331e-01
3.689320739932235860e-01
4.722402688692211026e-01
5.662772991657987198e-01
5.934429551464172059e-01
7.042436093505919370e-01
8.544244756135862540e-01
8.477396212203948123e-01
9.669139553007448651e-01
9.242407400457908206e-01
1.075374304656610214e+00
1.116818943250764473e+00
1.054218601269279354e+00
1.147703779708228122e+00
1.019972259572751838e+00
9.764547412436405116e-01
1.033123824634072374e+00
8.989903658159216215e-01
8.910050336064985199e-01
7.970695606876255779e-01
6.571378179107700834e-01
5.729878417276318414e-01
4.636525872732202291e-01
4.183464508607617760e-01
3.242387760556483256e-01
3.240345153691902569e-01
2.379362221232489971e-01
2.384633810466685877e-01
2.177566926844784756e-01
1.520848918067388145e-01
1.640573749289938599e-01
1.094647551750227432e-01
1.472022401173105344e-01
1.315946607265039425e-01
5.685111553532491008e-02
1.103137814876085782e-01
8.149602426723398518e-02
7.258976515348974923e-02
1.144598151779554207e-01
1.002507249025420544e-01
1.448577765475290713e-01
7.612752600763578181e-02
1.461821593157202337e-01
1.315508215037938800e-01
1.366391524765057652e-01
1.788527579115014865e-01
1.527966504348110266e-01
1.161757588251824680e-01
1.233980102779771160e-01
1.692109400120732632e-01
1.478669708685296791e-01
1.865003562087871880e-01
1.636880212713515970e-01
1.864934467874551360e-01
1.898588591180469243e-01
2.080116618346573576e-01
1.699501218048357631e-01
2.057681307270708693e-01
2.310443019053866343e-01
2.863743579607059275e-01
2.758167258880853123e-01
2.228357150134798736e-01
2.104833133688274183e-01
2.874360224941597819e-01
3.306315756146094298e-01
2.402959519224082685e-01
2.964960928881056335e-01
2.692696982754171353e-01
2.960548742367511976e-01
2.613008511864180483e-01
2.679946211893953212e-01
3.280561169683676170e-01
3.004602297839902847e-01
3.045828243123483436e-01
3.335208165610042963e-01
3.326443580437695169e-01
3.200219223233576327e-01
2.899183909769320056e-01
3.168645386818187970e-01
3.111086610848492473e-01
2.557471744931830715e-01
2.667756788900108589e-01
3.312049767111507892e-01
2.566412705380499149e-01
2.405029269053975405e-01
3.140996618119423767e-01
2.884344737848326679e-01
2.485323813213920485e-01
3.096438462354966226e-01
2.457908709556426152e-01
1.880738469156745807e-01
2.665309699014247191e-01
2.647894426006233148e-01
2.519714658893885684e-01
2.596703069503049632e-01
2.101907202924001017e-01
1.967588389066007859e-01
1.911051921018323829e-01
2.096037513441328382e-01
2.254200439809441736e-01
1.559695269191457845e-01
1.637449309695874211e-01
1.658956007731985649e-01
1.676239929917602844e-01
1.087491417786342618e-01
1.953180941400653736e-01
1.440086718941592236e-01
1.494906022354269837e-01
1.452674333190577538e-01
8.515268056292074617e-02
5.790096642439301888e-02
1.243499947601271194e-01
1.271633524018756511e-01
1.400839281551011783e-01
8.741777895977818902e-02
1.471816477451503014e-01
1.316397851302966715e-01
1.370458992229484640e-01
5.253308640681293024e-02
7.768269601210947561e-02
2.075020593753011677e-02
1.350109260202417005e-01
9.540216609675594706e-02
8.860237987016844619e-02
8.512336618738071403e-02
4.263230637296475806e-02
7.278127864021485816e-02
6.617044149673251274e-02
7.570726863349876157e-02
5.403787011465838869e-02
4.741885434536831367e-02
7.895263319478429409e-02
4.926039183233806712e-02
7.079107225849898266e-02
-8.588817030065185043e-03
6.306266622489242746e-02
1.169851554274287803e-01
9.732498503710462767e-02
1.462906690748160266e-01
5.371494166921234742e-02
9.306385185133098092e-02
1.050851629252649716e-01
6.938867821441357941e-02
6.243144823895974138e-02
-8.257470829383384281e-04
3.259119566710598492e-02
1.234999001118968487e-01
3.661811927474797890e-02
6.647044970865949309e-02
5.399278143823227349e-02
3.829022102564077351e-02
5.873030017047927570e-02
4.183744806099921193e-02
8.388930663524754583e-02
1.793288875214251593e-02
5.512840562784990239e-02
7.504371354777146508e-02
2.921951596026165984e-02
-1.040323121268495882e-02
4.817448055541742602e-02
6.896413606131758522e-02
7.755459483620763539e-02
2.925312798942966697e-03
7.034765852110749784e-02
5.860995620921184701e-02
1.058316445026458441e-01
1.069923570910445709e-01
1.747946125837630121e-02
7.308945303838974838e-02
1.191288570782722822e-01
3.201738395449682528e-02
4.325433686811314127e-02
3.476960154567955430e-02
8.203132191620170210e-02
1.649961354822621629e-01
1.002300471376824931e-01
3.121696733067524238e-02
9.321927075565136778e-02
1.126342723623218189e-01
1.103973496716075253e-01
8.837572073311367182e-02
4.998024925145483355e-02
1.066226233265340495e-01
1.462160579284085271e-01
1.578070240139017311e-01
1.298753652643844514e-01
1.270310304474568941e-01
1.968885125308230677e-01
1.403262489854067707e-01
1.686845595839082668e-01
1.692176368188173241e-01
1.773090469143379366e-01
1.195316838429841266e-01
2.162380394433365827e-01
2.202847251534657547e-01
1.500293631903979463e-01
1.767668593601176841e-01
1.293188502193467204e-01
1.899881373341384960e-01
1.625403755119242677e-01
2.175825069158872360e-01
1.938958608635979741e-01
1.632561429000727315e-01
2.437207598606487280e-01
1.981840952896693209e-01
1.696141228579306770e-01
1.932412902184823256e-01
2.418666394599921499e-01
1.225266139551746403e-01
1.754552348464211153e-01
1.361494577382200144e-01
1.549671721068766883e-01
2.066169071239259414e-01
1.084412325472710464e-01
1.797545196335903483e-01
1.494194593490346390e-01
1.935121741182893318e-01
1.699360183137225699e-01
1.127405548072130392e-01
1.650579762819054108e-01
1.441055908973794819e-01
1.925176946293112035e-01
1.833635603219382904e-01
2.502029619736303445e-01
2.448965802655542201e-01
3.091273106653489866e-01
3.571743318869837203e-01
3.962215350320838492e-01
4.692077876663488523e-01
6.067078319457355207e-01
6.149433205167362804e-01
7.122580409623608944e-01
8.211628602811199551e-01
9.205524378146874298e-01
9.697238875452731666e-01
9.868354652316938536e-01
1.037307985463166604e+00
1.082898260978939264e+00
1.105879159488021291e+00
1.134521467198877920e+00
1.097686182635269958e+00
1.061176210497161820e+00
1.048772768335463956e+00
9.294284080053453190e-01
8.677198918897872648e-01
7.676840596532270578e-01
6.565170996844560403e-01
5.972212124579145964e-01
4.942404398713643454e-01
4.635877320033261473e-01
3.784917804191930690e-01
3.377456685512506551e-01
2.966425102574517525e-01
1.936325876514684574e-01
1.979432549572248401e-01
1.857119966356578222e-01
1.541614723559287803e-01
1.349313997420023004e-01
9.844389714730261698e-02
6.432129007119397057e-02
1.184420063492709063e-01
1.497027062455636437e-01
1.023439502284051728e-01
9.139746725590085219e-02
5.512383897038609926e-02
1.706808090146786361e-01
1.037662780229904325e-01
1.462584187381735235e-01
7.039114850202429774e-02
1.406096879986297732e-01
8.750133144700696086e-02
1.428758177511001703e-01
1.637370057770511644e-01
1.451627488831124246e-01
1.528798008205899117e-01
1.392106413048587732e-01
2.079746740240327185e-01
1.974117045243876933e-01
2.077035708007327341e-01
2.079825205552038037e-01
2.655093264899844874e-01
1.737393719554358729e-01
1.811089768896356755e-01
2.044889487672523209e-01
2.753802658360222644e-01
2.157791364254509348e-01
2.589334806705467784e-01
2.351068170656296918e-01
2.838865928424045837e-01
2.850011177307861798e-01
2.338041345877053256e-01
1.958354169377440335e-01
2.921502526501917885e-01
2.522214005808923742e-01
2.856102900082101437e-01
2.908832799786678636e-01
2.992419862651535256e-01
3.067705792965583766e-01
2.884129952403676755e-01
2.960103817362064738e-01
3.263598416195775398e-01
3.055514665046349387e-01
2.788898814936370263e-01
3.062313224499189079e-01
2.523544973181852114e-01
2.609276126744139446e-01
2.691999615094526899e-01
2.973319224524853532e-01
2.483154756364264193e-01
2.649384094714831162e-01
2.279861239870314971e-01
2.584102156186179888e-01
1.929280293722912543e-01
2.673947733896828161e-01
2.629964424294364278e-01
2.111209524735778720e-01
2.002631299834300160e-01
2.551383748971770560e-01
2.354514341265642741e-01
1.771544619172009671e-01
2.490541476738386550e-01
1.874284904523774165e-01
2.530559839760983531e-01
1.927205384015962530e-01
2.329587698618835745e-01
1.745174247534609646e-01
1.481774415630308095e-01
2.517490518684371570e-01
1.717430761888862900e-01
1.437159488033126764e-01
8.765408085717760200e-02
1.047336348265910655e-01
1.332783480013659816e-01
1.014702722724753203e-01
9.143449326933870969e-02
6.707425040928254034e-02
1.413498519780733709e-01
8.806494597325292828e-02
1.181387902147156277e-01
1.210862053724762744e-01
5.242489406044161665e-02
1.117655363652392819e-01
6.535627893034411107e-02
4.351243219029104353e-02
3.629534411392450199e-02
3.425935578295323525e-02
7.866749239329569321e-02
9.292464993056209765e-02
7.839015164203681774e-02
8.955044440484204171e-02
3.857536509354122373e-02
4.033290058888884533e-02
9.345047494735642113e-02
6.327647537125427601e-02
3.322143799388938001e-02
5.183421430652888212e-02
8.165435485545974315e-02
5.322110673504903966e-02
3.124643449632739586e-02
1.129046593500793692e-02
2.899998811808227744e-02
2.775675455698638217e-02
5.163192514082737272e-02
1.986638599380662062e-02
-4.536892238057088633e-03
4.170117710737576699e-02
8.290344454951085323e-03
4.787531242413275989e-02
1.391258768487148821e-02
1.228144908331054233e-02
3.047975921709491706e-02
6.930654362535610541e-03
2.881896728679094605e-02
1.204777548724542124e-03
1.475528144143953974e-02
3.585079567157179598e-02
2.529644323817439172e-03
7.627135181529248395e-03
1.619374092299335349e-02
-4.632702381071506642e-03
1.714494600797323090e-02
4.294965684692163277e-02
-2.267072819968348266e-02
-9.532495763418247225e-04
1.291874780132290512e-02
4.403596067892733001e-02
2.452399158865388104e-02
5.404425689571249955e-03
6.056656771833014014e-02
4.944702117870346247e-02
2.931403178980310220e-02
9.399349325313745285e-02
2.441581102366762596e-02
1.205256981502965397e-02
1.134544788990887558e-02
9.938889293405885061e-02
7.551438224030888879e-02
5.032658389850150349e-02
5.513011725337173263e-02
4.740691133650276612e-02
3.665465169920789634e-02
-2.854817720858910876e-02
3.967224089003218435e-02
1.092268806609737741e-01
4.730413177266756114e-02
1.106461488623414202e-01
5.653984777519605043e-02
9.479124795508403478e-02
8.660317969399269900e-02
9.992164324323352109e-02
1.210665084978179568e-01
1.199866811114834869e-01
9.370316031997301398e-02
7.828182712025444356e-02
9.281898129452953450e-02
1.448320890195482769e-01
1.723620306063735064e-01
1.299130353376434788e-01
1.732732264907418662e-01
1.697714386162350320e-01
1.608419351807138520e-01
2.088448101032850113e-01
1.895709040895418307e-01
1.642935304712602462e-01
1.215840069809740465e-01
1.927660719525868538e-01
1.449257303970208910e-01
1.366357525266373163e-01
1.901752978660102011e-01
1.062857437915017411e-01
1.839330580993591702e-01
1.794041788718774844e-01
1.896196451398196869e-01
1.449243381415056264e-01
1.685918243839092667e-01
1.553142997692261718e-01
1.064803596511867539e-01
1.189707458685246716e-01
1.179592612405055418e-01
1.269657246559533492e-01
7.748379684358545905e-02
1.146033523107322372e-01
1.310718314880028046e-01
1.023755685306369928e-01
1.578929159692643580e-01
1.264574056194728291e-01
9.767308296487799135e-02
1.520307970642399142e-01
1.248007252381600901e-01
1.963295134401725206e-01
2.009688668397162647e-01
2.772487421908818028e-01
2.043650406713213852e-01
3.391758377714145234e-01
3.683723025348252800e-01
5.247455888644642075e-01
5.315636142274143827e-01
6.582666482923086315e-01
7.245333569910192839e-01
8.231738774504728795e-01
8.840184982065762975e-01
9.638537963084148341e-01
9.606558268301943482e-01
1.011664466872386425e+00
1.104318441711768184e+00
1.009541274353913387e+00
1.067345312347517172e+00
9.810874213590851101e-01
9.341509718176413957e-01
8.640555871963767620e-01
8.253323702294117492e-01
7.218948422512371232e-01
6.822706745513901216e-01
5.578858144009438691e-01
4.998785116302071896e-01
3.870642531709698186e-01
3.566610105472670655e-01
3.076007471095869028e-01
2.172801677223943628e-01
2.158979315531632803e-01
1.679596790326788047e-01
1.080346560138619044e-01
1.254164381854576127e-01
1.302455175880181948e-01
1.189972682024565409e-01
9.798657251290288084e-02
7.133687385312456608e-02
3.264204456413245109e-02
9.766314341881535133e-03
5.522188150945916973e-02
3.642138785081934504e-02
3.599150981334761634e-02
9.331347623499183785e-02
1.471622564741032202e-01
1.082400968284775999e-01
3.855906202771214319e-02
1.432914494982268083e-01
3.447231735766975724e-02
1.024993870031113280e-01
5.538077862081813157e-02
1.264528758084104143e-01
1.146514941556296407e-01
1.038855308024601298e-01
1.375029122910650103e-01
1.680639051402364470e-01
1.029502043265255046e-01
9.514042974874040159e-02
1.363003837851429756e-01
1.682754699069976267e-01
2.020790265476916092e-01
2.268957860945250982e-01
2.132576193410752885e-01
2.003345617551305358e-01
1.685181665664155504e-01
2.099360115983149866e-01
1.667164340828406477e-01
2.945290402299621801e-01
1.730114378262360697e-01
2.086876298833918730e-01
1.978233879699033415e-01
2.396683962419980107e-01
3.092195377347799479e-01
2.384850881155300972e-01
2.266217061048415304e-01
2.298100958935187232e-01
2.644065983810026665e-01
2.763036539403159741e-01
2.862127297456915631e-01
2.380575847258157574e-01
2.070166559287429098e-01
2.067897948962789112e-01
1.955443823411851800e-01
1.472727007428957235e-01
1.872280662000107843e-01
2.274093990414391697e-01
1.754752580363798942e-01
2.144531870377739957e-01
1.859357800197213306e-01
2.024983228114809741e-01
1.914109780425498342e-01
1.452419104961918950e-01
2.037296652264122543e-01
1.613835908122998875e-01
1.328195587205632244e-01
1.484862896604574323e-01
1.956282348251970060e-01
1.559037431083312719e-01
1.464617877316671812e-01
1.077740167828421941e-01
1.440724081636297338e-01
1.548904739707751277e-01
1.375975044385049362e-01
1.142360930645064526e-01
1.168115401164219885e-01
1.123079978478573188e-01
1.375377079054631024e-01
1.356995869730628079e-01
1.414191781576510931e-01
1.186720306806364339e-01
1.295606484211104803e-01
3.875140824887118168e-02
9.711468304081131986e-02
2.017918749035373452e-02
2.645587121809971076e-02
4.343715927347144290e-02
4.555742025906429210e-02
7.811754909471274599e-02
-1.316475228671658976e-02
6.269550289154236788e-02
3.019876738378292000e-02
-3.731826345664436551e-02
-1.467025935825469127e-02
-3.244259949940257737e-02
8.878789487723675461e-03
1.961013003319813514e-02
5.664795148041165684e-02
-2.107906979595405850e-02
1.395173669385878917e-02
-2.108737360826180504e-02
-5.675477073809161860e-02
-2.063278731880783395e-02
1.243422471081944564e-02
-3.106392492140769290e-02
-4.636464962893895037e-02
3.073546627555424210e-03
2.394909339891576616e-02
-2.936139969257478902e-02
-1.999408957055677852e-02
-1.342270105648671677e-02
3.519525245673604807e-02
-3.552636733461941865e-02
2.557929728973544828e-02
-1.757762297315414862e-02
3.679695380440695107e-02
3.193084624424132045e-02
1.427432351732457402e-02
2.243485346790623919e-03
-3.834325764946273918e-02
2.384921367151391497e-02
3.484922846999732871e-02
-5.772632113515190067e-02
-4.105165802079543264e-02
-6.675717183712165381e-02
-4.689100553553045281e-03
-8.598114112893023853e-02
-1.073535711439563972e-02
-3.035571297446838096e-02
4.509929028026153641e-03
-7.527255752147794798e-02
-3.044801716812340492e-02
-3.015123883450086806e-02
-4.780448973168921478e-02
-2.012205216545392278e-02
-1.946003337601529687e-02
1.166477847211375152e-02
-2.623448177539012757e-02
6.296543564648100777e-03
1.044480970292949867e-02
-4.789953798222541803e-02
-2.834482433898807482e-02
-2.440328555482661199e-02
-9.752812755959586188e-03
-4.908600077483590840e-02
3.761972901421287152e-03
3.137132585242088240e-02
-8.882398058335329305e-03
-4.369428510115180853e-02
-2.088687226118954993e-02
-4.847607449408687652e-03
1.866720849321897718e-02
-1.669054531242526382e-02
4.821293566145789383e-02
4.795717716726120156e-02
2.461831052533398206e-02
3.715212791210474597e-02
-2.562022019591818356e-03
2.737840176741365705e-02
7.048775610270979763e-02
7.377258138115677655e-02
2.941141037618402732e-02
6.962754146392752252e-02
2.770670009089129526e-02
1.016003420979371269e-01
8.941433620904315482e-02
8.619123664946284902e-02
1.120253443933501569e-01
9.177321650889994076e-02
1.154851911602376158e-01
1.405693838199617574e-01
1.112386878860632533e-01
1.113225624083476889e-01
1.009648806163542939e-01
1.091436783836026436e-01
1.243510735150369362e-01
1.284722012823531212e-01
1.252159941573386948e-01
8.596990363279262415e-02
1.363538758786724814e-01
1.043965511037069915e-01
9.354810424470191843e-02
8.976648506649009818e-02
1.066097560185280402e-01
4.774547285501570121e-02
6.507448797370055105e-02
4.424634323388285800e-02
8.364316901284818417e-02
9.487372234833799101e-02
8.635984392612847116e-02
4.264820725193647910e-02
3.216756424790807867e-02
8.912395781484855339e-02
4.991091480559629867e-02
8.996789569833998912e-02
8.908949373485700041e-02
1.020670410483298374e-01
1.073412184435688366e-01
1.859444150799304529e-01
2.132961436616565010e-01
2.513840535443885860e-01
3.180915037379321575e-01
3.897130161199139908e-01
4.211425930400670703e-01
4.608077690987525954e-01
5.707968707344370785e-01
6.874332024740685831e-01
7.192214381143080537e-01
7.965404925280495929e-01
8.533231565360902549e-01
9.228834095651551328e-01
9.417315615021190078e-01
1.035056454449168939e+00
9.868909150415910991e-01
1.043942897432579953e+00
9.782060745154079751e-01
9.267502426466003307e-01
8.951246806536521383e-01
7.888984583660691996e-01
6.907929620294634976e-01
6.625791403719183403e-01
5.161690180066902389e-01
4.887664647861778566e-01
3.629619658079770717e-01
3.417767737579406329e-01
2.808738840563670403e-01
2.553517362505328681e-01
1.824118813657625016e-01
1.184879017345144003e-01
1.086332309072301772e-01
6.256966296795099525e-02
2.821712481807436834e-02
6.292385567913671984e-04
3.929520418719614772e-02
2.428949744013361722e-02
2.048776821382657098e-02
5.489874472883728845e-02
-1.081167669046630142e-02
-1.648312089122316859e-02
3.858763675448679403e-02
3.817093415090781761e-03
3.070232167905288800e-02
3.274434164326641555e-02
8.189592914158924652e-02
8.011226712716329468e-02
5.609574495234889713e-02
1.075339659920048763e-01
6.879040864716777504e-02
1.192668278449049990e-01
3.511167664188151460e-02
8.898849739780731460e-02
1.074114751040109728e-01
7.825240078860803972e-02
8.147947253024932779e-02
1.535724155775122224e-01
1.038015921847429551e-01
1.260474791579689890e-01
1.628346694267948924e-01
1.267676425752546632e-01
2.020765867451761455e-01
2.170284413987825234e-01
1.498072512145937063e-01
1.514234384464463457e-01
1.105069617510426455e-01
1.782499676783917963e-01
1.680808205291497159e-01
1.906959783379678641e-01
1.841958456851019721e-01
1.385586989536267688e-01
1.790527179059101803e-01
2.207091313455807058e-01
1.971373348379896473e-01
2.049298468441944632e-01
1.810452864959082864e-01
1.551558483099181873e-01
1.714818639781549303e-01
1.773273523897420934e-01
1.532472331479425021e-01
2.036344551414480397e-01
1.346159601061201749e-01
2.101987709504624935e-01
1.552071292735021923e-01
1.190371628679248450e-01
1.587106060135137497e-01
1.447114837064753801e-01
1.654491152919719543e-01
1.796532522507668650e-01
1.738119176819009348e-01
1.727133255764234931e-01
1.092119211375403853e-01
1.467849805851779987e-01
1.756562917730627449e-01
1.238240065511947152e-01
6.745363071934711019e-02
1.178626006647178759e-01
1.575540309237143943e-01
1.032140483654136326e-01
1.288199514006297397e-01
7.164934106866344132e-02
6.581733225116785657e-02
1.047965043733177920e-01
1.075657978242238605e-01
8.356546707514572736e-02
9.003399852165477890e-02
7.708217946498369111e-02
5.397821558403190223e-02
8.868702878100218068e-02
3.881339499723328312e-02
9.261332332884042451e-02
1.650983339979694708e-02
3.945431919354979583e-02
-2.197750401177715057e-02
9.809018316197092024e-03
2.050553680626011205e-02
-3.158091970201287041e-02
-2.972046174255228712e-02
-1.976978488558196398e-02
3.607479363057625871e-02
1.158506417968804825e-02
-3.472967514839622738e-02
1.379634085199675508e-02
-4.100986933579495175e-02
-3.477795559877343984e-02
2.929826198863324377e-02
-2.340309866523670318e-02
1.668361797704282640e-02
-2.924199136398984364e-02
-6.505128788518901861e-02
-3.064966526139421138e-02
-4.446273742286580011e-04
-4.459541302412604880e-02
1.502380714219428426e-02
-6.402152836412292047e-02
-1.885357585371502318e-02
-7.976672688984541570e-02
-1.279165976220038303e-02
-1.440768937262611876e-02
-5.859277815829626312e-02
-2.487329646847025177e-02
-5.750702083264096209e-02
-4.887278217434030264e-02
-5.887208479201166272e-02
-4.945329267439033116e-02
-1.819099436974184678e-02
-9.089812193948369756e-02
-5.545897626424303034e-02
-4.719601205143628131e-04
-3.692961164135155627e-02
-3.513073313747565318e-02
-7.133381487142220756e-02
-5.785551068938986352e-02
-1.218603953872424844e-02
-7.539247721735758967e-02
-3.803356376184461457e-02
-4.430501398162031007e-02
-8.030286594445271153e-02
-4.530264284005375980e-02
-5.130935986612956273e-02
-5.269630760986965951e-02
-5.532018149567921594e-02
4.328405403514875432e-02
-4.344924921320621192e-02
-1.057347851530200805e-01
-2.870233785868200535e-02
-1.070607601135118575e-02
-2.413817808472207629e-02
-4.341385040625547753e-02
-2.218723990325915246e-02
-5.157141307483376069e-02
-1.268270568381393154e-02
-2.673797775909312127e-02
-2.125538943496193059e-02
5.741870003484667029e-03
-3.948155999100046859e-02
-2.597212372234212335e-02
-9.335985141545877219e-03
-1.735807042830975200e-02
-9.332878594366947334e-03
3.720427976555434890e-02
1.900357342049410758e-02
3.806717504122208301e-02
4.464355957997351299e-03
-3.742178868975801209e-02
1.029793065243025663e-01
-6.149853235293663289e-03
5.275879586716435837e-02
6.869899122854547513e-02
6.934691232072243139e-02
3.278118294586549603e-02
4.451175416320933553e-02
3.849267647183002294e-02
3.206860813537665278e-02
6.142482585968552650e-02
8.603074982592880116e-02
1.405383252250947956e-01
1.533392639040218053e-01
1.142806061310423504e-01
9.211779236545081240e-02
8.905545854563803876e-02
8.506758949259790592e-02
5.457877298778463643e-02
1.005706064736796301e-01
1.062883527105847603e-01
9.044129918424481662e-02
6.445873686997846685e-02
5.784988023683730607e-02
1.026985033060008878e-01
5.677966144909151608e-02
9.015229728776757989e-02
1.084816017540274902e-01
8.304870363126135024e-02
9.824996332814452116e-02
-1.043774089308227571e-02
6.331016029833928804e-02
1.013685813571149341e-01
5.787715091896698111e-02
5.831068139280928819e-02
1.052523922247932953e-01
6.010169296167787445e-02
4.928257012914685070e-02
1.072511167878529847e-01
8.719221149739123100e-02
1.098696154641540246e-01
1.238661100576304297e-01
1.231430727204579079e-01
1.787632617494922804e-01
1.933783968560043309e-01
2.637860414999978476e-01
3.679088526783082513e-01
4.631285067199494287e-01
5.005713976041544777e-01
5.568066012789605335e-01
6.383321681512346135e-01
7.036984200679591295e-01
8.032081979130150096e-01
8.268103254343717179e-01
9.308381777163619031e-01
1.018527648153887188e+00
9.504053817004104454e-01
1.043032241335892563e+00
1.053443542367961783e+00
1.028037331358293338e+00
9.925705746464952295e-01
9.031184155624701893e-01
8.054012422310579122e-01
7.397423171675100440e-01
6.615293890183273628e-01
6.081843919355485184e-01
4.950778849294815154e-01
4.676530094411818217e-01
3.894463939897373495e-01
2.479687712761832197e-01
2.221944984998683315e-01
2.219167481151009258e-01
9.408679252040619279e-02
8.359900203316916745e-02
8.996594698424797976e-02
5.141343057068067240e-02
1.861065326510027290e-02
4.943996271334723941e-02
9.155217155615166802e-02
4.710410707465415014e-02
6.027682485946629642e-03
4.883010844540791595e-03
1.074901806727375508e-03
6.365546226123335039e-02
3.772875797724076219e-04
7.752304670514642559e-02
6.532592908665943443e-02
2.985947630057302765e-02
6.175056808707465872e-02
3.327964020734617417e-02
5.441327702527359866e-02
6.749759098869093088e-02
9.365087124136214913e-02
7.406501635955592411e-02
8.878131882261292018e-02
8.754424639839064604e-02
1.026658146589062293e-01
1.291961491318700805e-01
1.129321808113814135e-01
2.117320321173772335e-01
1.653935547757431346e-01
1.274349148230402573e-01
9.265986517700727787e-02
1.925970016678401064e-01
1.718456483207585206e-01
1.762118494809987168e-01
1.595917303237393281e-01
2.022142914291408800e-01
2.446505082154083466e-01
2.120669854987081715e-01
2.056615495538573757e-01
1.713539193306216901e-01
1.640658125641258902e-01
1.904045289684236364e-01
2.485475162140400596e-01
1.814596965204487156e-01
2.506530759081919135e-01
1.937379584086556528e-01
2.511213679321548931e-01
1.932485364896477376e-01
2.286406646629218775e-01
2.620001519367801124e-01
2.292926163052652067e-01
1.763589610607825542e-01
2.239917521755310503e-01
2.315580092382470700e-01
2.566505059728185212e-01
2.472812261836787595e-01
2.092612758541918250e-01
2.188546173643351189e-01
2.419959055322523922e-01
2.283215688067466442e-01
1.706386905030214951e-01
1.970724277038005956e-01
1.075038774512375034e-01
1.272644844461531255e-01
1.573803254740018254e-01
1.528358710112065755e-01
9.837377798078669744e-02
2.015496793967734013e-01
1.735122806662913464e-01
1.500349049534579482e-01
1.652880785033416511e-01
1.459301147142069432e-01
9.642296583539820831e-02
9.398172590415153349e-02
1.398987903740360195e-01
1.512627205638258643e-01
1.756016358507634378e-01
5.948933021005523014e-02
1.251667342983863729e-01
1.086719253442930272e-01
1.325635083028965655e-01
7.398947408732205189e-02
4.984498482636470773e-02
3.688989308854463689e-02
6.358536758528154920e-02
6.609027007097903472e-02
8.050671405723577867e-02
2.151697519663624270e-02
4.217148683397639597e-02
-2.999951873141144115e-02
-2.063844883426057056e-02
2.539221337540568252e-02
3.082236357577563396e-03
2.906009840921562962e-02
-2.064295518777200383e-02
2.883233796974471810e-02
-7.472494845800068536e-03
2.978550747584099087e-02
1.124570466143150205e-03
-2.742765079375854287e-02
4.802336347995076263e-03
2.125387173331758778e-02
-3.693705477185577069e-02
-2.283896038567411607e-02
-2.807803875214046063e-02
-6.216767861536957179e-02
6.524392603487082221e-02
8.684521390217282699e-03
-5.565956136833395684e-03
-1.605281883143910154e-02
2.618897758744135468e-03
3.830650273385757115e-02
4.984617215932978310e-03
3.057713095239170814e-02
-8.444963414644754071e-03
-1.726958844200402604e-02
-5.452818285074760574e-04
5.806450798315447928e-03
-2.866460231195488984e-02
5.630678685682717274e-03
-2.110898231316351431e-04
3.136967081825685344e-02
-1.712056835476732930e-02
-2.701746292625584189e-02
-4.143832711507053346e-02
-5.649152281744455190e-03
-4.186531295061681618e-02
-1.503129583116166040e-02
-6.591072017346705572e-03
6.959870315025734611e-04
-2.069530290980850853e-02
-5.107581835351309579e-02
-2.666771945141857211e-02
2.965729544370904192e-02
-5.878711987281486778e-02
3.264983308333114370e-02
3.227039954347079784e-03
4.900264448526020500e-02
-5.883876276944897260e-03
2.020065300123942767e-03
5.050820630408203032e-02
3.176906679508843812e-02
-2.366174685297218333e-02
6.480795170029034387e-03
4.051291236414487212e-02
1.706395643350306496e-02
3.161125336312360645e-02
-3.284329922102574573e-02
1.976830031767062151e-02
1.703912659596988968e-02
9.497631367897749893e-03
5.668826675782014102e-02
9.548390912900532601e-02
7.848283693356820911e-02
6.829609838134875766e-02
-1.123743733052776604e-02
3.324449674841040148e-02
3.726423444987968930e-02
6.082095220695651200e-02
7.833700976404789351e-02
1.036546585159177220e-01
1.054090012516387398e-01
6.488053750362678118e-02
9.898702954802716947e-02
1.602853238916366052e-01
1.533014914011046892e-01
1.476696229370322855e-01
1.220224559395578640e-01
1.087990468418274376e-01
1.503775621945867003e-01
1.458244214105977599e-01
9.545331819535832207e-02
1.641305850839899771e-01
2.070445561853363203e-01
1.505341302957613758e-01
1.435895314157135949e-01
1.674439111790669843e-01
1.596612647438435673e-01
1.890618424097029182e-01
1.530589587088440617e-01
1.272852994619019518e-01
1.292809297110485700e-01
1.151035218285805656e-01
1.419043269627683068e-01
1.576780189932253384e-01
1.332774697055446045e-01
7.962971776937603774e-02
1.066780371144674944e-01
8.083007930959512644e-02
1.497671558250800450e-01
4.870006938926329382e-02
1.220801952497083676e-01
1.031999296563606422e-01
1.233243469749449317e-01
1.196321999661259516e-01
1.948386156884358567e-01
1.694173260056414942e-01
2.302686137245075482e-01
2.976264409623914364e-01
3.524086373266231975e-01
3.413292549953461652e-01
4.690073730460584400e-01
4.519215274753874967e-01
5.916809590678245856e-01
6.476438478006307786e-01
7.772328855814782944e-01
8.607385721306547444e-01
9.248805004737923330e-01
9.491494310040056170e-01
1.051050473285634945e+00
1.061405303023749136e+00
1.111932021566162554e+00
1.020711167570089728e+00
1.031090352317259651e+00
1.062884143868397580e+00
9.913690324951139887e-01
8.895295243416104780e-01
8.372385225843860246e-01
7.238642648682939162e-01
6.749463262033027489e-01
6.447112419449504417e-01
5.158765962948809181e-01
4.376541375370416320e-01
3.441954948338881715e-01
2.757424758500919837e-01
3.006917831565790178e-01
1.858202080596330352e-01
1.682362954672977917e-01
1.682292410554791506e-01
1.520062795370143438e-01
8.588634214380097553e-02
9.449955682946460656e-02
6.497849170673401786e-02
1.072117250868564881e-01
7.079606888519862640e-02
1.260545791032617602e-01
1.018765001913204127e-01
9.178480209913200683e-02
4.807686781518009933e-02
7.621818945042124760e-02
8.687723031497432413e-02
9.111604865113730189e-02
1.601198860655656531e-01
9.736479561990986353e-02
6.424439543253449014e-02
1.386500217675708801e-01
1.521622860169600799e-01
1.652559849929625679e-01
2.070104326276175077e-01
1.916053858845716829e-01
1.279069473772215526e-01
1.169017261294963833e-01
1.744359920056360314e-01
2.093021096617511678e-01
1.883888608131533693e-01
2.187997081720223502e-01
1.994155417579553669e-01
2.556938402847852565e-01
2.243532212834448702e-01
2.353816570391443486e-01
2.053422920199391988e-01
2.117194129412265369e-01
2.816239429943131478e-01
2.710716237922617955e-01
2.431636536467025600e-01
2.519974266262905438e-01
2.578513390604006972e-01
2.397797151280779415e-01
3.048221821246771546e-01
2.584179531316257994e-01
2.313214306690027089e-01
3.159707156466227684e-01
3.186647593916839272e-01
2.888306368971095828e-01
2.626403132612114000e-01
2.309517755438573738e-01
3.219412928242229022e-01
3.074322111627803555e-01
2.322243424590606786e-01
2.551459194375469419e-01
2.191426599326123936e-01
2.623651907854105958e-01
2.870035308219954229e-01
2.001235592278328146e-01
2.464871782261850441e-01
2.348371022198871283e-01
2.761346529505321334e-01
2.491061078573499621e-01
2.864899663722382250e-01
2.781422083905981113e-01
1.825628217353472138e-01
2.571279933789998862e-01
2.375287773016762083e-01
2.429775136070806973e-01
2.067752020793137691e-01
1.964653943299937144e-01
2.340971594307008630e-01
1.753538623330044843e-01
1.711723206295336364e-01
1.689109101740011165e-01
1.098663459954912769e-01
1.495440493843611662e-01
1.772713341091522454e-01
1.373637923948124728e-01
1.095357339656241602e-01
8.094590658187181265e-02
9.036076560863065543e-02
1.554821809733817339e-01
8.637379851150758792e-02
8.475511830758866716e-02
1.245478150085493896e-01
8.339171276090591445e-02
9.316910011675931524e-02
6.804820496080860037e-02
7.407623829807238880e-02
4.863686426140158975e-02
5.730978325071361956e-02
3.703334164199529460e-02
8.308500608454352787e-02
7.433270815594350545e-02
3.182447627560458514e-02
4.973929790139919316e-02
7.521855586056166998e-02
1.078761843028487946e-02
2.730850817537551489e-02
3.869911527300971127e-02
7.337369357623513277e-02
9.727302198408682710e-02
6.759832912351861067e-02
1.034593747627829130e-01
3.210843402469844288e-02
1.912664038594097046e-02
4.172337630622965921e-02
7.711053264448948508e-02
6.704849819848326953e-04
1.715011515781023066e-02
-1.530536535115029767e-02
3.677308380905471019e-02
4.284619666150032979e-02
4.575960998200648971e-02
4.405408009633118849e-02
-9.644440296764776599e-03
7.308766996746471345e-02
4.440805763241831294e-02
1.039452887844945564e-02
-5.431008914999278792e-03
5.325511826876880989e-02
9.120268327423124155e-03
-8.341376806872052851e-03
6.803897150941658201e-02
8.255220638829413593e-02
3.623496744173085315e-02
4.475806573055728793e-02
5.061531459928088339e-02
6.545240669719798454e-02
5.166611405358874365e-02
3.781049985548449316e-02
4.598651238955547144e-02
3.894509932000347202e-02
6.555164134317414959e-02
5.038594774927573905e-02
7.284560828210262518e-02
4.579187555068969795e-02
9.534789991950096133e-02
9.321684165996771410e-02
7.691430599546310309e-02
3.762140274651058769e-02
9.735080496643402914e-02
9.138278757138068586e-02
9.734367414898582871e-02
4.754690863740949902e-02
7.018662795178678970e-02
9.882058687779282646e-02
6.545937009791985561e-02
6.165717798341967260e-02
1.272017699057737261e-01
6.538241603958724890e-02
1.217792865895517551e-01
8.141020381435400133e-02
6.962894928967293395e-02
9.428892614091148594e-02
1.623853121723135562e-01
1.167662982550763673e-01
1.676805290075615573e-01
9.710450822877868260e-02
1.730799938185431097e-01
1.652902770763083062e-01
1.812853055928703716e-01
9.115409985498038048e-02
1.475718719509587495e-01
1.437436091673165439e-01
2.084228756243360625e-01
2.092226029857092440e-01
1.983208820663935057e-01
1.619788677522795706e-01
2.145244701606350557e-01
1.729599257227589781e-01
1.740390427276323482e-01
2.147704080074064603e-01
1.769415455914493951e-01
2.075508353104832393e-01
1.832891003567446442e-01
1.940646776452433775e-01
2.135694156008708378e-01
1.721414948531512779e-01
1.729755383561730753e-01
1.595137585756881138e-01
2.127192298433584761e-01
1.291116884815258492e-01
1.939951917737436360e-01
2.078459550785512200e-01
1.644771419195200091e-01
2.120727300831667383e-01
1.368219949571500282e-01
1.137029375278799381e-01
1.117730022115486777e-01
1.433379802996288810e-01
1.333428868631119923e-01
1.498125429523787244e-01
1.742700532794584367e-01
1.756619877188891343e-01
2.062619293272534848e-01
2.281059150061286733e-01
1.783404534557550825e-01
3.104595222127115584e-01
3.215998851516813084e-01
3.684579438463635448e-01
4.632270760268403231e-01
5.150553524922464321e-01
6.346802919379638253e-01
6.642748083230035627e-01
8.150737744179579192e-01
8.441150039012755846e-01
9.686797975198679911e-01
1.013368361305329479e+00
1.033417514410259086e+00
1.142100128202790277e+00
1.076587067936065401e+00
1.046775635776160174e+00
1.101100938801917728e+00
1.054936945428551098e+00
9.933600077712226861e-01
9.758703410325232364e-01
8.592300643562283957e-01
7.844110782491552358e-01
7.299914458424098251e-01
6.391432275161402776e-01
5.704494365136858480e-01
5.081371613077342309e-01
4.192051292824596764e-01
3.562682354937143359e-01
2.625724669499786001e-01
2.608076862799267870e-01
1.726660847324917314e-01
1.741354037818641509e-01
1.714846135498332980e-01
1.392712870937379277e-01
9.717670679266350586e-02
6.520954631193622009e-02
9.557131911465105434e-02
1.252848340275646288e-01
1.450811632091686676e-01
1.082738384613921856e-01
1.388318019179334284e-01
1.560773839347503467e-01
1.649741821491895744e-01
1.066049758330766817e-01
1.221913572638097661e-01
1.691531023200052997e-01
1.399476366745945610e-01
1.764385183385299427e-01
1.437790872231672346e-01
1.424184232057937871e-01
1.573110910905016480e-01
1.362470337769965123e-01
2.432876306473060191e-01
1.922232551377103527e-01
1.668647231117760255e-01
1.564579245734615820e-01
1.796360152174543701e-01
2.145732012210197770e-01
2.225673338329993978e-01
2.325954349009995981e-01
2.181883234666849858e-01
2.213127616694284538e-01
2.655093886699183003e-01
2.829420309288767643e-01
2.471405102507319151e-01
3.120173745462322401e-01
2.938546348935884844e-01
2.837258416160092778e-01
2.721164912649400303e-01
3.400572623672156736e-01
3.234635995583671209e-01
3.178063531591369673e-01
2.963290474239400063e-01
3.160282368410417542e-01
2.869580825232947996e-01
2.998835477388129278e-01
3.271320005400610853e-01
2.869645344011796384e-01
3.121476848868176002e-01
2.765587867296175340e-01
2.441047006435843603e-01
2.747316236712883941e-01
2.676008008895054413e-01
3.311895356175569849e-01
2.551461267382911235e-01
2.796733163770326325e-01
2.991474599783940924e-01
2.583054899639356528e-01
2.954771846023468984e-01
2.124054499131020901e-01
2.029596318013146550e-01
2.773349757246654779e-01
2.576436101021638558e-01
2.385851471768840049e-01
2.217523517326046023e-01
2.489711319376315402e-01
2.257884637755886992e-01
1.984057913295259323e-01
1.963181404048086609e-01
1.448468840565056426e-01
1.645371983255130843e-01
2.167704325719834457e-01
2.160688531623570774e-01
1.908213547807262322e-01
2.133801048307771286e-01
1.312263114776806572e-01
1.818266942971388800e-01
1.839497785559165433e-01
1.077175270186230549e-01
2.054222961123259583e-01
1.566501850984741151e-01
1.161806150602923832e-01
9.158850492617738592e-02
1.387501951796716315e-01
1.100955301392854413e-01
8.398455078917645145e-02
1.207757765208815476e-01
1.086150928074130495e-01
7.136283738397967980e-02
8.307335796580858633e-02
1.182534457987806098e-01
8.602453142839097677e-02
6.617394928881166483e-02
1.405255029803083033e-01
1.581560924128405654e-02
9.279541997356988148e-02
9.009968782090306549e-02
6.450485210081774445e-02
2.430813976570758358e-02
3.663379383552442525e-02
1.063060712038319533e-01
6.591288973131000095e-03
5.981389537403476730e-02
4.225812752155772706e-02
1.143060174728529471e-02
8.600136948455099073e-02
9.875239136708417742e-02
4.210374459810062309e-02
2.873149264116010501e-02
3.447458107827287843e-02
4.638781777491666342e-02
9.922808500557785127e-02
4.474164636458662775e-02
7.533878986473042938e-02
5.974702246953502577e-02
7.634333751078734021e-03
4.173587150985181432e-02
5.802934049032596603e-02
4.761568058197866715e-02
6.793007191102581888e-02
6.163405357144523256e-02
4.954486285970195053e-02
6.247453728812107226e-02
5.985322877471861008e-02
3.366539983086756088e-02
9.424481420398915510e-03
7.383686571471446969e-02
3.326369710527567886e-02
4.608576864694344938e-02
2.698324116841555737e-02
2.576245607916157268e-02
6.255052279192382936e-02
5.801834347085977478e-02
8.484309336414075364e-02
7.542318388994762035e-02
2.759098758210980912e-02
8.420471610238444704e-02
9.073234688540025850e-02
8.686021169189853119e-02
5.094724086032732108e-02
1.533652266208171411e-02
5.258369594585704521e-02
6.337993738773768648e-02
6.804164976330656645e-02
1.721862638993057124e-02
1.081749579864924315e-01
4.850772225077702726e-02
1.095091904253678305e-01
1.234803869060027426e-01
1.031366393182435170e-01
1.228178366226848894e-01
9.880892370212607245e-02
9.016951518043017644e-02
1.017745171801920090e-01
9.039695572624825703e-02
1.034818231996952331e-01
9.681813041148741583e-02
1.343648180122883340e-01
1.097981476365679498e-01
1.234002294544871703e-01
9.951728167900333877e-02
1.686854431353668748e-01
7.902894913222707762e-02
1.877710720018195834e-01
9.223830719168049641e-02
1.056301574961610867e-01
1.281305664611367967e-01
2.188470052144400324e-01
2.088525829297730729e-01
1.848957379048904448e-01
2.460537866928972917e-01
2.213193097094314776e-01
1.870990091828539925e-01
1.909362328037408352e-01
1.872943261016236649e-01
1.890854075447583049e-01
2.182602772731349061e-01
1.985842090982827823e-01
2.088376861547815988e-01
1.853251991478283844e-01
1.620531592256750919e-01
2.064280104514644998e-01
1.619926360771149765e-01
1.675315831050924742e-01
1.946267982871981161e-01
1.488663135153880657e-01
1.650170932384102118e-01
1.351841496082649419e-01
1.260896425527571474e-01
1.439598230292388759e-01
1.422741671183799239e-01
1.954208048697266831e-01
1.585597989209159564e-01
1.266215610104457490e-01
1.550201929336617601e-01
2.388847620170480579e-01
2.512745760260234329e-01
2.329806163076693359e-01
3.371117957142580335e-01
3.894879178677705944e-01
5.348028056815764542e-01
5.314962337743743825e-01
5.750933864416984953e-01
6.329144550806943270e-01
7.208849239024016642e-01
8.492686472187643831e-01
8.907831812256802317e-01
9.950380774355210844e-01
9.966907056937409637e-01
1.062338054937531862e+00
1.046113169802653564e+00
1.107961667086938995e+00
1.112309443168463474e+00
1.104446370018717705e+00
1.027764529344302957e+00
9.037017932584824331e-01
9.377952140116864177e-01
7.995108439147198265e-01
6.736505673610183598e-01
6.389328620339023157e-01
5.429105849546940199e-01
4.523364224742552619e-01
3.900042226594589434e-01
3.114861673562230870e-01
3.226814630457561228e-01
2.077587900885203842e-01
2.176646748378732177e-01
1.899972591106344755e-01
1.393487168719209079e-01
7.336573102573276661e-02
7.322439041597193776e-02
7.301271262706793275e-02
4.364407784002219404e-02
-7.722312108356915727e-03
1.010090730646974466e-01
1.332387160627188094e-01
8.132102106554348064e-02
2.797131576361730487e-02
7.831877002242278174e-02
1.201269667007175412e-01
1.345466269652524360e-01
9.880563973300619807e-02
1.048285148133101113e-01
1.146757046543162017e-01
1.217097930829531549e-01
1.439435809817893874e-01
1.167390988142860964e-01
1.405204117148142196e-01
1.421906098491008130e-01
1.811655972632766065e-01
1.710317884384483789e-01
1.937451478654034498e-01
1.931291208727205500e-01
2.156096628654851632e-01
1.716002372860327974e-01
1.767965866683771092e-01
1.577965257065843951e-01
1.912232462991284299e-01
2.426564156193924404e-01
2.447296039568724324e-01
2.288105294100296061e-01
2.140400305661165348e-01
2.121092041611524204e-01
2.964676731418162126e-01
2.517924219788924556e-01
1.733628419178585289e-01
2.203090370693492894e-01
2.448088037544748630e-01
2.399582247594456430e-01
2.514729711696819803e-01
2.876798490085857862e-01
3.026009917345127143e-01
2.687278028504846983e-01
3.082611550906226294e-01
2.718690192245410420e-01
2.557313810980855751e-01
2.924973767101374800e-01
2.464625130910468032e-01
1.921966563632798164e-01
2.873691527495508824e-01
2.818178283436718057e-01
3.173014956370303619e-01
2.660375328433582931e-01
2.307946651898291346e-01
2.270488078557335587e-01
2.450816713840093808e-01
2.179254590819282300e-01
2.791704822948526954e-01
1.861946126016482961e-01
1.830610739992774016e-01
2.087017321500866385e-01
1.642608725537750558e-01
1.834198045748556272e-01
2.171136850478411762e-01
1.598615730031872073e-01
1.558263514197568700e-01
1.532036433842725309e-01
9.109786776629047456e-02
1.575066474595475663e-01
1.020360825042651159e-01
1.478576362039000225e-01
8.883227945500579703e-02
7.404865197046395231e-02
1.220706768495790351e-01
9.949639867717699482e-02
8.024403189400818037e-02
8.480497118452071104e-02
7.188215770683732686e-02
7.126650124154511323e-02
3.413863429610362182e-02
9.460262766588801997e-02
1.027821777832156336e-01
7.221620991726490635e-02
7.320115165039185745e-02
4.930114602885546371e-02
6.066072752235297794e-02
6.988733929136936585e-02
8.428445756171515368e-02
3.071529129732099295e-02
1.612860228307493385e-02
4.133697036818707177e-02
5.901751021603725278e-02
3.114468174700082276e-02
4.813122829265025632e-02
-3.918476971509891882e-02
4.631660656790889674e-02
3.846848618093985650e-02
-2.789447346764788779e-04
2.150935846307833882e-02
-1.211813435302562351e-02
8.959585288726758592e-03
1.866065076659983654e-02
-6.646274477990429808e-02
-1.885400897205861612e-02
1.000553491298031283e-02
7.063430547040426555e-02
1.409166184959678020e-02
6.228458860283583171e-02
-1.530740333292123466e-02
-3.381965567268263584e-02
-3.443318229265307506e-02
-2.052736002728700743e-02
1.791004511411444650e-02
-4.564401125141890475e-02
-1.046177108797398218e-02
-1.017506498022014046e-02
-1.487205828428749769e-03
1.209682051750457857e-02
-9.409594943942053286e-03
-7.050211356748982590e-03
1.263095000529187648e-02
1.596696425265882457e-02
-1.149002411445932542e-01
-3.177170196996649543e-02
-4.684386700638443202e-02
-1.290451597171947060e-02
3.204112765317426725e-02
2.378487358186938405e-02
-3.034074536258693500e-02
2.653117350149459402e-02
8.255283912413407393e-03
-5.901509676793004547e-03
2.734394453167325600e-02
1.699088550201261621e-02
5.818018227793757269e-04
4.472849241179865237e-02
2.005956415934739140e-02
3.757324778950903860e-02
4.526908384632829380e-02
-3.363513685879156168e-02
-2.900914677968413277e-03
-4.147168992367733509e-02
3.439906985268181838e-02
-6.296181914583056510e-03
6.456867882802610342e-03
4.345492841734932554e-02
3.147804797789648112e-02
3.967499347805455989e-02
6.266133508561032295e-02
6.987558951668304541e-03
1.015985230541816969e-01
3.759889366842424085e-02
6.689803328520840808e-02
8.813902611249201102e-02
6.338623495501176375e-02
1.442246264178950188e-01
7.911104537501428835e-02
6.587439997219289578e-02
6.758997520065028464e-02
1.210980897038323872e-01
1.751059044659240560e-01
1.453115803379753379e-01
1.218600636182742281e-01
1.483293559511164039e-01
1.346335257390051110e-01
9.041046161600577169e-02
1.200106072736315532e-01
1.268628564027624306e-01
1.623784182257301811e-01
1.515931383470733307e-01
1.175806999604224468e-01
1.576281375701883702e-01
1.364245451945897691e-01
7.753810525503089524e-02
1.498646777014507603e-01
1.132438323190679968e-01
1.588174391470184299e-01
1.347877845639051109e-01
1.428296352168564320e-01
8.132605933815915955e-02
1.158992167897253400e-01
8.091120490865867654e-02
3.237230885993555574e-02
6.137941729268351493e-02
1.294656562556731616e-01
1.549807738926289591e-01
9.121739504552954514e-02
7.203022422705106231e-02
1.430989418673131452e-01
1.069854557764836067e-01
1.416562192538837195e-01
1.369454827534023755e-01
2.039671425988723585e-01
2.243824147788972267e-01
2.268044932560835947e-01
3.280841971387498113e-01
3.612362872255103219e-01
4.131365883137023132e-01
5.279769369686427849e-01
6.300980667546489666e-01
6.808629250863429405e-01
7.362006194273091886e-01
8.275209559734051368e-01
8.866830535647114431e-01
9.211714331691014390e-01
9.819961679597819515e-01
9.958710266645522946e-01
1.019335584851156051e+00
1.103892558069210050e+00
1.051836111195942003e+00
9.651986815136636144e-01
9.327501756183513848e-01
8.769480712572770287e-01
7.974223618554500126e-01
6.906331516259290870e-01
5.691117976191191197e-01
4.803077284507864531e-01
4.578096338401142495e-01
3.635310089772282316e-01
3.159478630473656069e-01
2.223195975641478472e-01
2.553432169358448856e-01
1.214739418635329277e-01
1.439214293781982124e-01
7.517908990722323159e-02
3.849246766541586373e-02
4.085561622891779182e-02
8.242043577486697636e-02
1.557565818072049330e-02
2.578333976081683895e-02
7.173411235468965530e-02
-2.269115264651753658e-02
-1.000015634798263886e-02
5.376508907897287193e-02
6.902527054502700932e-02
7.844675978039254705e-02
1.717301035122054120e-02
2.205588424053794155e-02
6.310386872443883577e-02
2.696863575887718800e-02
7.263460588574803534e-02
1.088761472831447918e-01
8.706540001239546078e-02
9.473026475721199602e-02
9.984244269554977402e-02
1.517717972378131164e-01
1.529328446529215069e-01
1.376240825343773289e-01
1.046376511394767755e-01
1.664663282096223718e-01
1.505994844921514364e-01
1.614099892142704384e-01
1.331065162509122435e-01
1.592064710309835096e-01
1.816196466911796648e-01
1.648434812415746908e-01
1.545453454385023184e-01
1.609451163439240273e-01
1.966139388228689278e-01
2.422696978051694927e-01
1.651182748129400024e-01
1.367739363024406685e-01
2.287965840522442340e-01
1.963269970828622202e-01
1.973528994211409537e-01
1.522545412095073214e-01
1.824010764154880282e-01
2.182687221412614176e-01
2.783000797495350787e-01
1.620059748201418126e-01
1.727975106628357738e-01
2.275766572355839568e-01
1.844704525761521052e-01
2.099775956459428994e-01
1.449333852244159282e-01
2.421021685586739747e-01
1.516231281972711120e-01
2.107812222772927069e-01
1.771188416859465486e-01
1.802864711255967034e-01
1.679742282148523058e-01
1.709525709942594229e-01
1.737213264372628740e-01
1.454254531431786457e-01
1.564469384709603339e-01
2.119691901085277719e-01
1.239684120106252230e-01
1.881574709363008080e-01
1.349606459498979838e-01
1.804268538419868673e-01
9.690599582919123822e-02
1.899970437074597895e-01
9.275445220895625620e-02
1.029768562264555820e-01
1.172743487968431197e-01
8.916429246688023502e-02
6.428934753842417693e-02
1.212447846850395333e-01
9.787522392263200977e-02
8.106821325852558990e-02
7.913829275957552645e-02
1.324162337569701753e-01
8.923602469983113461e-02
3.624926991943600713e-02
1.578450716749678351e-02
5.154045753679101921e-02
-1.863161912517301982e-02
5.401899332585753666e-02
-1.486937657771457422e-02
-2.151881453226811569e-03
1.027772381360317344e-02
-1.335381359775218366e-02
9.693759657802447638e-03
1.691944260737675287e-03
-5.301278187915951789e-02
-6.023092179706802246e-02
-5.173232401165886452e-02
-5.457259817047390577e-02
-4.801015861644344906e-03
-1.668435338382110583e-02
-4.411567531954974086e-02
1.187355629272693336e-02
-3.901737742774628870e-02
-8.076959694755539432e-03
-5.383953567399860085e-03
-7.509487428667356579e-02
1.376982858571795809e-03
-5.586982050526706489e-02
-2.691817314231211011e-02
-3.105320162861797267e-02
-6.411861671873358981e-02
-1.738019578342723734e-02
-4.873928949432210916e-02
-5.004025539389098109e-03
-4.567874894595821272e-02
-6.209991916988161220e-02
-8.577701535557905044e-02
-3.253662369218736361e-02
-8.791340815190047675e-02
-1.946987990637140398e-02
-6.785263569411109641e-02
-4.632053677727689112e-02
-2.405849906633054230e-02
-8.379113113790623291e-02
-4.108351441906350071e-02
-5.315978483545199390e-02
-5.613452483481063543e-02
-1.185813707461510769e-01
-1.117737839367107522e-01
-3.288747579076611166e-02
-9.036810857974800215e-02
-3.018046753170647301e-02
-5.787551206376718993e-02
-4.613489365929390046e-02
-7.142143562297054160e-02
-8.210361925685140394e-02
-1.540932194229258090e-02
-2.093240140889206236e-02
-6.296019605757047222e-02
-6.461084837622713128e-02
-2.509478784067238621e-02
-5.421809844017294600e-02
-4.290363767677010665e-03
-8.357214475416904764e-02
-2.530241893939545045e-02
-4.490172044681906005e-02
-6.722725326093509368e-02
-6.835678547848579589e-02
-3.530431059923216930e-02
-8.093598625123960000e-03
-1.614869753510314587e-04
-2.663731542517138590e-02
4.413779840861289938e-02
-6.347859851977000201e-02
2.433772383634166814e-03
-5.073446614828676371e-03
2.037536504903707246e-02
-4.783312421592746805e-02
1.763228548060905704e-02
2.000697894215494599e-02
7.229320672401487458e-02
6.275967813418943664e-03
5.236252085035379006e-02
9.038334125373720385e-03
7.257204213320342379e-02
6.342425128709130999e-02
9.773742200973765948e-02
5.334234634560591770e-02
7.729571905161577994e-02
7.896701555210755563e-02
9.929689174075131963e-02
9.624106455291334128e-02
8.043593913159377551e-02
7.726127340397569154e-02
1.318554777066334172e-01
1.393794469009346226e-01
1.016476415766459362e-01
6.648727805906656796e-02
7.889338514285088033e-02
9.309548363103470336e-02
5.588563647775322829e-02
1.030482813711435797e-01
3.365802617421856380e-02
8.880685291424993133e-02
5.026987415729788217e-02
7.673174026783320667e-02
5.370825358929946780e-02
2.818608317705268568e-02
5.124396318417318713e-02
6.829292074247092503e-02
1.109416645985086131e-01
8.368362033017220925e-02
4.334161280907500302e-02
9.750964994089407478e-02
6.411158055147049561e-02
5.831505811402971917e-02
7.179005514671027433e-02
6.517668481546443071e-02
1.206145876734827371e-01
1.879014978274313463e-01
2.084899081033410317e-01
2.378604508464067235e-01
3.094962702982434477e-01
3.880893058426608255e-01
4.923875596497070406e-01
5.894026771224850636e-01
6.108887956781060558e-01
7.174442142508559161e-01
7.795389094152475051e-01
7.812925774874680540e-01
9.131188091138932039e-01
9.180696020688776660e-01
9.860766520734647322e-01
1.008100398929226982e+00
1.038300054323725297e+00
1.014646587660620547e+00
9.899968040054539786e-01
8.794482844043889358e-01
8.826330634911764284e-01
7.278943479739103939e-01
6.877265034043603675e-01
5.806929223205677948e-01
5.244278292326354229e-01
3.743846480791726550e-01
3.251418368150563731e-01
2.406584549309201682e-01
2.615372345193562875e-01
1.560333364220657937e-01
1.330716107161294681e-01
8.533567967839528201e-02
2.983171174817963317e-02
7.336913251785762147e-02
-4.492871909942373898e-03
1.446926569749958091e-02
3.788969473470613081e-03
-3.842619499981210496e-02
-5.768810941919104429e-03
5.187943580698907431e-02
5.843220564826503288e-02
1.662149850435637455e-02
-2.388345279957806294e-02
3.137391156958081739e-02
-2.244821260790232087e-02
5.419765984433845551e-02
1.692829222170218195e-02
9.685474279253758478e-02
3.448870645311998689e-02
4.117938559363777673e-02
2.572298495710840377e-02
1.291772993153757487e-01
8.025427326265793804e-02
1.058517467844082016e-01
1.167798396199496158e-01
1.113688254472670613e-01
1.239120741110286972e-01
8.155259948532782299e-02
1.356849768676097745e-01
1.520989751136459234e-01
1.393409967834102203e-01
1.599313027617492167e-01
1.704648918078249809e-01
1.655368454202899020e-01
1.413016297640335428e-01
1.437468840498447031e-01
1.869079050044391010e-01
1.794197162236972898e-01
2.016192459853117791e-01
2.371535391737822906e-01
2.217366306042650448e-01
1.157684906859231255e-01
1.991708077515572384e-01
2.075445729842889664e-01
1.849751870717341318e-01
1.996047122820545083e-01
1.849021917175310559e-01
2.377699272793385166e-01
1.574883787323356488e-01
2.253797796466777692e-01
1.990697492819624437e-01
2.207578663040416500e-01
1.823625720442236808e-01
1.707807806056814703e-01
2.093119589612815190e-01
1.864123454711123784e-01
1.831095148246602577e-01
1.503297788343597174e-01
2.137326289334942064e-01
1.268925057780201648e-01
1.806179338735226514e-01
1.809007494521267523e-01
1.413834491322868980e-01
1.822783522374827603e-01
1.182880740972015177e-01
1.631920209819908152e-01
1.939704531886818351e-01
1.957891327097898426e-01
7.567189406432373033e-02
6.757710692415136444e-02
8.406695098118152631e-02
5.333895598530763449e-02
1.033334004534481321e-01
1.283252870662904832e-01
1.021918631894557505e-01
1.293153707336024971e-01
9.023977263872379195e-02
1.230706787314622963e-01
6.143912528044370019e-02
4.218954784682092674e-02
2.824584669074620830e-02
7.089320901068882352e-02
7.479002871238696337e-02
2.488069403625174647e-02
4.811894683143831675e-02
3.089722720713983239e-02
-1.370416632543537683e-03
2.143692006795441807e-03
-4.159387997332493481e-02
3.158255141062030896e-02
-1.613708143977815937e-02
4.209296620134717754e-02
6.204217104888033740e-03
1.981794249703323213e-02
-1.682939557293509567e-02
1.065258815668946452e-02
-3.574310627386233230e-02
-4.606520331942844104e-03
-3.076011348307766333e-02
-1.650755532004939685e-02
-1.855099466245898124e-02
-1.934446629974281850e-02
3.151327135741444074e-02
-2.699188149955061150e-02
-3.764208855309823104e-02
-3.211398951237953714e-02
-6.024518663726936840e-02
-6.450847001885522125e-03
-5.624536646386280037e-02
-3.965730004365174838e-02
-5.669109552108693439e-02
-4.229201460786385924e-02
-8.580409619742100646e-02
-2.222767595311024233e-02
-8.681961049060914204e-02
3.394047158609739961e-02
-4.403460082350656862e-02
3.138893866953477996e-03
-5.373738944400090201e-02
-2.495432880045558854e-02
-6.203683702025926394e-02
4.777768924696670222e-02
-4.613481362423431376e-02
8.799783465234266300e-03
1.209695842718512548e-02
-2.332223344027524459e-02
-1.095384370041614513e-01
-3.545653431990249127e-02
-1.908584891137802414e-02
1.868100113166911574e-02
-3.712917948865637058e-02
-6.821773014584781025e-02
-3.630781330683610642e-02
-5.952027287678507417e-02
-7.489095895529870178e-03
-3.665534657779515038e-02
7.230837023723547807e-03
4.014386906665411148e-03
2.230426932870163692e-02
-4.022400573892759290e-02
-3.518683799773808518e-02
-4.981994112979146877e-02
-8.386513702906744916e-03
-9.775651378783398182e-02
-2.668325958923908198e-02
-7.734533689931730183e-02
-4.439429462650287816e-03
1.589474257584480577e-02
1.113972621978269115e-02
3.475316301393684137e-02
8.979023744721816025e-02
5.522866107913353834e-02
2.742727281338820655e-04
5.395893472476921693e-02
2.798082203557377898e-02
1.800648905291531501e-02
1.358571188777980832e-02
7.961553153783017256e-02
5.330013894446152672e-02
1.236880597055975833e-01
8.120827357980774097e-02
1.102113172643120337e-01
1.051524791026374195e-01
7.292619028532895675e-02
9.871122562103164244e-02
1.088343161396641695e-01
5.341795107282956701e-02
7.675475784542334923e-02
1.391539303703924757e-01
6.421483946844327995e-02
1.349839313276777475e-01
7.202211403257993694e-02
1.427253239395578355e-01
9.974606132035532258e-02
1.389088488493008533e-01
9.827832469764617718e-02
2.133650842239977474e-01
1.201197432186614927e-01
1.350982684352449725e-01
1.485581688208296447e-01
1.088590243048355444e-01
1.210704022455930950e-01
5.135117092614522455e-02
1.352716533290080070e-01
5.394437479450542305e-02
9.808159170875155319e-02
9.934645606468472945e-02
1.527654959903506360e-01
1.195349931892839140e-01
4.597271221978926209e-02
1.085762449668799812e-01
1.002278192572183119e-01
8.824999410768535890e-02
8.255471915207260314e-02
8.695931611223212121e-02
1.506405741317366209e-01
1.446426381763717406e-01
1.788777564501894124e-01
2.433390948209676330e-01
3.140677591022066895e-01
3.424263884883994025e-01
3.725937982143702754e-01
4.334881891518869157e-01
5.553907918691530776e-01
5.815675394478098115e-01
7.086692961792931955e-01
8.351393188424207636e-01
8.722262653415320255e-01
9.965552835332021075e-01
9.903178170481206077e-01
1.024847491581778458e+00
1.014518967160031204e+00
1.062518949069954477e+00
1.086356847504608591e+00
1.003194717940860681e+00
9.022343288142694595e-01
8.837720392023810101e-01
8.239562161203777269e-01
7.646414088859166958e-01
6.806199897106880448e-01
5.769233005468358266e-01
4.443268007575806311e-01
4.256374955903724500e-01
