1.109574286478664851e+00
1.136044360779589368e+00
1.123096256539936721e+00
1.048284386004649571e+00
9.614695841111846608e-01
9.441987994653323613e-01
7.994525130545668823e-01
7.474399715683198719e-01
6.205274689067618032e-01
5.640367587595286336e-01
4.143262339150150519e-01
3.759020467327805481e-01
3.268265926338007055e-01
2.371655989624601724e-01
1.695515254878662004e-01
1.481947414570580768e-01
1.187422824358008305e-01
1.313738183104673496e-01
7.771089895961928729e-02
9.109883892222990498e-02
1.104661042923216346e-01
9.739740993699258498e-02
8.309793544231081075e-02
8.702046084903793111e-02
3.329961831503480685e-02
6.921035692092675218e-02
4.115596517349442290e-02
3.466940663816361901e-02
7.809952732136844766e-02
7.422117584132310875e-02
5.470441318658973012e-02
6.095031977677862339e-02
1.401454370541597716e-01
1.089076507004810845e-01
5.971625006952663295e-02
1.375571233782321157e-01
1.087838820107421139e-01
7.400027879920718921e-02
8.627093067947312621e-02
1.321203195231940852e-01
9.387822128993210391e-02
1.738794952868702171e-01
1.657649750320518145e-01
2.307612135509053419e-01
1.337247070489442080e-01
2.148632125139230409e-01
2.155422381682126909e-01
1.958230728998043013e-01
2.133485320670265584e-01
1.778162523291980379e-01
2.394513056422777342e-01
1.525399629715019634e-01
2.642875194688272811e-01
2.031310395445376782e-01
2.213893392192718690e-01
2.655484688803252391e-01
2.703362814773609957e-01
2.859010961808320928e-01
2.128182467173703185e-01
2.381716370911715897e-01
2.488120046704754562e-01
1.892633831639251862e-01
2.780004700154135033e-01
2.626388670383506541e-01
2.529218189043856424e-01
1.989118271486628176e-01
2.284591281865628876e-01
2.801406905581809159e-01
2.583434123606846988e-01
2.140599846050861288e-01
2.304914592094774450e-01
2.280080229414884474e-01
1.991950128405200193e-01
2.354867084100114027e-01
2.637036594353286967e-01
1.790573705293400097e-01
2.174707739056941924e-01
2.082663981735171921e-01
1.448328630511336312e-01
2.187443482559406627e-01
1.499669438508035579e-01
1.914559168948955226e-01
1.800517038429805539e-01
1.390567365096332386e-01
1.164021004576175772e-01
1.361095785329943242e-01
1.708823637344820678e-01
1.746716277680442631e-01
2.037848308708507250e-01
1.495814955245539923e-01
1.126364383734073105e-01
8.273790814992357245e-02
5.179249754832222080e-02
9.303621478182275140e-02
5.791770813523578615e-02
1.243013571133650130e-01
1.274148672760963275e-01
8.993582090061361112e-02
9.106634771212088197e-02
5.619803447271555508e-02
1.064380604835950817e-01
7.347521201662475521e-02
4.979267742976294792e-02
7.217066474109963548e-02
1.154344869524343842e-01
7.001127630356565601e-02
8.264174794203506258e-02
4.051974297048034634e-02
2.769827516019857799e-02
5.686258227402841287e-02
3.682274723785396164e-02
1.398151979189837107e-02
2.590776402355898789e-02
-2.559582312489868533e-03
4.583775407763819587e-02
-1.707677552408942701e-03
1.364628813271857519e-02
4.170864664489103840e-02
3.637072350436389850e-02
2.748599666317091267e-02
2.482832085948933482e-02
1.783572980514895948e-02
4.624607007996760222e-02
-2.107970559311526590e-02
3.526544860195586495e-02
7.336642964277495516e-02
3.546968814303455564e-02
6.073640100868114844e-02
-1.740455495339744349e-02
-1.176997369161191312e-02
2.586080893644350509e-02
1.443744229308824636e-02
3.499280888952800705e-02
4.054772718893420724e-02
-3.759699707888981141e-02
1.191833771193739899e-02
7.307246263737569858e-02
6.173526133035475358e-03
7.136251837493703953e-02
4.707891405223663117e-02
1.619530114248395741e-02
1.868814496558168087e-02
2.269807404977522078e-02
3.896556128284960063e-02
1.789684342515963922e-02
4.820519853118997167e-02
-2.853296231296958627e-02
-2.034701522194658913e-02
5.814283925963361493e-02
1.598190881539284652e-02
6.475953777179144222e-02
8.837097341398124362e-02
5.215155698771382908e-02
7.073662827188675895e-02
-1.594519839199624867e-02
-1.707604229054146897e-02
5.127195357619520472e-02
-7.490942859124525427e-03
2.553687598272113071e-02
8.196099567710399270e-02
4.730791609644232482e-02
3.154766693432011632e-02
1.016012027136499879e-01
2.752577846268992878e-02
4.006825999659605064e-02
1.100346682661797748e-01
9.261251795424184363e-02
1.155680803647129856e-01
5.282882502415850445e-02
8.648574056358535045e-02
8.997762641973930386e-02
1.629547966046112073e-01
1.265389323664171395e-01
1.824100637570061634e-01
1.073493492348646661e-01
1.149051612982722181e-01
1.269856309465433042e-01
1.810322379542088911e-01
1.328884649346808167e-01
1.424482897440791096e-01
1.844446217102583829e-01
2.180555532111170258e-01
1.598585527665225547e-01
2.129840833250229715e-01
1.868549774893091819e-01
1.293979328849400035e-01
1.631537225784663869e-01
2.191059428508380647e-01
1.876877638533092085e-01
1.445098292473369905e-01
8.799339697282208828e-02
1.440796781574006924e-01
1.858875827313560825e-01
1.119197396160764579e-01
1.479016614335270929e-01
1.003298555175154427e-01
1.660065506082039066e-01
1.575560035831544692e-01
1.292507256123812953e-01
1.039988096903095294e-01
1.355233225372923234e-01
1.050380296713349648e-01
1.192253381730553063e-01
1.916882170462940460e-01
1.855812630333745494e-01
2.309128033424217574e-01
2.364667823753368592e-01
2.590479290424974046e-01
2.962794976838442063e-01
3.349372632649614268e-01
3.479024120745498050e-01
4.970207919348044179e-01
5.322247930288444007e-01
6.130711677306432961e-01
7.311531746138525412e-01
7.242461522946370689e-01
9.082915266102172813e-01
9.411006961114326552e-01
1.024085032536131035e+00
1.122159076225861085e+00
1.189948089492150363e+00
1.194740543469476668e+00
1.148862822886570267e+00
1.124382609017038570e+00
1.110805984913889377e+00
1.081987486944594012e+00
1.011099920668463659e+00
9.372507266752955202e-01
8.478626397548585381e-01
7.611462713012667747e-01
7.082225720210150177e-01
6.274708064528221607e-01
5.353462657338369235e-01
4.796505681896415796e-01
3.605781517199478370e-01
3.117859624201955171e-01
2.537466541280368748e-01
2.471702866352797900e-01
1.639130278488538650e-01
2.010456153975871130e-01
1.641995802469442822e-01
8.504831828629212664e-02
1.715602453426372798e-01
1.271293962383267251e-01
1.156784650678039095e-01
1.306737777417186774e-01
8.935974023371201502e-02
1.067272775351940095e-01
1.223401189660126426e-01
1.168085395419122957e-01
9.338609210792453430e-02
1.402907691959653369e-01
1.106882315554028884e-01
1.449779196037542794e-01
1.599320949471614850e-01
1.555371134989948501e-01
1.111309965922598342e-01
2.409410432041715344e-01
1.601275127455429603e-01
1.622763953012701099e-01
2.112593750647523694e-01
1.641586399679328678e-01
2.263257233713937833e-01
2.280578968927706729e-01
2.286143872325769044e-01
2.506158067784295396e-01
2.300659895501096508e-01
2.027666772702032549e-01
2.774332438048088267e-01
2.273658389823219328e-01
2.512507835627106889e-01
1.965268819980761361e-01
2.444354500310539913e-01
3.095460116995483180e-01
2.483405490027859874e-01
2.618376054491508009e-01
2.831951687126356698e-01
2.668142769049102192e-01
3.229710843129149356e-01
3.213489791349103952e-01
3.339944830692128663e-01
2.673088609431937268e-01
3.098199015827021174e-01
2.780242244264480855e-01
3.326242561007789478e-01
3.391487441528416857e-01
2.732983792977573545e-01
2.718602714660680042e-01
2.946391158638488328e-01
2.944880478385751288e-01
2.836925148579237388e-01
2.751842712635216848e-01
3.035651226570611483e-01
2.970853435418768229e-01
2.685794716752185618e-01
2.301895638351408313e-01
2.779434010002631017e-01
2.427607038384565763e-01
2.326182073723798982e-01
2.146914643373855069e-01
2.755620588428273621e-01
2.622945977545005913e-01
2.040971877239092791e-01
2.258952550672847503e-01
2.465558124065541645e-01
2.019983887840915426e-01
1.979724092490869336e-01
2.159668553085900555e-01
2.229392870847667352e-01
1.744788600361933950e-01
1.637733791498013625e-01
1.407562711467422178e-01
1.642133141609529723e-01
1.172014713802989050e-01
1.102649583637192732e-01
1.188325760018182353e-01
1.647857353555228499e-01
1.506048488197904434e-01
1.250263160809227114e-01
1.655424517861154021e-01
8.700466588608153640e-02
1.153965363987991405e-01
1.950702315630601369e-01
1.165861110476801299e-01
1.229728676139782012e-01
1.159976526529414853e-01
1.271648395542394894e-01
1.039732058148965799e-01
9.894650642747146452e-02
1.283722716466788871e-01
1.169494195363178640e-01
8.008706418950491124e-02
5.175704885496858199e-02
8.556231529197583230e-02
4.657488623342766199e-02
3.021649661087281655e-02
8.428836049065732694e-02
4.205992303670202936e-02
7.216761959551000472e-02
9.428876201397166923e-02
1.980423647335969803e-02
8.325302802091612275e-02
6.270561109250345766e-02
7.330214353594521892e-02
9.562747485290402916e-02
2.359136300245794765e-02
4.972454817230113899e-02
6.753259455065088734e-02
5.684607198468267369e-02
3.996465287352937712e-02
2.403403876163377750e-02
7.292628311184878864e-02
9.668492728374411538e-02
1.661393703807589189e-02
5.673980689551772622e-02
3.802036951043964719e-02
-1.819039896213006657e-02
1.223763744504853257e-01
5.372751796990502676e-02
5.365943200757283121e-02
7.848703185225869294e-02
8.656160185464373269e-02
2.326880995171708155e-02
3.453628824920612628e-02
7.312778942070538579e-02
1.310113371524442294e-01
2.307805899938554853e-02
4.358223881820283419e-02
3.933572940701215992e-02
4.871452957626654784e-02
8.635785270948516390e-02
4.713261671856634749e-02
6.032406797751085903e-02
7.007466105589799099e-02
9.124059136375591017e-02
5.352557352884321218e-02
1.517780438016741451e-02
4.396616093334939496e-02
6.437502305247791434e-02
8.730750412964380369e-02
8.322166813408428399e-02
7.621455264418558473e-02
9.863915221392155486e-02
1.049705720108094209e-01
1.318757311352007355e-01
1.178415711338951510e-01
1.004006625736739572e-01
6.579130577978480054e-02
1.140742088018412564e-01
9.957620322224200460e-02
1.104675537039091077e-01
1.444481546847269926e-01
1.953949359214007808e-01
1.312573467365045488e-01
8.055853943177529453e-02
1.586668053571318737e-01
1.130962139570445557e-01
1.720403460928633665e-01
2.191571823256291129e-01
1.494312776832771861e-01
1.763609931335110292e-01
1.878419100200494629e-01
2.077950449158867119e-01
1.938150933443690271e-01
1.578414164130680919e-01
2.046840203346360076e-01
2.270058569127465509e-01
2.035667125875912087e-01
2.487552704950082572e-01
2.177946718370005197e-01
2.084901602128083342e-01
2.233534114989409458e-01
2.360976622743355957e-01
1.937634065447871867e-01
1.280414229126685677e-01
1.886688638069794477e-01
1.694242324857532789e-01
1.544276302101697529e-01
2.067390977596040291e-01
1.715313284527819060e-01
1.394201647620506024e-01
1.744876408660870348e-01
1.783080604917301470e-01
1.048547090266918058e-01
1.025175904824817408e-01
1.969985644456105078e-01
1.770602923005452078e-01
2.315460733023415041e-01
2.860935872781055211e-01
2.646123356929071524e-01
3.029601192287300071e-01
3.376732457385649977e-01
4.108071787221502236e-01
4.422521774928924732e-01
5.634158506235829034e-01
5.921521739667966466e-01
7.067485197662869423e-01
8.212621680433209725e-01
8.971608762742228071e-01
1.002906664231333345e+00
1.027337458309532936e+00
1.102036676343447041e+00
1.171491022125751513e+00
1.185782460161571183e+00
1.270647961620276156e+00
1.192978725596838263e+00
1.138097562986917000e+00
1.022391723955617948e+00
1.030631903888772349e+00
9.210702341208304444e-01
8.341812150870274722e-01
8.163475320238742228e-01
6.657832609681891833e-01
5.642948789004684773e-01
5.525794485758066532e-01
4.227979808528499750e-01
3.723319925045112111e-01
3.006078738474265988e-01
2.592791418346696575e-01
2.478323511256313449e-01
1.851023665279856734e-01
1.713699847511913066e-01
1.269579319802776884e-01
1.643037171543905717e-01
8.386433436432152999e-02
1.014543302166042854e-01
3.538491255222431936e-02
8.315063820000821726e-02
1.407160034125427006e-01
8.637744143242709338e-02
1.017868855430636571e-01
1.208539480095402741e-01
1.101805041746621028e-01
1.292637577328128451e-01
1.391643123961518180e-01
1.622952009998599177e-01
1.463730960896202360e-01
1.076563829246214160e-01
1.337610053041252967e-01
1.872501919961515326e-01
1.706338570755719375e-01
2.180861647082645016e-01
1.717453296937587748e-01
1.653756277646525330e-01
2.056168291696313655e-01
1.999531935173176622e-01
1.494133983545226640e-01
2.042745878733576159e-01
2.167073120657771745e-01
2.511136456750475698e-01
2.410124332543495396e-01
2.656399466346619498e-01
2.293444356238193427e-01
3.007032605728193198e-01
2.839790227199949779e-01
2.155527136465517635e-01
2.925875222036549705e-01
2.866503664327433309e-01
2.648359000550251641e-01
3.346061176395335179e-01
2.461811317068470784e-01
3.180247133344254462e-01
2.787243255048052482e-01
2.419108504895922940e-01
2.591340863962925400e-01
2.417080599170013944e-01
3.051715480919098833e-01
3.040701685537388066e-01
2.664370552102776624e-01
2.347687290012759331e-01
2.397431353633142637e-01
2.957048269618549052e-01
2.223599782275281767e-01
2.227740669084111169e-01
2.730729341787132003e-01
2.840753610375339466e-01
2.667774663188315354e-01
2.761735990019162923e-01
2.522388769787715090e-01
2.762153010449243107e-01
2.127867948456720060e-01
2.917815744758261998e-01
2.559927537058040437e-01
2.907175694252190912e-01
1.891404117893246417e-01
1.936417117397656040e-01
1.896803028616568243e-01
1.566764123668233366e-01
2.109835512246773237e-01
1.366702070346879905e-01
1.491151532992520123e-01
2.031391971440297539e-01
1.840834861865205396e-01
1.771584055924614598e-01
1.305938185095648074e-01
1.491206283580348568e-01
1.281783175581192591e-01
1.161155459412103880e-01
1.752166329826378433e-01
7.521927895461663627e-02
1.265974129259912484e-01
1.185208553054742653e-01
1.190551630148282414e-01
7.150023944204397797e-02
1.027059087565375117e-01
8.504004870997608490e-02
8.393870816602849727e-02
9.686227563395566342e-02
8.738349114208115997e-02
7.789196351244222216e-02
5.144714172201040464e-02
7.283066460490650318e-02
8.600545815882164324e-02
4.695689993000597834e-02
3.541076021606492930e-02
1.813111887872484451e-02
5.271710571267820139e-02
5.093118070187446778e-03
1.414804646328314541e-01
3.034826792869375206e-02
2.970520920120608629e-02
2.196747175164166788e-02
6.315725009992675942e-02
4.661784072453314942e-02
3.688080510579297422e-02
6.897371036316157777e-02
4.600123884661740103e-02
-1.727718189813133576e-02
2.454776294504414785e-02
6.590017797170800995e-02
9.895171266794955400e-03
2.396610552205548708e-02
4.224559019425546541e-02
-6.672897815964314028e-03
3.521085173830275361e-02
3.280464001113499867e-02
4.414759454536794359e-02
9.975573650958807423e-03
6.157761143474826254e-02
-2.649458011624153397e-03
-7.476344187517140055e-03
2.273555452411001737e-02
4.925471135432232112e-03
8.123038829227895163e-02
9.691175540518043308e-03
6.325998307231583961e-02
2.453498309527296292e-02
-1.824221660698768441e-02
3.550831441994861670e-03
1.861255391553570324e-02
6.067408686742099128e-02
2.166710056890782526e-02
1.836632404744588734e-02
6.359347318236443711e-03
1.400563912559865676e-02
4.776979488018794073e-02
6.605078628403528163e-02
5.804826765658174792e-02
6.990927943420274793e-02
-2.892111329131828723e-03
3.595422176487106380e-02
8.227502022163289686e-02
1.093617947173833038e-01
3.217511336103252850e-02
7.143985821712153794e-02
5.219226963818629494e-02
9.288487153010469011e-02
1.103589428606121386e-01
3.985835176477878217e-02
1.064464498326634784e-01
8.208065401377345749e-02
6.970017463415151271e-02
9.570378684836175487e-02
1.143995050105630074e-01
9.185882104639514489e-02
1.247180696618642448e-01
1.297799061290462186e-01
8.002748489932964837e-02
1.042862786503835071e-01
9.126267051000860886e-02
9.732343154485016690e-02
1.187360458352778869e-01
1.355910366943414436e-01
1.450704913768017523e-01
1.253641302908859445e-01
1.530448569145475002e-01
1.537848080220999836e-01
1.832843673267252338e-01
1.742376145848744118e-01
1.174225158571704647e-01
1.575847035579602540e-01
1.628448607402358805e-01
1.833588613204226447e-01
9.467989886855711357e-02
1.399919335859912128e-01
1.532037190978360053e-01
1.618316122201507445e-01
1.436240179068049294e-01
2.048310902035873904e-01
1.622148447162690132e-01
1.570021916871634227e-01
1.017349142194385464e-01
1.023857752806332788e-01
8.595801043775047612e-02
7.801695509431118281e-02
1.050799128391477766e-01
1.555701427318584573e-01
1.220528152076880840e-01
1.023287331501564479e-01
1.906876119268156311e-01
2.239303243890839179e-01
2.364709914377433053e-01
2.410784803206769689e-01
2.999201534169789185e-01
4.263660641003017004e-01
4.620148909006939753e-01
5.194056866851834986e-01
5.568587174261725448e-01
6.873444385210295549e-01
7.533046302778430015e-01
8.822917267016230358e-01
9.533321745728364771e-01
1.034974900339436843e+00
1.053883251548568545e+00
1.030682724848682508e+00
1.085143456799784856e+00
1.119215059681230473e+00
1.133100469529685794e+00
1.074017099938701314e+00
1.026930378916642850e+00
9.842522301157470288e-01
8.657390567755741673e-01
7.814458182902210837e-01
7.071473680857198740e-01
5.836041999730113838e-01
4.786256658529089991e-01
4.192867633529323568e-01
3.800355581122136783e-01
2.763215995618958365e-01
2.662375596915685927e-01
2.401701630258900877e-01
1.641211429937709243e-01
1.329144299483908664e-01
8.200389401238340759e-02
6.418680029527032427e-02
8.433362285981971240e-02
1.753197978190756956e-02
2.604456804531516539e-02
7.231586003939965979e-02
6.075088846681773319e-02
6.057242877316969948e-02
6.483715824218154455e-02
8.599942156073772659e-02
3.699633695477212020e-02
1.215983216082066887e-01
1.753460919646503136e-01
6.447470879037182911e-02
7.948342533325723769e-02
5.044984917729981172e-02
1.201125516872122156e-01
1.560883758634697971e-01
1.266858103319005169e-01
1.581483355097849652e-01
1.264287170460527965e-01
1.705546682461228092e-01
1.469623184457310716e-01
1.230893055595268237e-01
1.673654542903182385e-01
1.794636826612250602e-01
1.656215569469991211e-01
2.320201848542731704e-01
2.048568728839603725e-01
1.937797478539667884e-01
2.047979397468701335e-01
2.101322684464608237e-01
2.321412337766388112e-01
2.537327931222196908e-01
2.221007240553962980e-01
2.099126184203888856e-01
2.290591963313437229e-01
2.573778684027199226e-01
2.390433161507195536e-01
2.933522361503205222e-01
2.077028732661408417e-01
1.820020269768178878e-01
2.766692311254067560e-01
1.915627099444026094e-01
2.328617355054704297e-01
2.118126656603315505e-01
2.169997906496839435e-01
2.714740841052514231e-01
2.394771067844775059e-01
2.259681016110445806e-01
1.804059821811707376e-01
2.167955873924962418e-01
2.036052651483145348e-01
2.499357322204089904e-01
1.965828399154752326e-01
2.305570794985132843e-01
2.438517973231574820e-01
1.915861964230445580e-01
1.579111765363259423e-01
1.269169948214961818e-01
2.222661679159523840e-01
2.235863185420572385e-01
1.674096252030442822e-01
1.464731860130044916e-01
1.306535491978891850e-01
1.703219215330169511e-01
1.768530766014936306e-01
1.448304211206293823e-01
1.427563732837861810e-01
9.864396146648106434e-02
1.062258566699408879e-01
9.050822628028061534e-02
1.023875267956802365e-01
1.327904131154849232e-01
1.099261739328240561e-01
7.144573457967740016e-02
1.161695620220889597e-01
6.161514703892057021e-02
3.935950411162197904e-02
7.576165195852907486e-02
9.551432419870937995e-02
4.471203119862778019e-02
3.981586949910796008e-02
7.392095508714437158e-02
2.936151437459080804e-02
1.349102099606331803e-02
5.534740537997684395e-02
-9.241188898628047849e-03
8.872983349759264171e-03
2.323570030670643605e-02
3.897586636081713102e-03
2.831089116040728243e-02
-3.874981431684088040e-02
-1.427592775860303531e-02
-1.456228272697804652e-02
9.145038400305526005e-04
4.168784969450831795e-02
-3.879089264413357330e-02
-1.035423402311803215e-02
-6.677598346974193688e-02
-4.674572502598364071e-03
-4.195775240771229542e-02
-6.719458781361838107e-02
-1.514661381402416032e-02
-2.963811666334633527e-03
-4.604867633745650390e-02
-2.271224773803668523e-02
-7.924617325092128683e-03
-1.940578965433044367e-02
-2.698522575919726565e-02
-3.127170508211904454e-02
-1.767361052398494503e-02
-4.605835443267571050e-03
7.623353243121945566e-04
-4.434699896522040913e-02
-6.065024178410566291e-03
-1.718746826246082479e-02
-3.135570675583057576e-02
-1.548882768092326237e-02
-8.409704126643907651e-03
-3.802508173159264288e-02
7.807293452092460562e-03
1.619946635228315321e-02
2.521705727685827347e-03
-1.434319289465719321e-02
-4.667587636162804504e-02
4.481502932100086406e-03
-3.936051086875583249e-02
-1.551137990604619689e-02
-2.454622578258358959e-02
-2.926253205597423995e-02
1.748909737588209140e-03
1.249718136126956244e-02
4.833297937438076064e-02
-2.316134858234858429e-02
-7.081518535014538762e-02
-1.205002137793277986e-02
3.156783694089996400e-02
-1.117673380867388599e-02
-3.107328417709547333e-02
-5.018938370309566910e-02
1.288983733922204056e-02
2.549002688586959886e-03
5.513275834747864007e-02
4.909675502782166051e-02
1.510877374257803968e-02
9.386195422724653847e-03
5.492592217515566283e-02
7.357187885362784230e-02
2.795821867560060320e-02
6.279683414628482729e-02
5.202829453730217074e-02
6.487870334926817972e-02
5.519446755067143606e-02
6.214737411827472163e-02
2.951230241991869424e-02
1.812223934021140598e-02
1.085954595520377264e-01
1.191561892456755034e-01
9.470961607575442698e-02
9.735066422620639037e-02
8.161754502859423777e-02
1.353627220323419256e-01
6.712906236918611547e-02
1.495489916150480603e-01
1.114877075110442400e-01
7.871711952646903709e-02
1.162743556834481551e-01
1.549825163561995289e-01
3.781707713052341602e-02
1.314834421291977418e-01
4.202008863897731261e-02
6.674064924177423863e-02
7.858429314627690676e-02
1.338974249817131423e-01
7.096281479543435633e-02
9.082603415822093629e-02
6.533745176162142343e-02
1.031505967738524654e-01
1.219308430721189607e-01
8.667431934687491735e-02
1.990367050718616637e-03
2.695344784648219527e-02
4.809098600640727972e-02
4.341098676300614301e-02
6.387891926728125891e-02
7.369704536869514655e-02
9.110103508490068058e-02
1.113102675910352946e-01
1.441350470979021192e-01
1.753231424823271101e-01
2.360571932022228758e-01
2.971183281661432529e-01
3.330948148491821859e-01
3.657211002684369605e-01
4.658217856217407582e-01
5.421186359319033476e-01
6.662295444749201101e-01
7.411099349999534791e-01
8.417226517810928454e-01
8.905325676318222028e-01
9.101919520498610305e-01
1.040516008659419844e+00
1.052576568887743313e+00
1.087856629594585511e+00
1.135282828305229197e+00
1.019637564728767209e+00
1.032418142548909401e+00
9.700853734838174036e-01
8.954954867431381693e-01
7.879865071077483130e-01
7.218370989629744328e-01
6.782474441182085867e-01
5.506808205187414540e-01
4.360857178419900171e-01
3.529127879757547603e-01
3.329624341988024483e-01
3.226797103544944978e-01
2.275955947698407589e-01
1.797195151968221105e-01
1.625646573941491035e-01
1.111847237977372227e-01
7.358609723686565518e-02
-6.026949689647287389e-04
1.272031168321227368e-01
2.054826884438418211e-02
3.977191190783849889e-02
-1.832821475638370112e-02
4.675043757170385672e-02
1.409682449712342661e-02
2.219388780374816766e-02
2.136321455583280182e-02
1.404095125452919923e-04
-1.753839677921859019e-02
7.967882224740023556e-02
4.140619297537992405e-02
6.560309023625934821e-02
4.135050755841567643e-02
6.859238203316048166e-02
5.300345605176431246e-02
1.013804792043380143e-01
7.108282397111102824e-02
8.043881742283323644e-02
1.038823452691806509e-01
8.614612551797146134e-02
1.276028055735422828e-01
7.037630693836281759e-02
1.042316249567581538e-01
1.619619779797855097e-01
1.281769142711169096e-01
1.615051404030156124e-01
1.229258086835691710e-01
2.103568044483868360e-01
1.703985142492741578e-01
1.261484103274792545e-01
1.497306530162128280e-01
1.384917069845634785e-01
1.852863406515349587e-01
1.236509793165175702e-01
2.039117498864858324e-01
2.284948330654182069e-01
2.068292843968453920e-01
1.616020598536794806e-01
1.620178505931810786e-01
1.616827442564070516e-01
2.152492645858729570e-01
1.870166299175686220e-01
2.438888662571249144e-01
2.164642077793302311e-01
2.593382242035643936e-01
1.691407842792944649e-01
1.474820741417975922e-01
1.690339278552052127e-01
1.648438100497506276e-01
1.858008438389876782e-01
1.667649236312835626e-01
2.104457667002961607e-01
1.863736418532870309e-01
1.632742055343991139e-01
1.759521227735807158e-01
2.001736439112959676e-01
1.663483893697556004e-01
1.901656298955400892e-01
1.658860942393207694e-01
1.493841484680679677e-01
1.436284548621533652e-01
7.380769469241446612e-02
1.161077333668092126e-01
1.158743769742933694e-01
1.320488191355333185e-01
4.571182714231680766e-02
9.914121272791628914e-02
1.337690201058660266e-01
8.853955967480806044e-02
9.942980757195399311e-02
1.043715280217146213e-01
7.426571415881216831e-02
3.993284438890666588e-02
2.444905298755986611e-02
6.631100240957871206e-02
4.761588283738722727e-02
5.724601337470623663e-03
2.983955359764185744e-02
5.012637606584750133e-02
1.183273865724878554e-02
2.463653178225615192e-02
-5.206636182427080983e-02
1.553243567678518761e-02
9.020800371001072571e-03
-3.808555716187057155e-02
-3.586482289238003551e-02
2.648336535784916179e-02
1.541687329059623218e-02
-7.310720798801105536e-02
6.092994075089064321e-03
5.102648629817629899e-03
-1.279392100976650681e-02
-7.529906492311728983e-03
-2.988608042630850475e-02
-3.781918332458471255e-02
-6.392976101163280744e-02
-9.986354662596408360e-02
-2.116221389230593664e-02
-1.010135832328948324e-01
-5.625402822230213956e-02
-6.678583430778671504e-02
-3.743723297512234482e-02
-9.135810031427127331e-02
-4.189231532838436078e-02
-3.156171294783255421e-02
-4.476862906335209863e-02
-2.717524296078062049e-02
-9.320135322207795392e-02
-4.701807991654534391e-02
-5.274780968167255141e-02
-9.447638580049044776e-02
-3.715743850958762307e-02
4.157455508343455008e-04
-4.655616445564823153e-02
2.155930132985491021e-03
-7.395265980028176145e-02
-1.492104360145735803e-02
-3.956974959899653421e-02
-2.736724604054521781e-02
-7.982615051229602354e-02
-9.640957942762463928e-03
-9.293603851252454917e-02
-5.903978692825851554e-02
3.037860284343461836e-03
-3.173539726556627583e-02
-5.945434951848990734e-02
-4.238553497974504453e-02
-4.584356775195981559e-02
-5.629042250397399416e-02
-5.210173732329084761e-03
-7.291490457719554397e-03
-4.327542321209161547e-02
9.141875092765996969e-03
-6.021957690023208715e-02
-2.884810689987905505e-02
-4.920063705582525260e-03
-1.152833397946881333e-02
-3.356853201197506492e-02
9.997961568439878155e-03
-7.161867369069825628e-02
-2.774172346877086179e-02
4.248264647487012824e-02
1.156848015423708742e-02
-1.608120850963457027e-02
2.286317172640110057e-02
2.208936766010144437e-02
2.955449440487663976e-02
3.247963707691419594e-02
2.419828127614408186e-02
3.459619547338958767e-02
1.204729942342216975e-02
1.297273064378102470e-01
3.084129842177601999e-02
1.686026661210181243e-02
6.183343178513257821e-02
5.498676433993417850e-02
4.288766125040497507e-02
1.067668043197100014e-01
1.005270946704084761e-01
9.652945193610504293e-02
6.579985602970558900e-02
1.062858672073235256e-01
1.229659596306667546e-01
8.311783532975411393e-02
9.741383195380404203e-02
9.449097231871811386e-02
7.249056325996834638e-02
1.031125855226139032e-01
5.518360666501569145e-02
9.185459896369213562e-02
8.348979324234118149e-02
5.659518017484693048e-02
1.280317312082564496e-01
1.075584654726633449e-01
6.313833153443630664e-02
4.408800764028866781e-02
6.592514947921188084e-02
7.245046004501887182e-02
3.744510978710953453e-02
9.647868108100909890e-02
8.326549780869263451e-02
1.221373318178429757e-01
1.024590741430631835e-01
9.136308328324135863e-02
6.049048742004783236e-02
6.464550823895123810e-02
1.000050283159051312e-01
1.846131714322408746e-01
2.270759296758477763e-01
2.575459366553450868e-01
3.189010779092746883e-01
3.913958446648599376e-01
5.202777086247086791e-01
5.615492361321838821e-01
6.570247748915799546e-01
6.938310691597856517e-01
8.491042501478619497e-01
8.971546369850663671e-01
9.851383209929091000e-01
9.977390671546120249e-01
1.081203564300316833e+00
1.057098771694763961e+00
1.057790387576880153e+00
1.017785427362996042e+00
1.061474235299872060e+00
9.446454006315596619e-01
8.842009776953581035e-01
8.073451758490794994e-01
7.194393542855346269e-01
6.541029536347922058e-01
5.937656468736151050e-01
4.953496435415040144e-01
3.576177072624270314e-01
2.756755308925287751e-01
2.421970949592400502e-01
2.062281803842911099e-01
1.922642838008048471e-01
1.582504624270578142e-01
1.532637273722987359e-01
6.353338146856007951e-02
6.787686616723503930e-02
5.079698277761809933e-02
5.764738653439954036e-02
3.113524451640772850e-02
-9.186372914231050180e-03
-2.896618115694481882e-02
6.022205208596545511e-03
5.053486704531298668e-02
6.309586303181005662e-02
4.837147503750719585e-02
1.190237867929863635e-02
7.111354257396163003e-02
4.457210331369923506e-02
7.029902635871290717e-02
4.977584557301019397e-02
3.329746540577403768e-02
1.086196622502361431e-01
4.633783750649097394e-02
5.462999041858968702e-02
1.129938132386519856e-01
1.343218811683577762e-01
1.067840688400804594e-01
7.844581996781249678e-02
9.013784380276201880e-02
1.682217222075766128e-01
1.118862234819917589e-01
1.828410307188007011e-01
1.598102871462997732e-01
1.158248395729093300e-01
1.611252216178738483e-01
1.632819043399224013e-01
2.371587098534065075e-01
1.448890376038027561e-01
1.746649880171808056e-01
2.299995286454560584e-01
1.654900057928175017e-01
1.915868564082950920e-01
1.663690667336557849e-01
2.234954045506014342e-01
2.151185937387188052e-01
1.708724878792448332e-01
2.168138013615555637e-01
2.246258428927345729e-01
2.266847728375865345e-01
2.205409333048010678e-01
2.134739499699320753e-01
1.924876496726224961e-01
1.765035957750277218e-01
2.175643521048711004e-01
2.335293969825084082e-01
1.972351211029899076e-01
2.156857559814158720e-01
2.104409546193929115e-01
1.953319233809837907e-01
1.816716933080229635e-01
1.760612022813717037e-01
2.152798576458381796e-01
1.850115907746121280e-01
1.285380353701010281e-01
1.306602887362446896e-01
1.839786478375916301e-01
1.750360608543782837e-01
1.949866502181065719e-01
1.359828332402944207e-01
1.467239118212405324e-01
1.379734806317436668e-01
1.093093311258492156e-01
1.153574924547377950e-01
1.146032593639963598e-01
1.316882052260003599e-01
9.075976422464289428e-02
1.164511276599711209e-01
5.570924656472158593e-02
7.133471703722515933e-02
5.446924418563459103e-02
7.757930843720371034e-03
1.004605806788206601e-01
1.970225184294541881e-02
6.426786358352126749e-02
5.069906905621456017e-02
5.171107433202665887e-03
2.797512293958326693e-02
5.135160616030010755e-02
3.317382017735996669e-02
-1.908458752137260489e-03
-1.039616574307895489e-02
2.414305906205956032e-02
7.489577021752961278e-03
3.303707577872888601e-02
-5.294840771660348777e-03
3.967742823804928931e-02
-6.200439406320959815e-03
4.457406980768849336e-02
3.637849285229018126e-02
7.787317353642912027e-03
1.273729012929085760e-02
5.315403059629528193e-02
1.631891528272848280e-02
-9.554216864194459841e-03
-1.444695888897993934e-02
-1.260386977642339104e-02
-5.436548068724701699e-02
1.806097612946886907e-02
1.292688003302948710e-02
-3.095686764576001393e-02
-3.209574705172719977e-02
-2.385664042918573743e-02
-1.276373625980230242e-02
-3.566331903761597866e-02
-5.987674028082046879e-02
6.010560631751662997e-03
3.862933275544536138e-02
6.674194941943243503e-03
-4.735561604336989416e-03
-7.508457555634093922e-03
-2.255305275568626755e-02
-2.886511227298996576e-02
4.049893217196863515e-03
1.775697230648709893e-03
-6.146777478763985891e-03
2.589502445346846329e-02
-5.080731028481636630e-02
-2.693614255243617292e-02
-5.456651739190633912e-03
1.300563078788940022e-03
-8.095565461777820548e-02
-1.030979431553444639e-02
6.555375421456169360e-02
4.077205553345691208e-02
-6.214720904910570054e-03
7.461372261370854617e-03
-2.881643744926276618e-03
-1.832849685182957183e-02
1.778536515193834822e-02
1.701175269991682393e-02
4.324132739240097584e-03
2.908777809412272514e-02
6.595034180225900489e-02
2.739432568490277747e-02
4.391439097434177846e-02
6.918746785475957117e-02
1.730476556685273809e-02
4.536050916138387873e-02
-2.978997160775629510e-03
1.245612524050710920e-03
1.891914313234802081e-02
3.237745436269685861e-02
7.078773024474685482e-02
2.838143533060742685e-02
1.117338709358298154e-01
4.672913807096421707e-02
8.235545103569671954e-02
1.052970894721467349e-01
6.730337443078997228e-02
1.252400924794659642e-01
6.693466031532167848e-02
1.121624886127265963e-01
6.861589534992879047e-02
1.456924262059717257e-01
1.109633074943110337e-01
1.351893477325051829e-01
1.412617584766047429e-01
1.519841964831643299e-01
1.420433146624963117e-01
1.699720004910492688e-01
1.776945296367782867e-01
1.208256348388222212e-01
1.639015395747696890e-01
1.553379309992971580e-01
1.311597329864019612e-01
1.566430642304260934e-01
1.484826791736031659e-01
1.538125776704765135e-01
1.501871947459835210e-01
1.621295056308607041e-01
1.152981021162495096e-01
1.127783282456136238e-01
1.090430254734474219e-01
8.861328695894778174e-02
8.422658020190036676e-02
6.323452087370091956e-02
7.994340358228375909e-02
8.191851054350617056e-02
1.520707870799485883e-01
1.546892450447519274e-01
1.241397398631412657e-01
1.406649455244348978e-01
1.794816461161827525e-01
1.688225690291364212e-01
2.478988737581985791e-01
2.935525006503250656e-01
3.266381555247372948e-01
4.165614288696731782e-01
4.748329276766181661e-01
5.159946138671173133e-01
6.679046524494454129e-01
7.307146636845995857e-01
8.091808706444966193e-01
9.013296165624449241e-01
9.996988193340272666e-01
1.019267578066367808e+00
1.094321287121547748e+00
1.116398692482191146e+00
1.130321318677474984e+00
1.154122801572355694e+00
1.117653124472115511e+00
1.111526147577010626e+00
1.020745393349834940e+00
9.352149725521975432e-01
8.480184191750599343e-01
7.263965688966463885e-01
6.638376351212436077e-01
5.772553208014977733e-01
5.207860507303553321e-01
4.077916265728850354e-01
3.715732116011941089e-01
3.265070834833981306e-01
2.390123147914487434e-01
1.678883729888473453e-01
2.144472251852066191e-01
2.287005746486308611e-01
1.244051694975222139e-01
4.148406006874720553e-02
1.256663235992681871e-01
1.222236342466899023e-01
1.231239899276609651e-01
7.715093258040667257e-02
6.440723971622150379e-02
1.434157674263423221e-01
9.552976681199386311e-02
1.001099504580875987e-01
9.744069729465960894e-02
9.307278306872446283e-02
1.218913664861748791e-01
1.371812897127720754e-01
1.254243404568517739e-01
1.182508984764730764e-01
1.445065943733150893e-01
7.297669257079347771e-02
1.411505556848382248e-01
1.241379012754025707e-01
1.712265583636871924e-01
1.711622486775911944e-01
1.506850746714354650e-01
1.830105497002458281e-01
1.759281059317138185e-01
2.308701580304996781e-01
1.523242421672121039e-01
1.854532883292438761e-01
2.167956218843043459e-01
1.651502521014507896e-01
2.179063163343459564e-01
2.061264037907095947e-01
2.263272644966861369e-01
2.470579832941389442e-01
2.809073112226192492e-01
2.177560611261415979e-01
2.696240915833849616e-01
2.568317117404316785e-01
2.692805552427462445e-01
2.530592310665737976e-01
2.969500949215241326e-01
2.558432314483234382e-01
2.808213208906284453e-01
2.510104960786119221e-01
2.027866905221413218e-01
2.176794721357503126e-01
2.486400103771380099e-01
2.754018649904791949e-01
2.749334519438174640e-01
2.730183935516166116e-01
2.448904018794268445e-01
2.907779699671321216e-01
2.908209066123688680e-01
2.554192175459857328e-01
2.331987391005272969e-01
2.327545656571547439e-01
2.043670079483709823e-01
2.751949604428175489e-01
2.283883300707548747e-01
1.755939222474868777e-01
2.301334375067755622e-01
2.331629364520899916e-01
1.598688678811708841e-01
2.378562280594793410e-01
1.915803093999418338e-01
2.432851933079067108e-01
1.715910594424291391e-01
2.023011712021077213e-01
1.752136381392729314e-01
1.737278158539777295e-01
1.906901882192937325e-01
1.458321645423807100e-01
1.457704954820351895e-01
1.004750617892711251e-01
1.463809152810811309e-01
1.512079802077989088e-01
1.326247197845961678e-01
1.401337721131371561e-01
7.538946530175916205e-02
1.325438413577629260e-01
1.084991534627757770e-01
9.680323600125709249e-02
6.921601016722983557e-02
6.010294736813857203e-02
7.291382257652809229e-02
3.568981705092663659e-02
7.879223740184145008e-02
5.392577153823134573e-02
9.182705343545066734e-02
1.320435064942907522e-01
9.199848429188992038e-02
5.077928416840066239e-02
3.092325054445167060e-02
6.049618406371651963e-02
1.021980274762954166e-03
-2.588697639925502392e-03
1.335618257688424640e-02
4.235762821825952984e-02
6.943840541153688262e-02
9.722733056638521720e-02
4.734925509415738309e-02
7.492645914798490292e-02
4.902461875882359321e-02
1.898273181788662223e-02
3.473998274888721871e-02
7.106363379346897213e-02
6.753204647196761612e-02
8.596176868249566505e-02
-1.791284611867294263e-02
7.327557509957997872e-03
2.503498994289182072e-02
3.579038763850683758e-03
4.103458377302662136e-02
4.127230412561181533e-02
5.354024739910799580e-02
4.324330056571319691e-02
5.399250713653355738e-02
5.025150739420770896e-02
2.219684166343538489e-02
2.760813696757410257e-02
6.912629172677212108e-02
3.258520045538662591e-02
2.776057296041330169e-02
2.649461719302396989e-02
5.897550192135169594e-02
1.197180385860537044e-02
3.739846029904947411e-02
7.202521275502481168e-02
2.820129181275624411e-02
7.089483608050911601e-02
2.183298525161573786e-02
5.603780298960564510e-02
5.266748599451416546e-02
4.359873698744828191e-02
-9.021882773861747418e-03
3.813765376276131991e-03
7.638816248412214072e-02
2.509864655705647263e-02
6.399668962373850079e-02
6.386670145150639966e-02
6.702671866358300701e-02
4.247854021488896292e-02
9.637140184909459562e-02
5.330522089199474234e-02
4.332963747957704892e-02
1.112921351862018460e-01
1.136675887706528054e-01
1.149199917463231968e-01
1.247245472101679853e-01
1.392659947814146315e-01
1.298031550964616199e-01
1.741377770641937828e-01
1.855787129840601180e-01
1.232276232289447188e-01
9.947521100492376367e-02
1.165210836452384435e-01
1.245960674047733030e-01
1.550962087928462463e-01
1.821150326825667076e-01
1.696689848716603499e-01
2.032235000993098117e-01
2.096103437738507935e-01
1.362843302430693515e-01
2.174018522176777435e-01
1.854474566357633691e-01
2.027570855603436917e-01
2.512861922695686090e-01
1.895070000455748860e-01
1.562306063076368823e-01
1.688511459937357684e-01
2.188244986053537733e-01
1.842946146490019865e-01
1.780808455949371150e-01
1.661240204487379746e-01
1.574379678257231407e-01
1.598809129936991091e-01
1.895155579113541322e-01
1.559074659947247143e-01
1.964551224687891562e-01
1.786156122445793359e-01
1.308218667941011548e-01
1.264565834438613479e-01
1.813094622324999960e-01
1.328586369275624457e-01
1.583689873483885568e-01
1.262652047112572395e-01
1.614454832208352675e-01
1.909533223860322704e-01
2.414861818252138081e-01
2.593911239512520228e-01
2.724120396850293058e-01
3.796526862388657220e-01
4.061844562606268250e-01
4.673095923334618651e-01
4.999738847778489315e-01
5.700537612497805773e-01
6.793385664425449777e-01
7.842998626155779363e-01
8.185805945310404841e-01
9.783966194098531188e-01
1.040882097780580828e+00
1.070217258548215700e+00
1.079793304961653266e+00
1.183454918473019646e+00
1.160036748907749438e+00
1.198523033901487844e+00
1.185423790734066118e+00
1.122988032718331697e+00
1.039091384385278261e+00
9.753887276516171045e-01
9.120931889539243276e-01
8.186942618614133638e-01
7.051909334244164107e-01
6.313120105999817655e-01
5.889905234380422572e-01
5.038971796575508755e-01
3.919238330054525266e-01
3.280772864852181669e-01
2.998676056960126735e-01
2.343299088268631647e-01
1.778489068981668475e-01
1.235145928018024919e-01
1.877421994433688679e-01
6.727767821557689709e-02
1.942744549059169101e-01
1.174723699475001132e-01
9.074551709583096593e-02
8.214658874483342366e-02
1.462617311640848627e-01
1.128232961207479845e-01
8.164368489013251740e-02
1.266343291875504096e-01
1.283339803144157576e-01
1.082858690167436688e-01
1.185950612199244136e-01
1.437082846582425355e-01
1.719982397627986270e-01
1.482744215043852454e-01
2.198662304668846657e-01
1.785578213532130198e-01
1.474585086840912163e-01
1.830893608353344748e-01
1.755696669210927152e-01
2.038347674400829146e-01
1.839529820209145072e-01
2.359199038717855468e-01
2.429967762323402003e-01
2.526491029469249971e-01
2.095178227051862074e-01
1.839133106068633616e-01
2.377071384261372211e-01
2.568642510567057391e-01
2.695890539096996719e-01
2.362278072848572885e-01
2.275879211965445570e-01
2.493532926763372681e-01
3.151731275179993075e-01
2.115167294257147834e-01
3.068844010670441769e-01
3.020042499062942642e-01
2.762044171088017253e-01
3.035074756751963143e-01
3.273627266873332387e-01
3.235373395136186270e-01
3.349959044852857670e-01
3.193859505026696022e-01
3.012838905477016604e-01
3.064437603937494314e-01
2.787179907391111322e-01
3.335860148220807786e-01
2.816268197714564270e-01
3.192818929050383892e-01
3.104983805104831740e-01
3.448576428057073540e-01
3.040881829673612868e-01
2.253663923144565429e-01
2.942408216889044192e-01
3.138488077950491451e-01
2.943607332268982080e-01
2.744462057177995407e-01
2.221020077056965469e-01
3.088456370824366193e-01
2.047682566938704984e-01
2.229850208801953948e-01
2.412927483723566191e-01
2.086452666891651653e-01
1.707037691002481761e-01
2.057869128556648608e-01
1.815609698062621846e-01
2.076828841826099947e-01
1.756426778970726632e-01
2.364200987285108302e-01
1.261764047914857301e-01
1.788399721648059604e-01
1.498907430728590728e-01
2.255077187603635736e-01
1.208965358226733872e-01
1.647623633341989968e-01
1.269619482930277043e-01
6.491504243113387085e-02
1.634935696475793565e-01
1.215846194348363662e-01
1.756780802265731634e-01
1.058536731531602992e-01
1.165154261011609182e-01
1.386777444207910603e-01
1.500692456163266464e-01
1.151012079145022765e-01
1.652051764426610003e-01
6.577370658482595278e-02
6.058061270044164115e-02
7.252670985620457422e-02
6.683143317556561325e-02
1.481197861999553056e-01
1.134145004490698522e-01
8.419847806840508042e-02
5.342360582461877505e-02
9.305563881613201915e-02
7.116400014567432486e-02
5.786269691035354074e-02
3.799500590006509720e-02
7.267579317024036589e-02
6.105961105654786336e-02
7.029872746738563549e-02
2.771726226929484282e-02
9.472085489867879127e-02
5.349364424269820867e-02
5.284205445010514701e-02
4.757379005541323425e-02
4.295214576270007384e-02
2.738447919472644307e-02
7.244828747972800742e-02
3.679241687370418679e-02
2.484374548338647709e-02
7.289836357546150558e-02
1.006376382753368104e-01
6.454591855304581127e-02
5.615999702992160308e-02
4.685691549900680014e-02
5.976388589699857534e-02
7.194510858058968117e-02
7.187461858980813412e-02
5.926111253098619025e-02
4.247009550721093929e-02
8.238747606768520582e-02
9.087482581225139744e-02
7.971802525871546363e-02
9.969173456701851954e-02
4.992088789379985764e-02
8.197207943821774312e-02
6.755889523348322656e-02
-2.835419944583063290e-03
7.378499334350398231e-02
7.017929010160381398e-02
6.750916335004356061e-02
6.575447895843541946e-02
2.463796473555537186e-02
2.766161506571275866e-02
-1.812620242750760668e-02
4.820525436478254738e-02
8.161610314666645216e-02
3.327581492563126686e-02
8.948109469335924215e-02
7.862968264462995294e-02
8.709624648057964769e-02
1.216186702599312552e-01
1.473728774326551194e-01
6.260179744747465524e-02
7.334038809062613795e-02
1.169881159894615996e-01
1.189345961606569774e-01
9.108832163141122873e-02
1.134813887160864287e-01
1.274434491890268639e-01
1.341927426170870241e-01
1.442875034145248148e-01
1.856991627198726347e-01
1.510350203355032561e-01
1.446200287445945643e-01
1.239567263982651740e-01
1.552089493078360194e-01
1.783025322417274017e-01
1.909908566285763165e-01
1.668196345717024021e-01
1.485219591652853222e-01
1.370556726296807970e-01
1.640724256492490651e-01
2.126686196994646005e-01
2.401329035715651650e-01
2.175348265813567272e-01
1.811713726541835934e-01
1.748937760858845780e-01
2.184997939808324963e-01
1.680999959096346474e-01
2.022931905887752624e-01
1.681441184594702765e-01
1.420116742923849817e-01
1.847157121738901564e-01
1.554853984676815015e-01
1.192873239926438567e-01
1.918767576097680227e-01
1.537566629147023300e-01
1.856291730768976078e-01
1.746858022174986314e-01
1.097918578656566918e-01
1.221431336732793915e-01
1.413638070549604886e-01
1.723396205111269452e-01
1.470264445450870094e-01
1.909699722541184086e-01
1.536448475705067818e-01
2.539953856139731680e-01
2.974885638850354730e-01
3.139018713398432081e-01
4.163056521017185485e-01
4.354840415002063647e-01
5.505199897240328211e-01
5.784172947910664053e-01
6.415708604573203688e-01
7.362778778199303709e-01
8.194454403722590818e-01
9.212528711314976748e-01
1.009817443057997366e+00
1.090798804788753795e+00
1.090772723658024912e+00
1.116880708372322673e+00
1.174740954801013260e+00
1.108104053438586423e+00
1.079026805733967143e+00
1.083785459383497241e+00
1.005311555422526704e+00
1.021660844427952464e+00
8.579216195559746794e-01
7.704240318330838333e-01
7.077149950801503442e-01
5.845239206746882799e-01
5.672205088511782511e-01
4.169971055709046359e-01
3.801471195880798959e-01
2.870835792463942715e-01
2.414932752402659255e-01
2.197140277638254258e-01
1.809455568086484611e-01
1.707131072954606310e-01
1.377376760359536045e-01
9.927915152111460584e-02
7.276038405338504378e-02
1.182788075206099021e-01
6.663891412460358488e-02
1.190808440390703771e-01
1.242255595742090962e-01
1.280796552219259088e-01
4.171441864994569759e-02
8.749215057402412454e-02
1.031755780179905574e-01
1.208058855875643878e-01
1.118058487023943365e-01
1.384594782420024150e-01
8.364431285525181226e-02
1.568946046491614676e-01
1.113472497309331011e-01
1.701269362715636113e-01
1.995395826954129981e-01
1.577319741497814343e-01
1.845952192264573855e-01
2.243976962443370027e-01
1.303701809831854797e-01
1.487563812340117475e-01
2.024529428890247118e-01
1.704332299508101445e-01
2.162228063929279021e-01
2.267598248057135224e-01
2.219077166364644693e-01
2.409316634891375541e-01
2.022464089989963743e-01
2.459650109792593242e-01
2.133991201103079272e-01
2.682657800054917274e-01
2.640647382072937033e-01
2.066799685493378169e-01
2.950159039237255643e-01
2.741623206353751563e-01
2.463903308524474645e-01
2.803666095156994165e-01
2.392568159045827536e-01
3.385576151877118800e-01
2.896791715278272394e-01
3.269855956514592377e-01
3.033408119812578407e-01
2.733396586426590225e-01
2.925609542551867448e-01
2.727627114652977358e-01
2.890925306190971211e-01
2.559692494824841180e-01
2.378522666420181675e-01
2.785654824299158561e-01
3.312090020670545032e-01
2.430303685333548014e-01
2.217955726223978519e-01
2.324643887663162822e-01
1.892890236197452003e-01
2.972406960303495271e-01
2.105573469742001713e-01
2.036932908210566939e-01
2.424281667851691524e-01
1.953268619643515058e-01
1.981407820136378284e-01
2.088180185486582519e-01
1.584868025821764559e-01
2.288135998728846598e-01
2.682002660272098105e-01
2.236059255831999160e-01
1.629971807646604098e-01
1.559372102006351957e-01
1.559040484107410418e-01
1.429544970326149800e-01
8.531952535175445218e-02
1.111830452541732600e-01
1.436409278243693244e-01
1.146493934059726744e-01
1.328225353523624086e-01
8.193376772294903854e-02
1.319239972746814871e-01
6.689143666916624875e-02
1.024138842556412965e-01
8.885539843551731876e-02
4.499716166493097219e-02
6.664196543023015451e-02
1.335120631004691194e-01
4.745513799992844700e-02
3.289302660665508610e-02
6.796854938733351559e-02
7.651230335660517967e-02
2.795736755768404511e-03
4.723397469839622775e-02
-6.659615904416483351e-03
2.489379729628703880e-02
1.450501532307520505e-02
3.634604771256828154e-02
8.266493316573843286e-03
1.875586430356377537e-02
3.601109728991336995e-02
-1.443901001668149164e-02
3.254498458523504001e-02
6.381331734367859387e-02
6.465181359509707126e-02
4.205182489971377724e-02
2.822218558235696506e-02
1.238446538981398219e-02
4.264186599890985169e-02
6.591876599155180316e-02
2.941556928198306442e-02
4.857643066725289560e-02
1.481295760547266319e-02
2.607225657533324484e-02
5.395105317088640801e-02
2.439490495952473595e-02
8.072406463021231451e-03
-9.570582049802163482e-03
1.241809753300750739e-03
-3.408117693766759757e-03
-1.020205373279172052e-03
6.410666870136830231e-02
2.834010813536239071e-02
-1.039881944135260389e-02
-1.943754541409102587e-02
2.274427604620290339e-02
1.480320171898588666e-02
1.256752588777175147e-02
3.582293450096660226e-02
-4.177586760645715311e-03
4.817483019067603928e-02
9.029943962959589149e-03
-9.497777640853397041e-03
-8.235940205101249106e-03
3.570419055995335128e-04
4.909093236209011168e-02
-4.357308344189778776e-02
-4.363597977327229871e-03
1.820283672680177850e-02
1.882788312079697671e-02
5.159561740592239626e-02
4.800909508645902907e-02
4.239149890290156569e-02
4.579640256042090581e-03
-4.249602472673022794e-04
1.219792466707692209e-02
3.278854681974529423e-02
7.777577857666702343e-02
7.173194841740691829e-02
2.889272812325274428e-02
1.789609836180218547e-03
4.963369649785445703e-02
1.031947927351309496e-01
9.401797863232988495e-02
9.418073008813458713e-02
6.331440202838767295e-02
1.010353858754796941e-01
1.001142442336380722e-01
1.040997007059527024e-01
1.017489853623276957e-01
8.350065661022798569e-02
9.663412231724230472e-02
1.083176233145881906e-01
1.500335585696020713e-01
1.173440911155041733e-01
1.462440125427604543e-01
1.179647243654926986e-01
1.346726796475216092e-01
1.716810883327768988e-01
9.768447801212577775e-02
1.250309178553988820e-01
1.378170643512024729e-01
1.030314333316750264e-01
1.379118743157432270e-01
1.136391454444937998e-01
1.540253174488294685e-01
9.618143476997458030e-02
8.571496553519708517e-02
1.115331710625900169e-01
1.028165398579721224e-01
6.948177060498031410e-02
1.095249213045286218e-01
1.333283335859965779e-01
1.109106846371595706e-01
1.043826890278338609e-01
9.458515325215241520e-02
7.065748645423385044e-02
4.719740328089448017e-02
2.756063999256159330e-02
1.091920380716160099e-01
8.636459858894185437e-02
2.152334438728813748e-01
2.564551794656553252e-01
2.632545103002641995e-01
2.796864849828158972e-01
3.327453298808601967e-01
3.825651493614131149e-01
4.233524650947702583e-01
5.899738448740762253e-01
6.572574890922839863e-01
7.496049086344581669e-01
8.172925046837485885e-01
8.793322431065256906e-01
9.385786725975295841e-01
1.007606701871381238e+00
1.063276009905803177e+00
1.146893837864652266e+00
1.115423856577054229e+00
1.053101592423272281e+00
1.092745292030652848e+00
1.023676339553872827e+00
9.946744633589778006e-01
8.735689481431019310e-01
8.270714377749869284e-01
6.869994347603752827e-01
6.513216661157085197e-01
6.060218239645511762e-01
4.881273695033124249e-01
3.670905430422488624e-01
2.607848579981223436e-01
2.028606681375363929e-01
1.443241050710575846e-01
7.580987459363000558e-02
1.537455899144103688e-01
9.362295025199895981e-02
5.716202350956632594e-02
4.958067660268083987e-02
-1.036816188984062900e-02
2.804764517527518625e-02
1.050878141207864241e-01
-5.542462905466991052e-03
1.502725427891597049e-03
3.785950393423685723e-02
3.456372648085182658e-02
4.590291815014532761e-02
6.522450349530653502e-02
5.518575633204522712e-02
4.118910634769458456e-02
1.389444367000847724e-01
7.109399349103626142e-02
6.483388410010811065e-02
9.486126445946789498e-02
8.983322792973991167e-02
1.160101704798212063e-01
1.194481414732460473e-01
1.538387998426229142e-01
8.953903363535807569e-02
1.246192641283075803e-01
1.192547736388294838e-01
1.057572969089924653e-01
1.405480615282526380e-01
1.495978428503111080e-01
1.824712644735969613e-01
1.641171747604118769e-01
1.795349847412533451e-01
1.656994494773563198e-01
1.950470256664747215e-01
1.575774408504820867e-01
1.979958878994678151e-01
1.271526869596735498e-01
1.997403160688004664e-01
2.515725809952268355e-01
1.709969226292460120e-01
2.111688016581542704e-01
1.829484217986401817e-01
2.194593760667732374e-01
2.123961218222362168e-01
1.855962312035776829e-01
2.155017121056295448e-01
2.190697204547629728e-01
2.243264339190574608e-01
2.485008609521084100e-01
2.265965200601958440e-01
2.284863475825699708e-01
2.621202273663941207e-01
2.297293670586612879e-01
2.351895597221550505e-01
2.361504517434155348e-01
2.549174597462872671e-01
1.989031649933280521e-01
1.756034617335527348e-01
2.210899255380428252e-01
1.891159397948283249e-01
2.175596092227474743e-01
1.810218480819882902e-01
1.791280626716043600e-01
1.454603291580698898e-01
1.662303562838296500e-01
1.241451391496369572e-01
1.781133298686158883e-01
1.630672206270075142e-01
1.302969927163849517e-01
9.486260812676300391e-02
1.449682950315814289e-01
4.997573543340114860e-02
6.615703462285746350e-02
9.547999408676902111e-02
6.415694172187892674e-02
9.062493499038321021e-02
8.421534011883116677e-02
6.069102886848263406e-02
4.507914860418733155e-02
-3.205120937041456425e-02
6.484842112281738458e-02
3.639674720302594341e-02
7.560717729971280776e-02
6.915796582164471240e-02
5.484373112822103769e-02
-1.436951307191784710e-02
-1.040629211652079056e-03
-1.762095708049994658e-02
1.390788922895597191e-02
-1.883928424308430397e-02
1.748648903996396359e-02
1.006290870280569794e-03
8.390396586118953337e-03
-4.079173287820608146e-02
-1.531709360681343668e-02
1.877652143333474050e-02
1.901116304892206538e-02
-5.047660990440679118e-02
-4.953708348764129799e-03
-5.190901801876458138e-02
-3.278857459623885084e-02
-4.617554374322335731e-02
-4.661276030405732407e-02
-2.581406241550135428e-02
-9.821212371771459448e-02
-4.422611257952079045e-02
-2.935786614516038007e-02
-6.863206409817063092e-02
-2.704318498566969653e-02
-4.547196802396141768e-02
-6.428809725329612257e-02
-2.347019108135803278e-02
2.771603090526086888e-02
-7.435049318022447784e-02
-4.959065724942143122e-02
-6.558637342914347412e-02
-3.579758004583186159e-02
-1.656356518632038158e-02
-3.145618219015254569e-02
-5.159568604894645971e-02
-1.740452784587728438e-02
-3.455685892793006198e-02
-8.776429247864390992e-03
-8.353511403404513536e-02
-2.268748599504327376e-02
-6.415742723117895396e-02
-3.666645275022625827e-03
-9.212058624255962946e-02
2.044259011329341291e-02
-3.414234966893021916e-02
-4.957831892703366133e-02
-7.565751002505949341e-04
-3.593908821039224627e-02
-9.678360359036064509e-02
-1.119216933631105720e-02
-7.122233678565874360e-02
-5.943378044003896910e-03
-1.683596712996532352e-03
-1.027865392091440594e-02
-1.288371054286144984e-02
-1.003961702659109112e-02
-1.978302708857328229e-03
-1.303776582262593242e-02
-2.417943792757829696e-02
-1.095602902152757741e-02
4.268779862840884481e-02
-1.032085554516563863e-02
-3.075581280385589200e-02
4.043908065944668007e-02
1.090989047510200205e-01
-3.693553324210472472e-02
4.606881715905947194e-02
7.782351441618301502e-02
4.326963564252846867e-02
5.879965799274914501e-02
1.722945321542302538e-02
7.041713091549531289e-02
9.402411779235975153e-02
8.816857218785725814e-02
9.402182161710709307e-02
8.009520682034440564e-02
1.262007905289954657e-01
9.770128060240279577e-02
6.936012163840839240e-02
1.467630889953177031e-01
1.128441363185900131e-01
1.199785671733301223e-01
6.537254281315843518e-02
6.874033574356255838e-02
6.869872136367397020e-02
1.169405401626184698e-01
6.830066610754831347e-02
9.237095574816520105e-02
1.293859897018010963e-01
1.464680226604113678e-01
8.573820296539136354e-02
9.439109773573789441e-02
2.605843345960017626e-02
2.584023839783958915e-02
9.186506173926456409e-02
1.256859549814015320e-01
4.851291076889441278e-02
6.112070069798970079e-02
3.708426738985252241e-02
1.835457804035983687e-02
3.947423316528424209e-02
7.087846000986613992e-02
1.233488206159357448e-01
8.614911681212347738e-02
1.181338540355173217e-01
8.340865262157162729e-02
1.786815668003817470e-01
2.172437078071710048e-01
2.319764382158721328e-01
2.872178361660034374e-01
3.606258411493082905e-01
4.018840617984482666e-01
5.602156366933975784e-01
6.251345718106435800e-01
7.428577494142067916e-01
7.571792306737439304e-01
8.366629363271020914e-01
9.514272778837506994e-01
9.815728227542134254e-01
1.072899457311500271e+00
1.048767785211656811e+00
1.033801760332549557e+00
1.074938748500702257e+00
1.016694539584316326e+00
9.455417949473309269e-01
9.860045412560155542e-01
8.735732122416690615e-01
7.555971538429452350e-01
6.870539072418015980e-01
5.910781323733989012e-01
5.009143566179518059e-01
3.861926970369630174e-01
3.802351512159742875e-01
2.500015156477456424e-01
2.367032034903099325e-01
1.606332413688743299e-01
1.483586417153079373e-01
8.812751387123278490e-02
5.864207730472057595e-02
-1.049615193807529323e-03
1.241987658647427523e-02
1.221165455709000147e-02
7.453887987480804778e-03
6.564640229706965313e-03
4.280335742508109553e-02
3.264374842108234975e-02
6.916854211743164726e-03
1.688636737925270498e-02
8.649917253003056028e-03
3.072145720660117429e-02
3.690811727658704910e-02
1.897033848216172353e-02
3.216093206032850926e-02
1.108196260828542279e-02
4.234197180738946686e-03
5.466874840129230806e-02
1.081931301931337158e-01
1.140491302339695923e-01
1.061396681632470473e-01
5.800537995297597171e-02
6.887772738179387400e-02
9.138278700396409993e-02
1.266125443099409553e-01
1.613443472939842527e-01
1.722895033144216659e-01
1.254118227253049334e-01
1.887086545001690485e-01
1.496387572337077865e-01
1.743106484746948237e-01
1.783467761632182846e-01
9.554862918525119930e-02
1.544427461787650224e-01
2.085335288462504821e-01
1.440803241822048997e-01
1.681424177143617804e-01
2.346545310557942299e-01
1.948455386592064242e-01
2.367943960391093450e-01
2.121121159817604962e-01
2.079662174193873947e-01
2.208436455743904292e-01
1.913620037367226856e-01
1.795081850534422097e-01
2.645111190224868625e-01
2.657165564380102873e-01
2.088370089184362621e-01
1.811170234749323593e-01
1.919720833467032373e-01
1.728241562406874765e-01
2.161513006396032499e-01
1.838947837078482583e-01
1.542329978570131099e-01
1.644339038266981745e-01
1.832879327762291788e-01
1.899035052853584038e-01
1.995151958166415107e-01
1.466541014483072336e-01
2.118273408679491876e-01
1.836471437315853050e-01
1.490123228028038815e-01
1.767713537177014183e-01
1.521270635115346548e-01
8.709119173923468571e-02
1.152127836510420944e-01
9.207001933890446299e-02
6.902972050505568058e-02
4.648879849209899828e-02
1.056975164062663314e-01
4.333802793629432104e-02
1.111128067831020916e-01
9.762508068956010643e-02
4.503547893644499478e-02
5.543099392413564086e-02
7.496571426331549715e-02
5.041693530981425364e-02
3.278282128078952029e-02
2.025753785833103726e-02
1.017616665199293224e-02
-1.658232454000925504e-02
-3.072201871796050032e-02
3.153291766567725002e-02
1.120365518545694827e-02
2.338004135985122245e-02
-1.605837962970966051e-02
-3.211174730832987850e-02
-1.692314162784708600e-02
2.944681942073668762e-02
-3.194426665114560859e-03
-5.384414391160057684e-02
3.213172937727708234e-03
-5.112265131864032752e-02
-3.226608771295150224e-02
-5.758062796392657279e-02
-5.337144436001597936e-03
-3.057057270358510409e-02
-7.834681364520412750e-02
-7.253789571801440295e-02
-6.760719913853954766e-02
4.040600185043759923e-02
-4.079370358827679593e-02
-3.835483863064023669e-02
-5.132093248463504009e-03
-3.294083640958106463e-02
-4.586272547937653155e-02
-7.205310489324666390e-02
-4.678216326509372636e-02
-4.230271336210027905e-02
-1.160028422992716995e-02
7.036244447568666682e-03
-2.919868489552794599e-02
-6.387757953093221863e-02
-4.137846314264728015e-02
-1.662635216910579583e-02
-6.756119173840108294e-02
-4.992929093565826038e-02
-3.366878069283094771e-02
-1.623313248598462488e-02
-5.763362294897771826e-02
-3.093269302385537323e-02
-2.056059162923312700e-04
1.945950774370050484e-02
-3.670447894383540438e-02
-8.160945073872002964e-02
-4.400673452120548723e-02
-2.068474205798656249e-02
-4.064132773606168869e-02
-8.150979445179845628e-02
1.268175386831861540e-03
-2.384785641190480948e-02
-5.328092983266496940e-02
-3.276498656095794271e-02
-1.307534734827559345e-02
-1.638593473475146584e-02
-2.806266204063904285e-02
-4.568382069561728598e-02
-2.693188897764947978e-02
-3.299076204346473862e-02
-1.601586808410879886e-02
-8.972180126762426683e-03
1.132895370541064234e-02
4.985154169422913867e-02
2.382518393773562504e-03
7.032989204101149083e-03
-3.825303237473472867e-02
6.784681045886133133e-02
-1.966546901105825640e-02
3.012381887640364075e-02
5.040592766630845600e-02
1.648790160640618147e-02
-2.790505421180554391e-03
9.657031176092335800e-02
4.509284256988155271e-02
8.116048245764095892e-02
1.449940795083589917e-01
7.916619653527520728e-02
7.599514378542057691e-02
8.096032663016294872e-02
8.785873897064633287e-02
7.824123334632192284e-02
9.311394115683981065e-02
1.202444232940255986e-01
1.112373673462296042e-01
1.315719123219434850e-01
1.124660900964324639e-01
9.574124156298025046e-02
1.363061927861258238e-01
1.048996445905016617e-01
6.578133998955335016e-02
5.433797115133526257e-02
1.252291840369594844e-01
7.855989730020153383e-02
1.160375533517446628e-01
1.062543009305347980e-01
1.043361870025472371e-01
1.059217530740344110e-01
6.083223523877696187e-02
7.454864156397700281e-02
3.002779039968234143e-04
3.417254332291961433e-02
1.268576935070027389e-01
1.398576125712086560e-01
6.728799511731092808e-02
6.253065118943570977e-02
5.619521718152604289e-02
7.498348863627327110e-02
7.534345945733417205e-02
1.588292203767097677e-01
1.111219075343109486e-01
2.103149670928752268e-01
2.276263438054383359e-01
2.475813458906883091e-01
2.933579437681985147e-01
3.926244660843464795e-01
4.478227208062938169e-01
5.403802061545057711e-01
6.049275818036039531e-01
7.446777116526954732e-01
8.308731091626385679e-01
9.061955041481667417e-01
9.537544625856706482e-01
9.957344444461537769e-01
1.035323699926894658e+00
1.143985747177025836e+00
1.118503046840757742e+00
1.032018177476521137e+00
1.057222504554261366e+00
9.944080659225486007e-01
9.153055794785585064e-01
8.753332711101072805e-01
8.239332089791966407e-01
6.653527470099649399e-01
5.613012390778540084e-01
4.792464226393078341e-01
3.901604126417295704e-01
3.391652338749594486e-01
3.237829887418262054e-01
1.733128868458259086e-01
1.749947384254378902e-01
1.683729538688226168e-01
8.527342787344997788e-02
5.847228899584755446e-02
3.547803289099885071e-04
3.000271566449125293e-02
2.903297782319219644e-02
-2.203913551968273571e-02
2.818437857539319441e-02
5.274426503384145593e-02
8.610746205740141268e-02
6.052450438382388914e-02
2.670744076713457704e-02
1.103910452946027243e-01
7.052122150136121148e-02
8.589811233200322915e-02
9.248060850016467938e-02
1.136484837521395952e-01
9.948178040341323913e-02
8.294096855146612657e-02
9.119941421822723437e-02
1.164119672705210828e-01
6.112783410077864132e-02
1.126188390187783800e-01
1.404964022809387092e-01
1.143165474620717742e-01
1.336273482581617211e-01
1.522245641825049345e-01
1.432908010786178854e-01
9.616149907188931145e-02
1.716032545299001899e-01
1.928246620584560256e-01
1.929520681813996219e-01
1.983731132265491304e-01
1.128765014113178450e-01
1.456943132693480913e-01
1.806947553791390937e-01
1.936827733216295311e-01
2.242750348904406776e-01
1.941794877737345881e-01
2.264824761562489186e-01
2.421084869836938602e-01
2.504384783212769139e-01
1.943542466292569604e-01
2.020157284550003207e-01
