1.077442762411504384e+00
1.053603844525676347e+00
1.031305076513896024e+00
9.527007816922971051e-01
9.418515116579866397e-01
8.220798141315448504e-01
7.708171891088050343e-01
7.409829824509744922e-01
6.083324429758096841e-01
5.367911331829543498e-01
4.053328560856113150e-01
4.042471930455267537e-01
3.496755959484140197e-01
2.110797597163834582e-01
1.479047125872931800e-01
1.692926038427469970e-01
1.234265032713645766e-01
7.556327343561855536e-02
5.105408401667133056e-02
6.392693678756915243e-02
2.056444220373689069e-02
6.394711379540002349e-02
3.574962753584975256e-02
8.765603869617938360e-02
4.438275823656094576e-02
9.222078070639455616e-02
7.267709074434174077e-02
1.579573377707324533e-03
6.404916730145492065e-02
1.155597751238675031e-01
7.997906474946245292e-02
9.527765735564532046e-02
1.093109749962057065e-01
4.530752455146644375e-02
4.215477442623377646e-02
1.216577780820106564e-01
1.326757005737398132e-01
1.519770024661868946e-01
1.529573850688690506e-01
1.509093061358341703e-01
1.652503737486514801e-01
1.298367840959851194e-01
1.660215273575730843e-01
1.447672167713739688e-01
2.198668679184492825e-01
2.164447768058885557e-01
1.739283274279637970e-01
1.769546240566906015e-01
2.110059277593112348e-01
2.459640254209826959e-01
2.040954546517612656e-01
1.974225536665832614e-01
2.388815668931398573e-01
3.217904202455394436e-01
1.926928686384855038e-01
2.208083982101124998e-01
2.787241685347581210e-01
2.358502972966239619e-01
2.258212752838197335e-01
2.135095834380852653e-01
2.546446348230942958e-01
1.945474519675817748e-01
2.761005606269260060e-01
2.686739313000311435e-01
2.413844754863812836e-01
2.473678481842872534e-01
2.086311428806222890e-01
2.457869126983696362e-01
2.366301880902436927e-01
2.127880505105681497e-01
2.836611770859335246e-01
3.068638083745373057e-01
2.348935202903146557e-01
2.187812665002492885e-01
2.173744759427870543e-01
2.171080261876530970e-01
2.330507488723803367e-01
1.804807331109561930e-01
1.941186136209282487e-01
2.321006804023398040e-01
1.814318641843956637e-01
1.687398515599915771e-01
1.921781920182649428e-01
1.988218257719323590e-01
1.418283204281689802e-01
1.968207893507445405e-01
1.381515100795626672e-01
1.125332224095675349e-01
1.914539843014325116e-01
1.605166562797239738e-01
7.926157571687178494e-02
1.327677453364345117e-01
1.432814331753429482e-01
1.035415007451503111e-01
6.964236177876112488e-02
1.211691330787982301e-01
1.403556226002577734e-01
8.069092352839268845e-02
7.888272208772185989e-02
3.467142339956161279e-02
5.891091886168723507e-02
3.087033113879308899e-02
2.601819107731216316e-03
6.071025425813673937e-02
6.878787470702268925e-02
3.725969547668303572e-02
2.474342577315765540e-03
1.370389487724191224e-02
1.383158334232887504e-02
7.884046386648424498e-02
6.376390771384547740e-02
4.201594135527446372e-02
1.111424987697569311e-02
5.840778563117948741e-02
1.988537077031679243e-02
2.109823432605790333e-02
-3.094671329223147582e-02
-2.369847907748662275e-02
2.554140861870230622e-02
3.257275310123854128e-02
6.042343702206595668e-02
1.569903145097484298e-02
2.159727165798267651e-02
-3.648846064679947543e-02
3.143494364601200075e-04
-5.112852549499061899e-03
2.656510499423099178e-02
4.892709813023202181e-02
2.378216655072536503e-02
1.532640050195292411e-02
-1.877761141847911208e-02
-6.764157203558579523e-06
3.336018647831362482e-02
1.907283297310613177e-02
-4.357488445205058569e-02
2.608209667515891741e-02
3.412154288471404284e-02
-1.974584791162430422e-02
4.150235394809353301e-02
3.622247021407870582e-02
4.722158548915203480e-02
3.431284839810762322e-02
4.885147340181848763e-02
1.748101067867362940e-02
4.110368156298449538e-02
2.162507222531244791e-02
2.282309687249330088e-04
6.584444172222880809e-02
3.124926136955270134e-02
8.332708774866255663e-03
1.043684137512575043e-02
1.884777489177413834e-02
7.380597019093351058e-03
3.119741954496440400e-02
3.175347495365615780e-02
-9.722314500664405029e-03
-1.663338850000029012e-03
-7.551229229565244866e-03
5.325769982841734029e-02
6.017753327291620880e-02
5.498420149118334044e-02
6.894252040392354064e-02
8.402968965902747611e-02
4.836876845509292810e-02
9.006402206736055516e-02
4.712819608869332766e-02
8.424051645737704042e-02
5.781854545855157068e-02
6.389142028471221646e-02
8.473878584719174434e-02
7.517631592569518073e-02
1.172809455136120116e-01
8.453877683676323807e-02
1.272343782575195426e-01
1.672586177878177816e-01
9.403236567084856390e-02
9.413134460071091725e-02
7.540222953273117978e-02
1.097553051301970728e-01
9.007950333664234421e-02
1.294491233634662841e-01
1.728101643711648372e-01
1.824230843394949730e-01
2.009746043139554184e-01
1.538488571961248996e-01
2.038876692416156933e-01
1.441543697788546241e-01
1.666970664009155279e-01
1.761971990549686118e-01
1.752017123824035905e-01
1.456142393145190284e-01
1.862942295419161842e-01
1.719701238729840764e-01
2.251139885223618076e-01
1.593160484968509372e-01
2.101179561885452574e-01
1.105325767927896052e-01
1.956307204337192074e-01
1.661866937838600844e-01
1.753588290080390910e-01
1.917573848286106275e-01
1.213698620940016626e-01
2.143621484520730480e-01
1.539573771513005340e-01
1.257648707092900442e-01
1.616259382014315626e-01
1.603275067399059228e-01
1.378402739660148923e-01
1.017595585444601436e-01
1.956293352845533684e-01
1.616532968749560262e-01
1.226603441514964588e-01
1.447243620448053769e-01
2.121604723630405587e-01
1.871378668564526448e-01
2.616826266424122638e-01
2.510192504540933456e-01
3.206569165832445778e-01
3.796956910985171407e-01
4.833364961816709604e-01
5.157252042337887588e-01
5.678973296921706604e-01
7.415607668030239630e-01
7.934707770064263199e-01
8.578516828033431185e-01
8.891802270946076447e-01
9.919953852650444937e-01
1.053313254459654846e+00
1.043919233036053384e+00
1.147981388620100462e+00
1.125525440713200043e+00
1.100294583864216413e+00
1.042680569180314487e+00
1.095505532925829639e+00
9.886435109587219383e-01
8.702807045569918021e-01
7.435573349791932962e-01
6.789217436442680498e-01
6.388099666603940241e-01
5.813329647841523062e-01
4.734511064723186946e-01
4.100076928909706098e-01
3.395389877530685663e-01
3.085949399068048105e-01
2.019254798762011027e-01
1.555426508611810199e-01
1.643720850178903015e-01
1.400476175921241961e-01
9.647872888551382864e-02
1.648041310642465729e-01
1.473055143791632826e-01
5.195149543047829915e-02
9.580908719211328473e-02
7.791628905094710733e-02
8.770013686970064282e-02
4.749404027349894003e-02
1.179188242814955545e-01
1.320177380603071160e-01
6.392370754847981340e-02
1.284970436390231452e-01
1.398529815522366881e-01
1.332135241167936024e-01
1.259992507861734390e-01
1.647371918779688693e-01
2.018684016897593081e-01
1.320903011087124768e-01
1.022241726547105656e-01
1.865309650751783010e-01
2.059818663491670143e-01
2.037494616514177181e-01
1.753462578165794206e-01
2.240320990167003479e-01
1.724320078507376730e-01
2.724132230183768932e-01
2.395895864265464581e-01
2.345866350335730210e-01
2.436851876350999424e-01
2.544931698257457686e-01
2.310832831354046879e-01
3.037875065065302471e-01
2.164718645682035258e-01
2.835397878766150459e-01
2.302355011322160250e-01
2.574348309531399592e-01
2.037530759820788406e-01
2.636500647613132520e-01
3.063112098584194198e-01
2.684293777823648086e-01
2.858250678954025181e-01
3.140654855328157691e-01
3.127259960497468239e-01
2.545460170361683039e-01
2.675976140527150382e-01
2.765903367914679944e-01
2.674745301786307095e-01
2.702787255430676439e-01
3.259289427337119793e-01
2.633551557084150563e-01
3.427937881427839950e-01
3.219640352752538570e-01
3.234835186943548768e-01
2.864838271145971338e-01
2.648829060710097827e-01
2.407564674759263279e-01
2.067153975409877220e-01
2.470425711571340444e-01
2.955400011167291230e-01
2.688142437464991485e-01
2.407514796560812076e-01
2.452939537330369180e-01
1.882661989576222272e-01
2.402493552416702371e-01
2.145362481108899488e-01
1.923073623633212437e-01
2.334966806931958461e-01
2.006395832313147831e-01
2.378716578877469734e-01
1.707445494760239102e-01
1.685833719863879809e-01
1.687430027275702016e-01
1.651608133870515749e-01
1.787193487222138444e-01
1.932271850978153627e-01
1.191884744307562805e-01
1.249746976316856162e-01
1.828624401318061643e-01
1.410800511694343951e-01
1.480555266393865088e-01
1.317096451668198775e-01
9.007309905903410074e-02
1.259669639709560252e-01
1.297235246179684887e-01
8.180015624867895130e-02
2.302682083498288484e-02
1.449705096683328587e-01
6.616247593611603028e-02
1.234401165433132580e-01
4.381791195065629779e-02
5.736254744058646993e-02
5.273766214285782739e-02
6.006747041064569581e-02
4.436802361254794935e-02
-1.606124911239537045e-02
7.160038122256889848e-02
3.687470141944074187e-02
8.409458298560706924e-02
1.167339580964192464e-01
1.146169076941661868e-01
4.620177797979601458e-02
3.103561261947018757e-02
4.279174262842092014e-04
1.250008064022490317e-01
2.528928731087303622e-02
8.176736157780742364e-02
5.927185496559392308e-02
2.158184406094935254e-02
5.842220479159356689e-02
6.625186139584310352e-02
6.528778636686373427e-02
4.612105255453676639e-02
3.862612783431063762e-02
7.753585011785335546e-02
4.129077009000017839e-02
8.374143087516489059e-02
8.245211567435389854e-02
2.317841903371675727e-02
3.845555688263185140e-02
6.982718237797463923e-02
5.035827261929593651e-02
6.487569429338038707e-02
1.219133971289714652e-02
2.847832638539271252e-02
3.250857085029707633e-02
1.015149329525268096e-01
2.482501839989390696e-02
2.683307892631327934e-02
4.064010158814458651e-02
5.265515834886811547e-02
5.847841769964663011e-02
9.286787139823204917e-02
1.844395638357412132e-02
5.361420912837130959e-02
4.908364469095898019e-02
5.980865612950427707e-02
1.672498467449168996e-02
4.885146490788173923e-02
3.747400202989283058e-02
6.375339991427746156e-02
7.152167694989422508e-02
4.832696668881722446e-02
7.395435895201070420e-02
1.194754125189624594e-01
5.320813643667916815e-02
6.765340182064916164e-02
9.366100876523564267e-02
3.212876639550302227e-02
9.593149616926262280e-02
1.091380404407525928e-01
6.554206394981054729e-02
1.278949310476855117e-01
7.451087423299966594e-02
1.319660620348175328e-01
1.084277873046943230e-01
9.984995250690648083e-02
1.291026768339523512e-01
1.450982429372687510e-01
1.333828490316359972e-01
1.343699371629318295e-01
1.568132755473946316e-01
1.361004811488017718e-01
1.582785870189832855e-01
1.617464859252551734e-01
1.647629550548616317e-01
1.770371880824447575e-01
1.766294796004433398e-01
1.684298367297840937e-01
1.949377648666716922e-01
1.738074198115240332e-01
2.060088593093769849e-01
1.936021785127155503e-01
2.081001208471438824e-01
1.714411557273519682e-01
1.930214709625622249e-01
2.141896798312955263e-01
2.138110713586115208e-01
2.246548232998984707e-01
2.275475823684347809e-01
1.700160614236769230e-01
2.385644465740167364e-01
2.112131637124142480e-01
1.529050705175409586e-01
1.868871141745742370e-01
1.876174151038964011e-01
1.099777346846117498e-01
1.383390012127383717e-01
1.740689252999177150e-01
1.902317665791496970e-01
1.282906272377533075e-01
1.736507963169840185e-01
1.723618984686427213e-01
1.417542032270125985e-01
1.037870110265171064e-01
2.061663910442231018e-01
2.026974060478306527e-01
2.470214600010718353e-01
2.786039407090483699e-01
3.631775369328533731e-01
4.006126918952825910e-01
4.578934225801976066e-01
4.488511617286333188e-01
6.322461327493708039e-01
5.890627316126076929e-01
6.905133542837023075e-01
8.320993325681877995e-01
8.736574063872613038e-01
9.464712528468554043e-01
1.006249162273535225e+00
1.065973555908988679e+00
1.080815865792918329e+00
1.114473493900829837e+00
1.098280022814887902e+00
1.071844810523427061e+00
1.058216169797470130e+00
1.012270030652011599e+00
9.368145226051411978e-01
9.135772183456106754e-01
7.910018165130671131e-01
6.992186301843521523e-01
5.969125816631699610e-01
5.283152764982044225e-01
4.151806467315868332e-01
4.325098521316338429e-01
3.344793470481959297e-01
2.280158154050990205e-01
2.841567956550536955e-01
1.920664596781192779e-01
1.514046594388349098e-01
9.509706899311856643e-02
1.111157947334276697e-01
9.423288704577581498e-02
8.819962657317424737e-02
1.436321594252008838e-01
1.507156898026950076e-01
1.347793205438701236e-01
1.103326952528323468e-01
1.909629501972045784e-01
1.201300277299396091e-01
9.809911549937422315e-02
1.325779038994028824e-01
2.093654291682240931e-01
1.610499860378062642e-01
1.564228264965053516e-01
1.194391095888354404e-01
1.228225913578323558e-01
1.566416484331662473e-01
1.087071602885475441e-01
2.202778212967053673e-01
2.116029351337055942e-01
1.802059196334454549e-01
1.773605835656673069e-01
2.168776624258244023e-01
1.771835378321993115e-01
1.709355117144042147e-01
1.685347679326768544e-01
2.307752372592964674e-01
2.127233721299099933e-01
2.414194018323124746e-01
1.953145885953295746e-01
2.065631986413345167e-01
2.199051990753360108e-01
1.962354309081169867e-01
2.327189659334103211e-01
2.321063454773465984e-01
2.473479181319772902e-01
2.407901360609309704e-01
2.232270175379812149e-01
3.198132878501882548e-01
3.122920594993321974e-01
2.761123415868885766e-01
2.917109180542010738e-01
2.687442491764366892e-01
3.197037571328207872e-01
3.097553146999446616e-01
3.288033646570193702e-01
2.647586359911662246e-01
3.017205840616868362e-01
3.109419088526202413e-01
2.955148778767195394e-01
2.769257270836792406e-01
2.132199244564976226e-01
2.799864852731542286e-01
2.557818508925467360e-01
2.996996005410881847e-01
2.544671686494627827e-01
2.822924789137086221e-01
2.812717727097426845e-01
2.519756678930902827e-01
2.726016735650536038e-01
1.758702286795224556e-01
2.345260564826806560e-01
2.039067852319302321e-01
1.916519923995249897e-01
1.479270687078328983e-01
2.300297640598821802e-01
2.010349323656970000e-01
1.993641950597434820e-01
1.798386026972247365e-01
1.615943961918639704e-01
1.453354096321980704e-01
1.381227615948460441e-01
1.126027353413023846e-01
1.528078222153243237e-01
1.622199743295594521e-01
1.721943059735257520e-01
9.590435969279086093e-02
8.972774945276267011e-02
7.617877614705187428e-02
1.465853332453804503e-01
1.106683131894790895e-01
1.041958356935726304e-01
9.817277953470933405e-02
8.708883501838965424e-02
7.601817308817562791e-02
8.828831330788411424e-02
1.040995232298530110e-01
6.038425394790884748e-02
9.221040791506418532e-02
7.501669986056616612e-02
6.693034779427718683e-02
9.645936945589078659e-02
1.284313615032940947e-01
8.184482067004553163e-02
3.940169793873080778e-02
4.971181701059340652e-02
7.927195563154348923e-02
2.961655329120291974e-02
3.231997236772787135e-02
7.878795080009094037e-03
2.387009126278293036e-02
5.834242925922211720e-02
-1.771896695274850428e-02
6.343308773269404344e-02
6.364513258944680396e-02
7.974198555990345827e-02
6.035608858917859698e-02
3.759561669984666510e-02
-2.283557086330167962e-02
-2.070540959879059104e-02
2.046644818484467943e-02
-1.497576722834798729e-02
5.146374062919668868e-02
4.013040514571186712e-02
3.216940780434460884e-02
2.224725707270514691e-02
7.793615446783981604e-02
4.737443007832901898e-02
2.187734776572491588e-02
-1.456758222067137953e-03
-2.115356788424501561e-02
3.160130971965485758e-02
5.862172378892500924e-02
4.104280629639318889e-02
-8.593334175038158662e-03
1.229750648741673169e-01
-1.269739657377020464e-02
4.849396742794027937e-02
7.530546934803722392e-02
3.970986529515733998e-02
-3.469550654348055319e-02
2.424731608481501058e-02
4.867624482317409879e-02
1.745099381768944885e-02
-1.580985209074252731e-02
-8.088128445292778329e-03
5.288377487573424351e-02
3.997206231965182849e-02
3.682831775048026751e-02
3.791978732830728754e-02
1.077759873739790077e-02
6.989321747619509084e-02
6.917036908157894737e-02
2.214555581518875063e-02
5.273856412168368563e-02
6.769105348082801732e-02
1.391538368437112393e-02
4.158619615266410247e-02
4.020404949361307961e-02
5.689773765642592435e-02
3.077072968908616674e-02
7.401520861555271891e-02
7.855808702508777774e-02
1.066448192041166976e-01
7.817144888307972495e-02
1.239446563122427875e-01
1.315449728727141054e-01
7.671380725093572550e-02
4.930742196995771542e-02
3.726132499730466785e-02
1.385643993290492371e-01
9.971018892167317349e-02
8.447282675666392682e-02
1.128312746385443377e-01
1.010434845974738649e-01
1.675761701965717831e-01
1.173381936832269268e-01
1.593266361241790219e-01
1.746110684668890634e-01
1.344458998436917352e-01
1.582273266789941679e-01
1.781432369256113202e-01
1.151331536536018690e-01
1.113921135669910106e-01
1.782315595329461710e-01
1.610102069603577546e-01
1.219636807696156261e-01
1.542932614103425526e-01
1.881692840251523446e-01
1.160949585680956658e-01
9.183686766353077457e-02
1.078909423052223510e-01
1.334119105773911851e-01
7.822614960206909773e-02
1.015609538535930945e-01
1.168503064466287628e-01
1.390392737864853678e-01
5.576811718432444359e-02
1.200538435460927200e-01
1.083369578636468183e-01
1.078548749665469292e-01
1.152381433344054629e-01
1.822950516779032748e-01
1.318075219241266749e-01
1.550333845866703475e-01
1.462109591116005358e-01
1.327556280252321919e-01
2.041401019822123575e-01
2.477742058010162229e-01
3.144796109285390995e-01
3.937136533930809534e-01
4.570658245657544527e-01
5.700899000799568572e-01
6.308139622432921145e-01
6.641492886045924360e-01
7.901608927813553729e-01
8.620752973372375338e-01
8.875189819117522694e-01
9.827994606262097088e-01
1.026199765389615326e+00
1.029247624243633030e+00
1.085470865766851478e+00
1.087572678946830074e+00
1.010259945499213829e+00
1.022508825074192940e+00
9.476098631508463876e-01
8.701973364039182757e-01
7.889106797071683275e-01
6.596186104237140579e-01
5.888308534190831445e-01
5.495571405132879672e-01
4.486573614035063162e-01
4.324337920721823547e-01
2.608568764501471571e-01
2.619630061465861859e-01
1.915461524698254814e-01
1.976756070060483039e-01
1.312683822179786242e-01
8.741517888502417510e-02
1.092630476916752191e-01
9.427416564019591716e-02
8.037989756579821954e-02
2.689887466517994555e-02
7.169767834409815355e-02
3.697425869640395130e-03
3.893092368066283088e-02
2.856206036951393357e-02
-1.269906506908379494e-02
4.418384635735767701e-02
8.429817548963527973e-02
8.328342009774018784e-02
1.034336473501706183e-01
9.838282941630875633e-02
8.438279001396536971e-02
4.686166958812714584e-02
1.477199338084386471e-01
5.930791747178067175e-03
1.145977917231933152e-01
7.964902860295713927e-02
1.459279872531355216e-01
1.415568986241289295e-01
1.418930466108465072e-01
1.247457299925370799e-01
1.527734253924578900e-01
1.206488000357306967e-01
1.223984745702078880e-01
1.883217533241419162e-01
1.686812744626715599e-01
2.118822331833044581e-01
2.541812206122535667e-01
1.945350771064648376e-01
1.728367497023635679e-01
1.812404653091207463e-01
2.475421465174660052e-01
2.262939366025203680e-01
2.070754150177100406e-01
2.151643654993686816e-01
2.050824672648442204e-01
2.140662196916916782e-01
2.729845627585323897e-01
1.639806630745451743e-01
2.768263193769420760e-01
2.389548093172228493e-01
2.660016462228630418e-01
1.902931256080721001e-01
1.865340350378652812e-01
2.012437154433939501e-01
2.198102981362879960e-01
2.262698991404605287e-01
2.522237888285793206e-01
2.499358214997885463e-01
1.877655175980050828e-01
1.976455809062072355e-01
1.951061516313458699e-01
1.738724944855930543e-01
2.262866625966774570e-01
1.818207105384248012e-01
1.849256522058489449e-01
1.321494709730530737e-01
1.735367135214375689e-01
1.841585557219349023e-01
1.550019870063979732e-01
1.562117512949190712e-01
1.824067757917226529e-01
1.519639494144420788e-01
1.094974666648916989e-01
1.179588298318086648e-01
1.675386351245390371e-01
1.188803336770910685e-01
9.722689299149452069e-02
1.301850499687322027e-01
1.155580696128072904e-01
4.875099973731253367e-02
5.442552612917369442e-02
1.321185184137541324e-01
6.151974516974763330e-02
8.998107216784596851e-02
4.975681932496295312e-02
3.179456391177922642e-02
4.326835517253146968e-02
6.294848263962957158e-02
3.793309131942346202e-02
8.405766917871368427e-02
3.814038428802359743e-02
-3.374916462625157654e-02
3.585749407011550038e-02
5.501921846756006873e-02
3.993331213145441538e-03
7.746933309883104191e-02
4.478092065785109488e-03
6.399380043668100038e-03
-3.116626981113724756e-02
1.032208927484497968e-02
6.223926236502027448e-03
1.754255622246340615e-02
4.755926316054555347e-02
-4.350780618667722532e-02
-1.912296262685235851e-02
1.291889592377869905e-02
4.226348466064350218e-02
7.378194304194014841e-03
2.341019533917038445e-02
-2.359981074303389367e-02
2.212145004411325208e-02
-4.875748278460294294e-02
-1.614786400719253959e-02
-4.006206774153701911e-02
-1.628611458830403133e-02
1.067652569981206168e-02
6.843491609961990796e-03
4.606419667950389929e-02
-9.116332252244979673e-03
-4.021699965512354896e-02
8.528154475526142364e-03
-6.666629614455449326e-02
-8.547516287924628031e-02
-3.087617249137839665e-02
-6.901125864543072863e-02
-2.828640183893600668e-02
6.507723551674879370e-02
-4.712302908275858154e-02
-2.132626192553064085e-02
-5.042684334990348710e-02
-1.295646807165301562e-02
-3.900935076330878937e-02
-5.197561430222571999e-02
-9.773463305508034438e-02
-6.844721164289463422e-02
-2.478804203057907024e-02
-4.664551560829285903e-02
-7.968898845687970300e-02
-1.452022448229033091e-02
-1.332362343280089206e-02
-5.226241122363008140e-02
-1.294953980768940791e-02
-5.073208853082704362e-02
-6.967253188679300990e-03
-1.136458856932511322e-02
1.266378319394079882e-02
-9.107160252879518969e-03
-2.479129410203285977e-02
-3.923223092200489592e-02
-2.454784714643638149e-02
3.770572048487840638e-02
-4.360759683548161292e-02
-2.313838982625507704e-02
3.039018698098738813e-02
-8.750981189072186417e-03
-3.738757223750301811e-02
-5.148946902745384774e-02
-4.665555481575027474e-02
-4.673242733968987345e-02
5.212838406406428843e-02
-4.345051998415386252e-02
4.084894591025222538e-02
1.940210325423522009e-02
6.396468945488680002e-02
5.254228548099675045e-02
1.002673664336333759e-01
6.260166670686709289e-02
4.636839540441050483e-02
1.234103167921037497e-01
1.004798525154255578e-01
1.024046354815903725e-01
8.829596297138553318e-02
1.183686633504018315e-01
1.476275390637263596e-01
5.133209230136041856e-02
1.075262441856052742e-01
9.165457938090124101e-02
1.004770043491987619e-01
9.056681712664568784e-02
1.420259159938651039e-01
1.712961656911277109e-01
1.023567402850278502e-01
1.332874537445406238e-01
8.800766119078429206e-02
1.264190156465214154e-01
7.436863710714747278e-02
1.184463528138182120e-01
1.432580577415948908e-01
2.364572618812819937e-02
9.713530718009585896e-02
9.408485947422998152e-02
9.193273950958349983e-02
8.787830794091647246e-02
5.663283220116357292e-02
5.798586573306329511e-02
5.781083085407433264e-02
7.778106592356470728e-02
6.211506876278373446e-02
8.341627470059687077e-02
4.687424410834179628e-02
6.687724032952127584e-02
9.672257241846865528e-02
1.442100505126924226e-01
1.737782436384250617e-01
1.697093318963104891e-01
2.074088749345324167e-01
2.550696942487721830e-01
3.728754719206907597e-01
4.044084518875833423e-01
5.242405746843734615e-01
5.439099992402420813e-01
6.385671626691874492e-01
7.609657816989401358e-01
8.034598537035311239e-01
9.271346722699103093e-01
9.797699184340014078e-01
1.024872778095303971e+00
1.037935372371583842e+00
1.005849515795657512e+00
1.039531396758266890e+00
1.025670527845123026e+00
9.442253961272591978e-01
9.191380458866171832e-01
8.137547716857371771e-01
7.344751643706666222e-01
6.701473811501137412e-01
6.310371784949062590e-01
5.112273926168608984e-01
4.175330105973136252e-01
3.136665353136086076e-01
3.110875188160457383e-01
2.166170787882744364e-01
1.706751579123735318e-01
1.092329972193057663e-01
7.839744592280398217e-02
6.840750305633391815e-02
6.992644234022760141e-02
-1.969069269326292199e-02
5.684343675587018307e-03
-1.655076432526246533e-02
7.108529306363187139e-03
2.267824600596210494e-02
2.496858641578292293e-02
3.847496273540500916e-02
4.019523467487638724e-02
2.338819989272482303e-02
4.484210084062287272e-02
2.600306761815918133e-02
8.425930097089628923e-02
4.876845369753283338e-02
5.042270245564635378e-02
-4.357587894449066468e-03
7.526243772013735400e-02
7.871647702937045743e-02
1.260349856533795609e-01
4.877285724668659755e-02
9.079756930096100076e-02
1.391225482253289347e-01
5.858801559734282127e-02
8.264877103932111169e-02
1.042449945182033488e-01
1.728994175782913589e-01
1.408701327144506188e-01
1.395520364495400067e-01
1.555945785503511924e-01
1.606003397691694867e-01
1.749977889041747781e-01
1.437646519306080561e-01
1.742173616459892216e-01
2.061033274924509440e-01
2.106700628400325626e-01
1.062694359162728308e-01
1.712172214355167088e-01
2.074471480102648979e-01
2.029170120539395272e-01
2.385060774926399396e-01
1.529507608740070246e-01
2.422417176420179619e-01
1.403142150877539907e-01
1.891117142949330643e-01
2.421162163807723255e-01
1.995330976602612272e-01
2.193515825852913326e-01
1.992461027889094738e-01
1.935966639155943247e-01
2.021089292490846623e-01
2.157095101606086307e-01
1.611119203119769083e-01
2.098349286517763868e-01
1.758369346443352799e-01
1.760776611700293481e-01
1.724851209859573631e-01
1.549987382660091839e-01
1.480151092681064318e-01
1.607956496011907210e-01
1.637137613885765453e-01
1.742194942665004354e-01
1.379768547890770358e-01
1.154231424535950845e-01
1.398254980373898892e-01
1.241001062214994177e-01
1.607596230346570731e-01
1.197975211640362192e-01
1.043941244818800268e-01
7.678851921901802546e-02
1.034570222258642536e-01
1.135117644692971856e-01
1.304571958773907692e-01
7.863744170966072145e-02
5.751484431634788091e-02
3.981022063859328275e-02
1.249804969190682069e-01
3.561860057024537896e-04
-3.019065906089245244e-02
6.513281919095978423e-02
1.147023892666992895e-03
-1.474230084578779382e-02
-1.122150214372850952e-02
-7.028521360591788447e-03
6.153375628251393781e-02
4.112511014875092769e-02
-2.517473101175560224e-03
-9.434138516665627194e-02
-2.778206127084029489e-02
-5.388709107935025361e-02
-2.102294623232716861e-02
6.284166090970870477e-03
-4.840283535099537682e-02
5.261883975489967807e-02
-4.707546052599025782e-02
-6.591725073016059533e-02
-7.235275542769037393e-04
-6.038688027913052814e-02
-1.839727279650915648e-02
-1.142880702531618997e-01
-4.602052112009663576e-02
-2.498001972517412822e-02
9.470810269399082548e-03
-3.402051926868582266e-02
-1.745601590248085574e-02
-3.337823324080624321e-02
-6.247071182806682166e-02
-3.224599129429968347e-02
-4.855750368307939352e-02
-2.803745215526018408e-02
-4.066447205655612102e-02
2.256768989219485461e-02
-6.826298202111921731e-02
-2.698912050426831646e-02
-3.627711306960434978e-03
2.520082143929672225e-02
-1.153608181760380214e-01
-3.142418447224212819e-02
-7.211526742921513244e-02
-2.440907910333115979e-02
-5.181201828649614760e-02
-6.617574284974195309e-02
-3.380758614756813885e-02
-4.284616605555132546e-02
-3.501483822530767481e-02
-6.346749897714290545e-02
-1.033388677208645079e-01
-4.941060145228225869e-02
-3.566208871805682384e-02
-2.543822109738253651e-02
-2.107760112936168592e-02
-2.762666703239799459e-02
-2.917504723249190329e-02
-8.313938555976969902e-02
-1.781231658022314895e-02
-6.124583093469605777e-02
-6.761755015293678672e-02
-4.078795086820938276e-02
-1.173511969624344842e-01
-3.336476495911007423e-02
-4.193538024716406132e-03
-2.769818836819757865e-02
-2.044247142058676359e-02
-3.601210753964507322e-02
-1.744893513028256474e-02
-4.833884182458891843e-03
-2.284566184666450561e-03
-4.167963542312538849e-03
-1.839082239877607577e-02
1.176817315429320998e-02
9.742079828592140056e-03
4.185871393082463143e-03
3.940489967037309749e-03
1.559922833792011521e-02
4.414349633931460848e-03
3.472287553924594677e-02
3.500627251313544880e-02
3.761311704056242988e-02
3.671126698512996306e-02
7.982308154053727178e-02
2.324803576721816423e-02
4.672320128258340699e-02
7.271094287375104437e-02
9.309554194988900466e-02
1.105026856225025111e-01
6.151975776155987896e-02
1.994714446400554231e-02
7.234099688812138662e-02
9.302453180830706769e-02
9.547287437939096233e-02
1.668161619292462539e-01
8.188623515530879526e-02
8.842236372083102369e-02
8.464384496760685161e-02
7.678482222828214576e-02
1.030152959775184618e-01
8.385816856910122130e-02
1.301641872413608070e-01
1.331082832329844590e-01
9.883006802979765748e-02
1.357094821871578649e-01
1.477452666260654079e-01
9.935940129888339023e-02
9.761190632582689153e-02
1.318856844489675051e-01
1.137992637102215043e-01
5.971532318546182716e-02
9.912203631764818224e-02
7.386724727910595756e-02
-8.589867407662044041e-04
1.919760717722527460e-02
8.876321143298157579e-02
5.639200095970141324e-02
2.745349861609104603e-02
4.100722608819613174e-02
9.778956093750429401e-02
1.249501601698791431e-01
1.851505206892131439e-01
1.792457763402677817e-01
1.630247175789053815e-01
2.939426578115241218e-01
3.782738193858700693e-01
4.189250790061603280e-01
4.606274522669056015e-01
5.865584033209758630e-01
6.121041143057132095e-01
7.220001368297106481e-01
7.491671999455351560e-01
8.546960544564499163e-01
8.952872164067282590e-01
1.006226597538338652e+00
1.038001499147111817e+00
1.019625251253626352e+00
1.017170876869858853e+00
1.025586654256402275e+00
9.764841344490416963e-01
9.920197777000618888e-01
9.130535291411849830e-01
7.757168603923197958e-01
7.341986572200199790e-01
6.534554202810808343e-01
5.412558787087742296e-01
4.021799985421083967e-01
4.241236433314342080e-01
2.758669030831965019e-01
2.884239053088550886e-01
2.131861635369911023e-01
1.255356288342864279e-01
1.548638125710679603e-01
1.265839576407797595e-01
3.136251520018048383e-02
5.836488674433918528e-02
4.773840492462822632e-02
-1.726394176660324409e-03
4.966671837799689626e-03
4.068185251358407556e-02
4.147153707713806259e-02
3.938189888356147250e-02
2.369245660445178786e-02
7.253959470864390635e-02
5.211601289904585488e-02
6.858110511322419722e-02
8.101795889360415004e-02
3.347360946115118113e-02
1.135204419740184489e-01
7.749040270401647001e-02
2.806849475829456542e-02
2.980648960334136496e-02
7.292815719351414261e-02
8.773416213379114925e-02
1.207124987301051167e-01
1.308710606700050627e-01
2.824299162640885735e-03
1.503909461982269324e-01
1.070344155552590271e-01
1.339344067560468421e-01
1.658363733691552155e-01
8.550651394928994453e-02
1.826710903383665929e-01
2.208753634825955936e-01
1.688259374012772707e-01
1.533977039540554421e-01
1.695632941488505185e-01
1.610280417298500244e-01
1.909519604768668832e-01
2.077300852762521965e-01
1.937325052092252475e-01
1.989484465560093229e-01
1.758533516542492847e-01
2.282902345900251762e-01
2.372193695418079173e-01
2.183323439453525860e-01
1.978007928819601469e-01
2.374469842563516342e-01
2.170621651111980799e-01
1.767084672045905747e-01
2.326694684658522361e-01
2.241749753489223895e-01
1.988313899802285623e-01
1.970917959455202595e-01
2.650560781912049135e-01
2.226063053672055758e-01
1.976958570322127628e-01
2.041639995864135138e-01
2.270556153308493919e-01
2.077245214767590165e-01
2.203909905978022332e-01
2.419415748149543188e-01
1.983056824113398342e-01
1.810564534149636251e-01
2.051780300204082697e-01
1.149101145255840700e-01
1.409589882247463954e-01
1.667996165825106902e-01
1.714767325684709853e-01
2.110625498114064302e-01
8.301633035734053145e-02
1.369359588046572263e-01
7.191777045801964197e-02
9.414638981752782021e-02
1.650537447244183054e-01
1.195174640500156066e-01
1.608570605543599152e-01
1.561118048301568528e-01
7.882657558095257366e-02
6.634623357952738887e-02
7.242438342798572515e-02
8.382493023248192843e-02
3.154740978312527838e-02
1.135301789098430991e-01
6.797754521283841389e-02
6.020927186064223280e-02
5.100719125492561568e-02
2.503751290078286285e-02
2.851853187572320203e-02
1.141287173827119639e-01
4.105768930594828892e-02
7.099429803091925062e-02
1.293780327458115068e-02
-3.918696665908481813e-02
5.883833529762669962e-02
4.832942877970002049e-04
-4.941623841811107823e-03
-1.723834020643841280e-02
-2.146975788486362585e-02
-3.649617117540282160e-03
1.792763425025156038e-02
2.048846238579694889e-02
4.720728569649549483e-02
-5.521359953029598977e-02
8.309883232075609277e-03
8.965014765941555289e-03
1.143106049965725637e-03
1.884162810043316441e-02
2.596619645889480452e-03
4.425748072526514143e-02
-1.967614777975170738e-03
-1.113652665868787583e-02
3.556475135476529215e-02
5.856085260954611849e-02
-2.452558654806862373e-02
3.784737889396558308e-02
5.696606926816849721e-03
5.072795228230573411e-02
-5.857045378779042813e-03
-8.466125440419917242e-03
2.063493288385679150e-02
-3.101654555983433120e-02
-1.725391239255488762e-02
-1.290802804184682136e-03
2.944443532765893268e-02
2.590539878764646850e-02
2.021351668794274872e-02
-1.211473363274514006e-03
-3.607953113467045336e-02
-2.718297980589649832e-02
2.132424786848371133e-03
4.763581115965370705e-02
7.078819750049449716e-03
2.006794083297129896e-02
1.244771355285143218e-02
-1.138921276052947198e-02
3.647070670899986433e-02
-2.742387100371522501e-02
-3.516440241257028261e-03
-1.451539526200259014e-02
-8.278529187019498248e-02
-1.202558573190399584e-02
5.050065726762439575e-03
3.845142584830747029e-02
3.202065621724625721e-02
-3.445925777738286649e-02
-9.236214985826109516e-03
-1.535486758826101923e-02
3.307864749808456933e-02
3.531238393969542144e-02
-1.451427182993484007e-03
4.003210242167471941e-03
8.606555751418666980e-03
3.186140721014418808e-02
2.787041713237199420e-03
4.377179536779546992e-02
4.960230432028017028e-02
2.877466612763718637e-02
1.260052829004539542e-02
5.759823340228480137e-02
6.766386880168592799e-02
7.942293083060451842e-02
8.962857423075107355e-02
1.144639429500271116e-01
1.069914940062928199e-01
1.253960860352896500e-01
9.961691091722596481e-02
1.380707645573875930e-01
1.929882642026644335e-01
1.047452922628839128e-01
1.289628915262830966e-01
1.731240943116226783e-01
1.104740898625635043e-01
1.784322344210291789e-01
1.463918453158344346e-01
1.613114698019120496e-01
1.221515776044711232e-01
1.717521118686728687e-01
1.569835642716190249e-01
1.585509229899987882e-01
1.694783433387834770e-01
1.070052682622252560e-01
2.201039881041183532e-01
1.453387662199572272e-01
1.231013941170314291e-01
1.863120789348183537e-01
1.644804143656262152e-01
1.050310325777445847e-01
8.116400892530192812e-02
1.386553382749693419e-01
1.178364147423870550e-01
1.215767207482785911e-01
1.241539667027233840e-01
1.150721286927484099e-01
1.535800127067169785e-01
1.373248837807881650e-01
1.518436322549278628e-01
9.436411664452815096e-02
1.529357354264135327e-01
1.078670003466677546e-01
1.729239517611473875e-01
2.370729054748444420e-01
1.652953978307522831e-01
2.617032633694321153e-01
3.380040862487662112e-01
3.927637072184598233e-01
5.109719867807366311e-01
5.531733488127702492e-01
6.095797160850835450e-01
6.870149600377210009e-01
7.116629645290242223e-01
8.557547091056691979e-01
9.307540118505729376e-01
9.669736904552563850e-01
1.053262789489690876e+00
1.054653971115243616e+00
1.092331844891711867e+00
1.105073577681119135e+00
1.062721288728924796e+00
1.063703482443415504e+00
9.873113699909498164e-01
8.897751563896404425e-01
8.470571828402901904e-01
7.552706160538092961e-01
7.124018657888011585e-01
6.227970645581498710e-01
5.003726030218311749e-01
4.791514169682326574e-01
3.345971006345841436e-01
3.427539135307839380e-01
2.527198438022861815e-01
1.915725677131331905e-01
1.163752922437979592e-01
1.271856041337887100e-01
8.033024031179264446e-02
8.322222639977498726e-02
1.386081034777793264e-01
6.274597830994277370e-02
3.020004043172529185e-02
9.673310911869474615e-02
7.572866819636629721e-02
6.521088739011973723e-02
8.310950137113695679e-02
1.035425874680075964e-01
1.069444290626224287e-01
1.133110782417786344e-01
1.349517093595203054e-01
1.774506416193117053e-01
1.425828511678513821e-01
1.037822043080899315e-01
4.955719642235052735e-02
9.751176038237835408e-02
1.536114849390958770e-01
1.554398167285273025e-01
1.278568994256280011e-01
1.986379099712441421e-01
2.011526798685299156e-01
1.604898351366316200e-01
1.037026130062991963e-01
1.991077097935385898e-01
1.905648342498069692e-01
1.558775944493631382e-01
2.189290269042978854e-01
1.977502531483969206e-01
2.509412313494869817e-01
1.818393489235283766e-01
2.035865781015436804e-01
2.452330431897085938e-01
2.807560760431751512e-01
2.462175316888989829e-01
2.929347225839605273e-01
2.427015785764192468e-01
2.287523410891871833e-01
2.963784830969286022e-01
2.910625914703984796e-01
2.831191645614334340e-01
2.327287736617728586e-01
2.479027753896293207e-01
2.770375275858810160e-01
2.266983021340490678e-01
2.927609308584648296e-01
3.128288844830980908e-01
2.813569376883289785e-01
2.587478973843794217e-01
3.143130642059563939e-01
2.732041925584203224e-01
2.961109558713647116e-01
2.480779156100573202e-01
2.935719565722064162e-01
2.898253218235089523e-01
2.254761596075524066e-01
2.745507600585513353e-01
2.525388411481189754e-01
2.212054178024456530e-01
1.936253113966864281e-01
1.964418980274084126e-01
2.038429985533189992e-01
2.439679889171579297e-01
2.167036712278198607e-01
2.113184078862499482e-01
2.007516632263783296e-01
1.832790846481233138e-01
1.661957290307333468e-01
1.805638435341712367e-01
1.933833404818383894e-01
1.686537324599803600e-01
1.474386457419151475e-01
1.269449231982218707e-01
1.647430617032625277e-01
1.710134826232013183e-01
1.322542252237910720e-01
1.589526785585665958e-01
1.442779292452761875e-01
1.362534706613161284e-01
1.356375662485905242e-01
1.065010381597359668e-01
9.731277836225510347e-02
1.403286696521146570e-01
1.257783042640430726e-01
1.529149159815613168e-01
1.176164684557234608e-01
7.569266364469311170e-02
1.040296707144592603e-01
8.791171441777320683e-02
2.287666950806803434e-02
7.510859161921434879e-02
3.085453338830508596e-02
8.045878953975330039e-02
4.805592604484024144e-02
-1.479636747053535845e-02
9.854195787854208577e-02
-1.475715747051664639e-02
5.437722085072035222e-02
7.808644702849504293e-03
8.027179854987076535e-02
-9.737104907506267948e-03
4.355174105728700645e-02
2.462554401022939987e-02
8.426076363295437188e-02
6.393503305779056622e-02
5.165718981698230738e-02
9.224094911904409666e-02
1.743639117716484777e-02
1.722738694707379170e-02
8.821191547168516500e-02
8.176754154554841114e-02
6.745064593912668272e-02
4.051712243231123806e-02
1.075095449859524294e-01
4.485424405296350309e-02
1.284665227560710388e-01
2.867500417611692012e-02
5.092053365759143663e-02
9.223266967584900500e-02
4.515883558525932151e-04
4.173524069746958193e-02
2.991803685923589973e-02
3.101643641858155970e-02
4.499112720217639250e-02
5.378556691114017713e-02
3.768627869770131700e-02
5.046615808509014034e-02
1.951934889234515150e-02
8.491376306148443187e-02
7.130879091733603736e-02
1.098369940609078832e-01
5.712966476930745469e-02
-1.276765879927738850e-02
7.627536730334993909e-02
5.803486002857389386e-02
4.369834049945976739e-02
-3.493975752266549606e-02
7.237771251305638587e-02
5.612733352209941379e-02
4.246882183246936115e-02
2.604062340604751738e-02
2.161176165749425365e-02
6.461384205836416539e-02
2.564011482315375207e-02
5.189686179074839978e-02
9.326371432392714655e-02
5.036666418126352351e-02
1.404398644681708330e-01
1.147710830695686801e-01
9.983755517058162665e-02
1.148493200322767693e-01
5.136962968615604169e-02
8.120522739141128321e-02
4.930455626004068281e-02
9.623709181603426477e-02
1.091212888248981328e-01
1.146417380716882040e-01
1.398382094317436874e-01
1.383398470707922212e-01
1.213410348891792168e-01
1.411249388597036469e-01
1.832268878704365611e-01
1.729158568142090957e-01
1.877329756158264140e-01
1.921193798644880435e-01
1.517018594285237942e-01
1.599897173768741743e-01
1.995319483710278063e-01
2.018635895359243704e-01
2.443275121397561200e-01
1.551228750254220745e-01
2.013053055028858895e-01
2.120993980257073752e-01
1.896237794695415368e-01
2.261354156660815851e-01
1.416559222272108787e-01
1.824750541588867070e-01
1.588168058777604252e-01
1.775285534256975106e-01
1.753182075918699456e-01
2.057315296141895844e-01
2.171816723346429168e-01
1.407478379848449146e-01
1.484772813804228764e-01
1.652286848328431423e-01
1.578969164242640666e-01
1.551186200833211126e-01
1.540263642451448756e-01
1.534732598194786246e-01
1.698249961598889690e-01
1.617720536785897667e-01
1.980592836147411495e-01
1.737939923946332788e-01
1.362629002870438255e-01
2.313561843080202962e-01
2.119345928258433431e-01
2.688276419012565754e-01
2.904525259652150915e-01
3.134241082710167436e-01
3.493001073496131426e-01
3.854004335238189194e-01
4.833576178695205283e-01
5.678913086556466316e-01
6.853130338239847852e-01
8.069447184645537341e-01
8.852275300453307239e-01
8.874198065332870033e-01
9.939145958971841166e-01
1.011300414534398673e+00
1.105547899030297820e+00
1.079827173535083507e+00
1.147225627104642154e+00
1.115531567927478207e+00
1.064795336073602439e+00
1.093306260975222433e+00
9.594333222857794885e-01
9.393514749774909411e-01
8.496033406800360677e-01
7.695380365220245711e-01
6.547248289257483478e-01
6.650457803200042761e-01
5.646708681321720436e-01
4.283327689012101924e-01
4.040689194996563982e-01
3.387562609562356775e-01
2.461407589796696382e-01
2.116727187065765570e-01
2.490204163938252446e-01
5.825017226112462476e-02
1.528441238552274983e-01
1.354104908006023567e-01
1.387824989697800659e-01
1.437672298464796605e-01
1.700592708100179540e-01
7.840493610367116339e-02
1.538276454190564135e-01
9.205807992172040932e-02
9.042257643694685820e-02
1.727110145569516475e-01
1.022251932096407967e-01
1.081089765073739994e-01
1.198551309448203650e-01
1.638968621146865146e-01
1.295951876029313166e-01
1.696216017946010068e-01
1.708260511001932491e-01
1.496096659236537396e-01
2.386993105773271284e-01
2.038379428979489871e-01
1.423602589364487692e-01
1.641067261068453464e-01
2.376225181223312888e-01
1.840630885193827726e-01
1.706279686649208316e-01
2.033178504149244503e-01
2.003252137817787271e-01
1.740896710962711591e-01
2.292802050360524813e-01
2.388309986012898956e-01
2.151469981433876966e-01
2.394076696090953749e-01
3.009795983595083269e-01
2.419424304651230928e-01
2.366433265327123892e-01
3.057992634946621879e-01
3.121215537536995432e-01
3.648906867574924773e-01
3.511434110972177502e-01
3.071888728892593901e-01
2.573417451382289389e-01
2.872153197638142030e-01
3.160718519281933148e-01
2.778057593417029292e-01
3.244096500587987375e-01
2.552123068992193100e-01
2.685756498724758412e-01
2.787641179435217387e-01
3.435861665456025338e-01
2.765541066296680617e-01
2.851668763297801057e-01
3.128333344891038870e-01
2.803993934922047182e-01
2.585030748014955915e-01
3.084542954737638509e-01
2.496543311490658501e-01
2.366197508542308148e-01
2.461153156277054721e-01
2.043388836610146309e-01
2.290814544807251996e-01
2.367967542236000256e-01
2.016356969580074543e-01
2.863268891264820759e-01
2.146264643576708542e-01
2.420130009206869215e-01
2.785495474578520425e-01
2.483664671901573140e-01
2.191513063126866168e-01
1.664568863874657800e-01
1.330581785330415823e-01
1.378698971064738488e-01
1.311309382671267676e-01
2.041223828874846047e-01
1.757746430431648688e-01
1.758422698371071846e-01
1.438932154757488202e-01
8.958501818295275254e-02
1.659833118945783226e-01
1.306695762651188808e-01
1.446830050915346444e-01
1.278924254655457171e-01
1.471273660064181810e-01
1.028419355100794325e-01
8.965063039432238923e-02
1.022816085832477517e-01
8.692556459278591441e-02
1.487956729856708959e-01
6.382152431784474111e-02
1.097881753029471968e-01
1.230597738069463543e-01
5.556157736631564537e-02
3.007465242708089875e-02
6.635412771575516233e-02
9.434597145855652678e-02
1.080780102520779440e-01
1.390246495823378170e-01
7.832793896835828218e-02
1.061177081333104372e-01
4.995049420621482106e-02
6.359211909944142982e-02
6.476356330382010418e-02
3.567773031092483227e-02
2.479576978043938548e-02
2.374033986205954447e-02
8.722068284779203873e-02
8.623141109212156818e-02
-6.282153853316124748e-03
4.466251246603324121e-02
3.724267967347934249e-02
4.495691621387361281e-02
3.346087125033885695e-02
2.553269213156195150e-02
3.527544767757272159e-02
5.554213824312893150e-02
3.901521667198369625e-02
6.637724465889616177e-02
1.270732540015321599e-01
3.355687969223433709e-02
3.171478939132534730e-02
4.497903861410074144e-02
5.003769853132698786e-02
3.245399594185111730e-02
7.349347610874426562e-02
1.194086986122731842e-01
2.493352126527544066e-02
-1.854808221175258814e-02
6.724240627617746047e-02
4.140285139305419082e-02
8.389887997677372700e-02
1.040953895363278536e-01
4.814188308160244345e-02
5.346004735420919335e-02
2.915307983340880912e-02
3.258618669479386443e-02
-2.262343643691218376e-02
1.114780489091032889e-01
5.762109849888967517e-02
4.110414436889973933e-02
2.148752848849074318e-02
7.198919750533794293e-02
7.170935655882693105e-02
1.089351720908743604e-01
1.219084935769835232e-01
5.308826002670443550e-02
5.907863653830632000e-02
4.452126895047017752e-02
7.666682455093984383e-02
4.068103317085307313e-02
1.208261123032463302e-01
2.696636842775861770e-02
1.016666875127257841e-01
7.597957112380013256e-02
8.492450304652073012e-02
1.030251536458707956e-01
5.595885719078964177e-02
9.205976875428314998e-02
1.010607341433845396e-01
6.854296518806557437e-02
5.739923551705899268e-02
1.234716121169297243e-01
1.286728305135568795e-01
1.161021469127449246e-01
1.534102031699123292e-01
1.722811234589943230e-01
1.426531301931876494e-01
1.439125211203766685e-01
1.918726689521692008e-01
1.280422155261097261e-01
1.581763997767944019e-01
1.912153555001701588e-01
1.389008342403184881e-01
1.908804531132590743e-01
1.256572012177632203e-01
1.587744345622140729e-01
1.892776634547580494e-01
1.993538946048400706e-01
2.015264817678481812e-01
1.850728465123316346e-01
1.933025987732955864e-01
1.720882956885313453e-01
1.097789188579618158e-01
1.120747308337389919e-01
1.789394105254953349e-01
1.891469019935090312e-01
9.761670166164583551e-02
1.494261184129060949e-01
8.199097442776423494e-02
1.333786991307356062e-01
1.155352578409904185e-01
1.508724890798020246e-01
1.779177651494331380e-01
1.616678405838368193e-01
1.479834964669644870e-01
1.239202047612027319e-01
1.160560579024974004e-01
1.198664093788314594e-01
2.079498196339630289e-01
2.419731192502999340e-01
2.000764589243552716e-01
2.669337496549458177e-01
3.580306590382169585e-01
3.977281442181105353e-01
5.420962180494941496e-01
5.602272543822381934e-01
6.528337950218756625e-01
7.563232522187273155e-01
8.331652987179443137e-01
9.111910439770052328e-01
1.019424619375542074e+00
1.012824198250849239e+00
1.041092813587495280e+00
1.097369856295846713e+00
1.102655200530998414e+00
1.090411822286957655e+00
1.103664566806840552e+00
1.025052785386062704e+00
9.797880493849582262e-01
9.122006418579613474e-01
8.552062818128449706e-01
6.684579462617181722e-01
5.964151687777859978e-01
4.954429586485571968e-01
5.034157334912793269e-01
3.305965268779041955e-01
3.048922882708160476e-01
2.811401828139451498e-01
1.690084657179974081e-01
2.588640883111043567e-01
1.313285646777946625e-01
1.477108070478408697e-01
6.797246909828984218e-02
1.524954806826459563e-01
6.287904981904249291e-02
1.172629150144433585e-01
1.075733670750327192e-01
1.608993872431752625e-01
7.341397704606529573e-02
4.059650250617038991e-04
9.278675762071748878e-02
9.628473123734200556e-02
8.604970414735127471e-02
7.398367551471748960e-02
1.400807872283091615e-01
1.371380533789093858e-01
1.088845302333684706e-01
1.156784330987787185e-01
1.383955529848655552e-01
1.363345423120682076e-01
1.519998581138568283e-01
1.289374957075417327e-01
1.462782308394562913e-01
1.479326349892046144e-01
1.260484069532321616e-01
1.622176008853075946e-01
1.469243818764068288e-01
1.856668863564102101e-01
1.178584414012049386e-01
2.131102647405558048e-01
1.678939336824424311e-01
2.099470544076360023e-01
2.027447670759345011e-01
2.051314715779401499e-01
2.401831570027556928e-01
2.639169467325415686e-01
1.900371878804919812e-01
2.990757264738538868e-01
2.590176925752653014e-01
2.385063366541383401e-01
2.459943483034956191e-01
2.497184898184603707e-01
2.300400656280860434e-01
3.172386384544233495e-01
2.619107751859376387e-01
2.778926595993246318e-01
2.363906840430210210e-01
2.470710294809629337e-01
2.278723363086518627e-01
2.978765086239232862e-01
2.538802045724073420e-01
2.584465902542752991e-01
2.580387950889176385e-01
2.330965165430824715e-01
3.234471182110653098e-01
2.164984278897557068e-01
2.421500278391109373e-01
2.557486112555500402e-01
2.202435566175694193e-01
2.180606539143856437e-01
1.920324400297921397e-01
2.097837409438990108e-01
2.563041308878137858e-01
1.629539532348484032e-01
1.939853630130572992e-01
1.636799148094354173e-01
2.245392588942337064e-01
1.959986627881636356e-01
1.535983755269373641e-01
1.381992014741022790e-01
1.780319448604736898e-01
1.805318217998007624e-01
1.413850792647015631e-01
1.313707103121903585e-01
7.464141561766034216e-02
1.227891006441059474e-01
6.339964475336057337e-02
2.824837495346559785e-02
7.539515363370630219e-02
8.795771096595206284e-02
1.130397006211042027e-01
2.054765899917567959e-02
8.773524281701812477e-02
7.631896989271107212e-02
3.239622275598235540e-02
4.776424871387166537e-02
3.187888759904241448e-02
1.402917431222403151e-02
1.894773243525471607e-02
4.411865449888729973e-02
9.725006317339572603e-02
5.179919525283283727e-02
3.300331191537907854e-02
4.032081012741087211e-02
5.390324848665001278e-02
-3.086354179673326918e-03
-2.786076124128186206e-03
2.479418143724182802e-02
3.473152390890253682e-02
-1.387839115364343165e-02
1.873182439511677719e-02
2.380748594026155240e-02
1.662242825592533113e-02
2.141607155302757692e-02
-2.215999134369955881e-02
-2.821284351826489761e-02
1.703073368211369121e-02
-3.076366428873221481e-02
6.115483940555989546e-03
-1.846958666360850460e-02
-2.388319221617819788e-02
3.892089427264175047e-03
-2.278775028260034488e-02
-7.716799688208092825e-03
3.835626387861308662e-02
2.997957050960822420e-02
-2.270076269168204777e-02
1.283130192149768527e-02
-2.342201164496827276e-02
-3.303236444615731404e-02
-2.112384900420184730e-02
2.225943514358176903e-02
2.233521191417429247e-03
8.133132439449812859e-03
7.739768827136582485e-03
-5.699491200016180981e-02
-1.493683461494807983e-02
1.826040479706109165e-02
1.278977263000992404e-02
2.083010167813746996e-03
-7.754617942906099660e-03
-1.840814564616468849e-02
2.261615102805620420e-02
4.293508611572877109e-03
-2.985668399288269464e-02
4.459591113011771024e-02
-4.900449584763397204e-02
-3.182253996205909596e-02
-4.999065915722390729e-03
-4.079432474480051973e-02
-1.880080991730940024e-02
-2.600009415619795178e-02
4.011702373676008515e-02
2.898588282979057407e-03
-2.323214563087416112e-02
9.750181127918360058e-03
-4.288795214918052906e-02
3.975732058047568018e-02
-2.444409193461635071e-02
3.594452028788941433e-02
1.307178672752460497e-02
2.426985093880739200e-02
3.461023860784311068e-02
1.296469026884943671e-02
1.912351664073902446e-02
3.568109009129039055e-02
4.548970287627444875e-02
2.545309960898625365e-02
2.011205707653039576e-02
9.830237457253551692e-02
6.821093605265565740e-02
6.834425590667979333e-02
1.099857591465000783e-01
3.954896690283922489e-02
9.630505661099006409e-02
1.376843328282233991e-01
1.421569205789853518e-01
1.332722729504725867e-01
1.269984867275847085e-01
9.106529560474486973e-02
1.212077897653386360e-01
1.621592439966379195e-01
1.319473151894011709e-01
1.598812796880134668e-01
1.317394052072690669e-01
8.084479603243781287e-02
1.151179014964736208e-01
1.143925828689828922e-01
1.555596169083482971e-01
1.285763526248926980e-01
1.756812115524346019e-01
1.863497373718024652e-01
7.899414601018998894e-02
7.904770946696258738e-02
1.325749929642771330e-01
9.912522341616389343e-02
1.275231294091795642e-01
1.348718880539720166e-01
1.292101187533907514e-01
1.299806990380860949e-01
5.618441392167970033e-02
1.822434397517639845e-02
4.903057360693821587e-02
2.820451389528575575e-02
7.472587150104753606e-02
8.153723540445123596e-02
4.560626699289593161e-02
1.512344344887296688e-01
2.096133870211193961e-01
1.425300136719264699e-01
1.966438390160634153e-01
2.404153831197548552e-01
3.513751063884801296e-01
4.465735570388988940e-01
4.572254457258612681e-01
5.782928064292510717e-01
6.192725888992391958e-01
7.141144138874575553e-01
7.797405765401029809e-01
8.869024026214025191e-01
9.560469883639822752e-01
9.605980155350573035e-01
1.040682115249217388e+00
1.032341069349498097e+00
1.065634742400917379e+00
1.018119362880129053e+00
1.050016429165944842e+00
9.520906439954284206e-01
8.789923906058985104e-01
8.023072244351553417e-01
6.632548374726967566e-01
6.190876853041386019e-01
5.544654973722155100e-01
4.991665485263708790e-01
3.707097113950854061e-01
3.435751915433095105e-01
2.832059238282961244e-01
1.896613141330405483e-01
2.020819450889234092e-01
1.210929263737174633e-01
1.011275235771937619e-01
6.392896821025695342e-02
8.200765745299223863e-02
5.710593060308115365e-02
-7.880200362672749870e-03
4.404138695016414362e-03
5.297129530761442856e-02
-1.654761358183300113e-03
4.791551699537154735e-02
2.864750452254864743e-03
1.073559569363384536e-03
4.634081402617111489e-03
2.897948662175420242e-02
6.558793172761839818e-02
2.262079150879019174e-02
5.295654581295767410e-02
9.271183589773607236e-02
3.163856019206675446e-02
5.300179198595313113e-02
4.680974172345007261e-02
1.189926691303639372e-01
7.751884958605972931e-02
1.118021159810831666e-01
7.816710885120864427e-02
1.075608931127337853e-01
1.038782204335972903e-01
1.352594742264236205e-01
1.480830692371322699e-01
1.073588196512970105e-01
1.897056037990285104e-01
1.507492155219546659e-01
2.078109206748936233e-01
1.348876094737164744e-01
1.828859975519817327e-01
1.959329542567731786e-01
1.406256974874332544e-01
2.314283285946070468e-01
1.503776728719084244e-01
1.767406926397108169e-01
1.414344701967421847e-01
2.390659012639407555e-01
2.281022940254863740e-01
2.209403826701605844e-01
2.316259318470720030e-01
2.022825891595358971e-01
1.953739272866532040e-01
2.200532320878950954e-01
2.209955300345277929e-01
2.525482462192784605e-01
2.071619191358449741e-01
2.166810184124146332e-01
2.011603702544157435e-01
1.564150734417251720e-01
1.933563784274892061e-01
1.741652773634030371e-01
2.036066513674724132e-01
2.014487980083819463e-01
1.854784292767695519e-01
1.337863451193361808e-01
1.414215396329254748e-01
1.439012414458296918e-01
1.609273480984968474e-01
1.362215099796542650e-01
1.343695319134681487e-01
1.703247054104216895e-01
1.525742391058850234e-01
5.062364351957719666e-02
1.506158416067285011e-01
8.028334685716317920e-02
9.753015277413179529e-02
9.826933143574825835e-02
8.638168655021205566e-02
9.316930887670926698e-02
1.000716094440470133e-01
1.087836140459737949e-02
9.880279603681663136e-02
4.354853533132940074e-02
3.474578144061366003e-02
6.112993390651848963e-02
5.127569652206502571e-03
2.455723295122418104e-02
6.690125495615736884e-02
1.567319822755684072e-02
3.444964822022892476e-02
3.026118164915909264e-02
2.847890897890702211e-02
8.025334798805705550e-02
-2.244555052928708452e-02
9.537589194618570354e-03
-1.988206439662284358e-02
2.685145157888203099e-02
-2.579570440084855837e-02
2.167937068594637251e-02
-1.334412906561908974e-03
2.816158941709298591e-02
-1.598897354608386917e-02
3.771259185129847979e-03
9.318919072793134528e-03
-3.170469471227024827e-02
-7.004109937012242826e-02
3.994398131718097933e-03
-3.643991631714007390e-02
-4.438409912276067293e-02
-7.910802027566926631e-02
-9.332454277403942622e-02
-3.322474323925531103e-02
-9.686223775829408411e-03
-1.079361590511794394e-01
-5.525429386655192343e-02
3.032901523016577616e-02
-3.425372547797893297e-02
-6.608214664536866956e-02
-2.414593963388877301e-02
-7.056808410064736858e-02
-4.301894475826668895e-02
-4.861714517103627592e-02
-1.717089414010710552e-02
-2.797295593272818709e-02
-3.444245057627767087e-02
-5.386107301649239315e-02
-9.952629168988269548e-02
-7.121349520320532922e-02
-2.446593498331654445e-02
-7.357752375769280317e-02
-1.489667506822849041e-02
-8.107439880073738503e-02
-6.071700919849658262e-02
-6.986891883931931058e-02
-7.877225300056905910e-02
-7.343936511039064752e-02
-5.051374765193288041e-02
-6.602776046727130976e-02
-7.720270248284306913e-02
-6.440066240880804038e-02
-1.752739687846631422e-02
-2.861100149044525087e-02
-4.272566870952133888e-02
1.831709981155107275e-02
-8.575866389843947446e-02
-3.687792609926173609e-02
-4.810163410572576570e-02
-9.064075237329344281e-02
-2.745787073754465957e-02
-6.648523204511019857e-02
-2.870107563930857086e-02
-2.402385535788780294e-02
-9.697357938484835183e-03
-7.254187746065776654e-02
-2.363466999372806215e-02
5.796472577354404992e-02
-1.496352561948803561e-02
4.094932485539386213e-02
2.990768876191877285e-02
-5.198340316199534517e-04
-1.367801111158178928e-02
3.175795648927379200e-03
-2.873315400561012034e-02
7.700592260887892393e-02
-5.475484889147438916e-04
3.787838200817431056e-02
8.769742609931560628e-02
2.689690240350683242e-02
3.022625671502895961e-02
6.608101955411595230e-02
7.919753775777405025e-02
1.228413947374848159e-01
8.487068831212091213e-02
8.489622980948935416e-02
1.037456892054898216e-01
1.019420437589793338e-01
1.134548524201816483e-01
1.016980554691784278e-01
1.561793600831583029e-01
1.446751290567644399e-01
1.089919720702791639e-01
1.596377700406016176e-01
1.064540573913772964e-01
1.219834368557947413e-01
5.719015719761105787e-02
9.254703783049858523e-02
9.670292125096201230e-02
7.964858940745231375e-02
6.627033736158279009e-02
1.359668271462757816e-01
5.698562770728011345e-02
1.077506807477706385e-01
3.923919917139807867e-02
3.880051799972814713e-02
1.351784719529827011e-02
7.049895202231006019e-02
6.275116455287489681e-02
8.554171063111953854e-02
8.960704398456613429e-02
2.818716712174993561e-02
4.452980108842639201e-02
3.428739171930016844e-02
7.084158758274650136e-02
1.181721831357620406e-01
1.486612674564569969e-01
1.522165408467407999e-01
2.057654722998134844e-01
2.170465520188825659e-01
3.247900295410863225e-01
4.283671685275440288e-01
4.842034941562447514e-01
5.362851030758872817e-01
6.537277709333783049e-01
6.688729884590889352e-01
8.096257200983077995e-01
8.675379029927776653e-01
9.313406510327479904e-01
9.553832543352044349e-01
1.031648608734418993e+00
9.768964606313126353e-01
9.877196842133991739e-01
9.950215706812144401e-01
9.835232875807172759e-01
9.296533572457232886e-01
8.899735775178505559e-01
7.278876382810636203e-01
7.394769740877087383e-01
5.903585767520299621e-01
5.197799456766770687e-01
4.273050851935860095e-01
4.002058722085721221e-01
2.670886388150264246e-01
2.453215066951262568e-01
1.762509210281146266e-01
1.520406376289525352e-01
1.474932442781414776e-01
6.316522825603401725e-02
7.175655110910147960e-02
-4.173580932154287437e-03
3.477858831029426862e-02
3.033800388328953407e-02
1.429580718308157139e-02
-1.395782326609545931e-02
9.113648418107037075e-03
4.935601949889510676e-02
4.068519208283689209e-02
8.588224055810299296e-03
5.230271108954595571e-02
4.087925229941252736e-02
2.658190487752344622e-02
3.674500052581441273e-02
4.080593387308403125e-02
6.599924390256331486e-02
7.870741736977519831e-02
5.344995300206070027e-02
5.012619871546120098e-02
8.443405230558757857e-02
8.676702641418973516e-02
8.844622027813878185e-02
9.308012986572178349e-02
1.464855850746461796e-01
9.009042831883609659e-02
1.025172820652729133e-01
1.224574453105873595e-01
1.911861866427923828e-01
1.337283125037770082e-01
1.638220100955030678e-01
1.169767452118075091e-01
1.624635101101551404e-01
1.575393158134722749e-01
1.444973806456513188e-01
1.736967207200074970e-01
2.008105548760736880e-01
1.366571458090840852e-01
1.894777409150437686e-01
1.384292194303344825e-01
2.231182530724210300e-01
2.358543727306798010e-01
1.661036795581533609e-01
2.023099390539645492e-01
2.161015441690689598e-01
1.948511207373374854e-01
2.175998781414885119e-01
2.368603472225336015e-01
2.424879673982663353e-01
2.324321467945226483e-01
2.022661070992045063e-01
1.540750692252306486e-01
1.907941192355344096e-01
2.214805424681873247e-01
2.470186957946831074e-01
2.125458739469919534e-01
2.177380747125383931e-01
2.040970945784865154e-01
1.912538624142716970e-01
1.866085867044931512e-01
2.153806077448325307e-01
1.531874451551507033e-01
1.540720373087818840e-01
1.733156780462297708e-01
1.816395280158362158e-01
9.019467532237934737e-02
1.560848351694518188e-01
1.285455010457039471e-01
6.527186365185748407e-02
1.452379432885410604e-01
1.340002172102793820e-01
6.311490556045665223e-02
7.258832436414536238e-02
8.458583989580767404e-02
1.010130452643053373e-01
1.098748279244570747e-01
1.055311122884186603e-01
3.965819199184608679e-02
4.381991384422027208e-02
6.192833790379081993e-02
9.675417021822847741e-03
-6.307498935142270835e-03
1.255200466069264498e-02
1.929059796236804597e-02
-2.806400437032605111e-03
3.769227337982792442e-02
2.962320307395197722e-02
-2.059361183121719702e-02
3.762586832435987211e-02
2.982869031919560543e-02
9.769252076692803988e-03
1.976735115634994239e-02
-4.492352080123532265e-02
4.293659569899382911e-03
3.427850806620863500e-04
-3.856227235484977617e-02
-1.664076349207718741e-03
-5.929010052864412683e-03
-2.467498158039103939e-02
-1.539676177483893099e-02
4.104258919868934707e-02
-2.957793532477053303e-02
2.248554135971962686e-03
-4.750358337889258598e-02
-4.424178299564132666e-02
4.084244362428733621e-03
-1.726202971351653570e-02
-2.067906426082764121e-02
-4.758931444951263606e-02
-5.755454560809371289e-02
-1.423221073792847735e-02
-5.490183276454094902e-03
-2.207727243952777724e-02
-1.061701574871758841e-02
-5.847804229420419664e-02
-6.253015870598191417e-02
-7.413829743166885922e-04
-7.593878935584429113e-02
-4.847838245237390264e-02
-2.645540997223023300e-02
-3.578780704630885046e-02
-7.274873787715285811e-02
-4.533143106228706976e-02
-3.346379539122349561e-02
-5.503067557634874069e-02
-2.095088328631877425e-02
-2.316050354074585330e-02
-7.255354574207767415e-02
-1.924537048385858637e-02
1.194890136432620598e-02
-1.161208347079943290e-02
-4.321554644483144303e-02
-4.659410815350731316e-02
-2.511630171844582773e-02
1.473477976420764501e-03
-1.356371970182009869e-02
1.313384017854826030e-03
-1.304619913166348878e-02
-3.053073191530588509e-02
-4.487499943832176652e-02
3.917010886301680594e-02
-3.780863160267173423e-02
-4.610073797414547536e-02
2.244732091314451811e-02
-8.552531273025179223e-03
-5.094096858840990033e-02
-1.684585435848904786e-02
-6.468187390101812206e-03
2.907999419390838725e-02
-1.311337686480076002e-02
-5.327365884632770388e-02
-4.307337708205957738e-02
-3.536255638492827313e-02
1.236504072376538171e-03
8.965047169088233292e-04
-4.512228501650591972e-02
-3.233309172896893513e-02
-4.129445638785615019e-02
-6.099611027790033391e-02
-3.668889059137539488e-02
-2.012227463575208541e-02
-1.963332299570657094e-02
-2.328200470777293599e-02
-1.529728430010533075e-02
-2.152788893877147225e-02
-2.642352109501104260e-02
-1.313010969858452968e-02
-4.403186038146107012e-02
-3.144082194173510036e-02
-1.403768646628753003e-02
-3.551759061377209037e-02
-1.708804393292295831e-03
-4.564977940861730116e-02
-4.977305604447275489e-02
-3.981571596394002654e-02
-8.707948270840874111e-03
-1.959116378148816756e-02
-5.218214710719998317e-02
-5.388678813324051381e-03
-8.939734957691019765e-03
-4.014587756605262486e-02
-4.028532768428851052e-02
-5.841744319106093736e-02
-4.921322695667036673e-02
1.826123610583932355e-02
-3.136560783683403630e-02
