1.087297462936783310e+00
1.029640575690563775e+00
1.030668124226379545e+00
1.015204491220970118e+00
9.742356694296944175e-01
9.139262675584095552e-01
7.530165677007777392e-01
7.653691362436189083e-01
5.745901589842420387e-01
5.195092635978743045e-01
4.254973720090023392e-01
3.671372409328969022e-01
2.818206426382287022e-01
2.417477470033563558e-01
1.960166536328296627e-01
1.467420868522149313e-01
1.101548066451177865e-01
1.196689822849434787e-01
5.102997892029611376e-02
5.030220479096596947e-02
7.062618071987591950e-02
3.256967397028746880e-02
1.285500951073585973e-01
6.324715642269422566e-02
3.611104948910046075e-02
1.232979483366304814e-02
3.913516304108394239e-02
1.378350139850050282e-01
1.048307786125030755e-01
5.020394757556762011e-02
9.519419070899078072e-02
8.487449104442643111e-02
1.209485302221520731e-01
1.264855944040231828e-01
7.900313262005452530e-02
9.728173491698575981e-02
1.660574817550413973e-01
1.798616780407198967e-01
9.541949400408356041e-02
1.499535033999690459e-01
1.784648623165463743e-01
1.894163888414183705e-01
1.695800916578437678e-01
1.515620228104136713e-01
2.018742820696503015e-01
1.645670689894926930e-01
1.835688859375184112e-01
1.899594133871133905e-01
2.133453955934938029e-01
1.740113281560753122e-01
2.433338025635233270e-01
2.002508793189924641e-01
2.462653615226742532e-01
2.645602136081100508e-01
2.619853633985191332e-01
2.226381713843882948e-01
2.284046052887930001e-01
2.572705569500452483e-01
2.495614450972866438e-01
2.127656104149817651e-01
2.846151100557483549e-01
2.392580554542249327e-01
2.591307650787764705e-01
2.447392834362064340e-01
2.763431489200459112e-01
2.989884131664619082e-01
2.749747627844177367e-01
2.521050422121742796e-01
2.400371019705202502e-01
2.079909782353333847e-01
2.574367735405716506e-01
2.834553363647964730e-01
2.560496750126375898e-01
2.338001255254048005e-01
2.261029484616323970e-01
1.666081237396038195e-01
2.410204216859666293e-01
2.262933523869982977e-01
1.852827483111786910e-01
2.169893003616380212e-01
1.505740810647406558e-01
1.579245216394762896e-01
1.771435765599516654e-01
1.687420789507647345e-01
1.886247183816116280e-01
2.037681431031916346e-01
1.685023718147510285e-01
1.434072181287435743e-01
1.669804630799306688e-01
1.013868576067403077e-01
1.067365776338403682e-01
1.078380017981903222e-01
1.263477389564838516e-01
1.106083698166994006e-01
1.414059041352190571e-01
1.428812721174586853e-01
8.898492985616637818e-02
1.684305630862091563e-01
4.985143808463164683e-02
6.041414800340449975e-02
6.963623947505087619e-02
3.049330079136634841e-02
7.305510003885659631e-02
3.797932749610814090e-02
5.287176742913933525e-02
9.689050601206503077e-02
2.480376998918166695e-02
5.104397131408287824e-02
3.057157781806309205e-02
9.212657596705449425e-02
-9.859207749940300872e-03
5.500934468724037740e-02
8.660130555288511611e-03
3.376876400631653730e-02
3.604884729795496123e-02
4.844461871972931266e-02
1.039323472577302621e-02
8.278967321561487430e-03
2.743672496271724187e-02
3.718479634881317886e-02
7.510643248631368452e-02
-2.659349942267669881e-02
-6.426728661548909011e-03
3.728399894211288645e-02
-2.559211858027892958e-02
1.004528629580036039e-02
1.441218186426202613e-02
2.723918192787272777e-02
5.078315291218203631e-02
-1.040898992700658304e-02
2.228939824955547544e-02
-5.977819662730810002e-04
-1.860091281504372071e-02
7.238097900351080777e-03
4.233084384873698341e-02
3.254835698122564291e-02
3.038950037343294414e-02
4.813967849776053243e-02
5.731706045543343009e-02
3.297621329701892756e-02
2.897381025235462593e-02
5.907777408616807224e-02
2.830641258078214761e-02
-1.058183129523347990e-02
8.041817888929814195e-02
6.515035251073350575e-02
-3.354552484292952497e-02
2.557185416849965323e-02
6.590339140941048335e-02
4.855730021734894902e-02
1.037431261962028506e-01
9.924462631412904468e-02
7.350023813334198575e-02
1.013266752003908755e-01
9.171961746605178378e-02
1.014123147180752277e-01
7.754093190119157319e-02
1.597223389514292602e-01
9.699318901024280015e-02
8.046410342742417454e-02
1.391835751260600551e-01
9.985904334821060768e-02
1.854620684935976982e-01
1.570935467980013600e-01
1.643133814122183234e-01
1.599746441314852108e-01
1.495249557347990421e-01
1.123011061475835681e-01
1.325995071806387871e-01
1.864869118505631251e-01
1.662011858287476551e-01
1.731631078867765239e-01
1.976962730538174007e-01
1.470446292197398752e-01
1.236056447361627703e-01
2.016267462260730170e-01
1.678844701203726641e-01
1.772119747805201984e-01
2.223062883724773453e-01
2.041022021062935676e-01
1.522608136414216884e-01
1.375044645355711637e-01
2.156664601344217280e-01
1.952370998766883581e-01
1.384802506222446161e-01
1.253428424647781148e-01
9.115796948719195880e-02
9.941513499237661367e-02
1.390412315585303205e-01
1.061996445175526216e-01
1.268412832889779795e-01
9.286563953891510681e-02
9.679781005978624342e-02
1.350639056822438566e-01
1.314870545651532496e-01
1.446101145666166266e-01
1.615579239743678286e-01
2.488308429061972527e-01
2.954357804385732145e-01
3.488821233618483730e-01
3.674915527449418851e-01
4.868556087160297863e-01
5.734513408448544958e-01
6.039596401191684727e-01
7.076041133098021074e-01
8.226436598554751622e-01
8.545413835422669413e-01
9.919319497873625435e-01
9.795793554982049622e-01
1.112317467121295200e+00
1.099995463595526024e+00
1.094033614134566346e+00
1.117892336979485313e+00
1.109321303340664588e+00
1.000685048716092762e+00
9.938207232706385286e-01
9.685944223277939136e-01
8.979659281399193782e-01
7.446672453192459962e-01
7.026696228728916971e-01
6.240212135301907992e-01
5.767217693275981105e-01
4.742099963943059993e-01
3.744546721575501835e-01
3.515510130387032861e-01
3.328154338951204716e-01
2.585930721705227975e-01
2.196994097460922002e-01
1.464925274076071815e-01
1.527667605450651889e-01
1.493624078953538770e-01
1.281702546266084430e-01
1.216102886074852674e-01
1.096609701907542422e-01
1.107551547890051058e-01
1.564049205630547446e-01
1.073720105150438031e-01
5.079854219936914828e-02
6.983615974038787089e-02
1.499162110742440768e-01
1.087927272879768703e-01
1.394248888645578388e-01
1.540023833404539078e-01
1.477021204575713065e-01
1.179158108588095888e-01
1.520813225163082927e-01
1.987305033760738415e-01
1.370728973988902810e-01
1.552042008441927301e-01
2.144577708780834868e-01
2.105272392778582136e-01
1.883217895276053655e-01
2.131655135441880289e-01
2.012755143324858609e-01
2.439818620508963365e-01
2.450883845168528863e-01
2.444983892169612094e-01
2.217023726619443691e-01
2.151604295016539270e-01
2.347891205751740373e-01
2.633453956885783986e-01
2.964817444363195276e-01
2.509210963882412271e-01
2.627490792085946936e-01
2.852180643015550521e-01
2.449524214750259388e-01
2.517984315244607418e-01
3.266740984280200877e-01
2.476983045235004455e-01
2.586362300541026893e-01
3.423270380218893516e-01
2.795845045410380592e-01
2.736428758429451658e-01
2.560712788439012400e-01
2.651975892005927760e-01
3.100390626781075465e-01
3.259786006252818336e-01
2.818903641013806860e-01
2.701115615953771365e-01
2.819953077836008792e-01
3.271486420486469093e-01
3.061510045874266672e-01
2.912933362063835907e-01
3.377358924559713538e-01
3.008708627722112006e-01
2.920999264329708911e-01
2.939407234462605989e-01
2.984274639226877635e-01
3.061817199347416363e-01
2.241999671122911764e-01
2.340624125578338321e-01
2.330345145581744770e-01
2.261019574473073779e-01
1.968941137041281819e-01
2.321733617108764636e-01
2.177727259021178252e-01
2.271222131945162259e-01
1.906912476615073571e-01
1.888531432419876810e-01
1.474374260867294950e-01
1.238731371101197826e-01
2.084077740151671909e-01
2.111559973634337672e-01
2.406143070448844012e-01
1.587386568006936838e-01
1.424071676751909044e-01
1.445821288699305207e-01
9.806360408839581710e-02
1.323746240016050735e-01
1.267063417744130616e-01
9.121933069770576941e-02
1.363882811215530455e-01
1.060560461072507232e-01
1.089784581955335896e-01
8.912559994223427651e-02
8.925692832284431999e-02
8.987872272765864978e-02
1.054229842645115767e-01
9.519746397073666766e-02
1.244773729145547125e-01
1.072477464389107182e-01
2.796923384909822188e-02
5.079619323626700933e-02
6.476008152762476044e-02
9.787248337799758779e-02
6.648883128539750942e-02
1.090290779029183393e-01
7.387443989147897405e-02
1.371424701650504341e-01
9.651888822636978116e-02
5.457387667927005026e-02
5.950939839710150947e-02
7.948471160687621551e-03
7.189989627573141473e-02
7.920620715214944652e-02
8.799389124750020552e-03
5.290389634593009593e-03
7.696150787153308026e-02
9.618852520330103961e-02
9.969746881518848358e-02
-9.671713519764035816e-03
5.686391558455274747e-02
1.162604313310929421e-01
6.418093170676410220e-02
7.237349861501220227e-02
4.168894439459552848e-02
5.775278120782850050e-02
3.780191424446349702e-02
1.069593940813002020e-01
9.805082334104436859e-02
5.815083219882827975e-02
5.363202645135533436e-02
2.949432796786697480e-02
5.416917668284183113e-02
6.557243683384951505e-02
4.641170253396867396e-02
7.026537575036390093e-02
6.639919007719771726e-02
5.768991079872705374e-02
1.814591771131638942e-01
7.832068550050370892e-02
8.572143508412291557e-02
7.290135154801513639e-02
1.477861417471523220e-01
1.042199100317086624e-01
9.536187576036417313e-02
1.069348117823534228e-01
7.954607279640960038e-02
1.170530908369789153e-01
1.408757149944697140e-01
1.598711405350100312e-01
1.311804578259596621e-01
1.739029186831336504e-01
1.499801049865112368e-01
1.443195559086931645e-01
1.672161377098282942e-01
1.468792082952443123e-01
1.528873472529996280e-01
1.376820185946400765e-01
1.576172888415170725e-01
2.188064493167385105e-01
1.820388151204632710e-01
1.875777356019027731e-01
2.294886328923982921e-01
1.413300704168782840e-01
2.081340336108000177e-01
1.470931634428442325e-01
1.637918603023235109e-01
2.172682795794466937e-01
1.905806274966469482e-01
1.562674365821161149e-01
1.414741184978683952e-01
1.725027366528726347e-01
2.122458943076748206e-01
1.845250114784217077e-01
1.676788627280347832e-01
2.050675740158670879e-01
2.147214287988914450e-01
1.870541660382325500e-01
1.595199338821415846e-01
1.344016805886021904e-01
1.463310144151024894e-01
1.128779112850631927e-01
1.745765919741748551e-01
1.641321906026513844e-01
2.056701095613697183e-01
1.910869829303497025e-01
2.305173178073713358e-01
1.796873875019552869e-01
2.456101315287934628e-01
3.786174281264627073e-01
3.638445624312298121e-01
4.391960572082640457e-01
4.530867747624843234e-01
5.512235912995044895e-01
6.322414106636036202e-01
7.141727784507151400e-01
8.201613983933582208e-01
8.795984750468754942e-01
9.904795606576981548e-01
1.040950506825909283e+00
1.096258726545377371e+00
1.109641012766757973e+00
1.138546802823448223e+00
1.119952517338716147e+00
1.119397663819127198e+00
1.105710559603532372e+00
1.001609796657594087e+00
9.390651160133570707e-01
8.052900482227207668e-01
8.004016561223648019e-01
7.003502483785182253e-01
6.810374604782113428e-01
4.949120723536461486e-01
4.511682991569080370e-01
4.077959473472048124e-01
3.231887462008807277e-01
3.346840035941382463e-01
2.791361306276013421e-01
1.265845206336661533e-01
1.725327729459188442e-01
1.137853572975238425e-01
1.057631543865291124e-01
1.472578542477433194e-01
1.974925581475263925e-01
1.315208076846593743e-01
9.072826334529210390e-02
1.096703459092208260e-01
1.578198844375163779e-01
1.090172008261963560e-01
1.079634375693760140e-01
1.089807089696265552e-01
1.281426756372876508e-01
1.515215458780243551e-01
1.509676864054813883e-01
1.926301934403987226e-01
1.456659708670026143e-01
1.366223724094494385e-01
1.733458530741112946e-01
1.396160338379966448e-01
1.515211489225979369e-01
1.811784350857996995e-01
2.490165425770675400e-01
2.147319529917627590e-01
2.163561130879611827e-01
1.771553980059147326e-01
1.964637810705646692e-01
2.085276578605990139e-01
2.212068463072719982e-01
1.968734947293688531e-01
2.708242221471403588e-01
2.509524886036982316e-01
2.682978987951220584e-01
2.800930522441121839e-01
2.594281606810092677e-01
2.676425142322271244e-01
2.721204605127411913e-01
2.707745421177155110e-01
2.603403290774731205e-01
3.128897030422767567e-01
3.094077624286448169e-01
2.657531201588694270e-01
2.809271108794339500e-01
2.833083704911132372e-01
3.136230685777933180e-01
3.011138216708328375e-01
2.543763952928210226e-01
3.173556490002880093e-01
2.883419003760716581e-01
3.150913388048988684e-01
3.235671801152038562e-01
2.675292459417596969e-01
3.236691363499574758e-01
2.696325256872283971e-01
2.794026391873462023e-01
2.418090692423278953e-01
2.018938182533755454e-01
2.234923160420876631e-01
2.703690363622772153e-01
2.495842289650894996e-01
2.638567231539035718e-01
2.902928453033782885e-01
2.239476791312042248e-01
2.234236161045288493e-01
2.189725090519874795e-01
2.272481616865260345e-01
1.952771919773026166e-01
1.917021104390956576e-01
2.225389372873705918e-01
1.870372305796696444e-01
1.931978683188453061e-01
2.165262933431672532e-01
2.202377921480399570e-01
1.932635134109587649e-01
1.274219048972696222e-01
2.137622401985996567e-01
8.391151663467785737e-02
1.517569764077103533e-01
1.299985112083270611e-01
1.510310973778433152e-01
1.532982544597028818e-01
1.236694754378750982e-01
1.094720158299901241e-01
8.688549537320555682e-02
1.017804597833717739e-01
9.550994156403233570e-02
8.056770837366239446e-02
8.718978061856827444e-02
8.641328360845312861e-02
9.035775852895686078e-02
6.421407731189346380e-02
4.320044911002867555e-02
5.878394748434947331e-02
4.515477788926297587e-02
2.068855059452703524e-02
1.114927118852768045e-01
6.316251886448985553e-03
6.905445718034147751e-02
8.228569440317619332e-02
1.232204260838862253e-02
4.399001073077334761e-02
3.258423267967180265e-02
8.983935169544415150e-03
-4.396398102811824304e-03
2.320765143475306963e-02
2.210753332759107792e-03
7.293525639904555047e-02
5.514165830264712576e-02
4.754143482448409952e-03
2.081642941674123268e-02
8.444696701412322815e-02
5.742417136491098639e-02
4.075678713731059610e-03
2.675628818655568369e-02
9.688002741986663502e-02
4.053642342585454805e-02
1.100595482533392802e-02
9.083060831554724823e-03
3.766502934585098245e-03
-2.784741636887876071e-02
4.920987289305715079e-02
1.764055162648328623e-02
5.460393639114420605e-02
5.390755229347074517e-02
3.095241651369137412e-02
1.705023646829195716e-02
3.625411760866765337e-02
2.875944746076421199e-03
5.976815569203727807e-02
5.569721778544534790e-02
3.054267259674541685e-02
9.193491127361066995e-02
5.214904862734091873e-02
2.559005172497887809e-02
6.725255271597427309e-02
6.833890025196748264e-02
3.113391692468508998e-02
5.733839080721837844e-02
8.487968146373779665e-02
4.168334079689064997e-02
1.005521502231183362e-01
5.856048007451042370e-02
8.406394119261695330e-02
1.170089212984153498e-01
1.010657870912928108e-01
9.259066556150551131e-02
1.395977201906123399e-01
1.725844275642411663e-01
1.010517215751618181e-01
1.411213852725968221e-01
1.437215524670775735e-01
1.300851254334264295e-01
1.790048034353985407e-01
1.632360958546153762e-01
2.166363497176421460e-01
1.421749361381611232e-01
1.944289561931246968e-01
1.463624701091401914e-01
1.355001893436798277e-01
1.471672361173939902e-01
1.479542971095592352e-01
1.540764659539601844e-01
1.719521849121017354e-01
1.556746227744222888e-01
1.690726609122059632e-01
1.805016103905948410e-01
1.390635957212617291e-01
1.859593270366150519e-01
1.145813495433317675e-01
1.216733011538021075e-01
1.227546077060335111e-01
1.587466042129894450e-01
1.295883834596950335e-01
5.328118826674291958e-02
1.707530493584707432e-01
1.497580840116608247e-01
1.343019686846682326e-01
1.383234504915373253e-01
1.253490236208842368e-01
1.936057313065084329e-01
1.652234503514394826e-01
2.534787541067486938e-01
3.035691830410033321e-01
3.371729604381422107e-01
4.000723673634781763e-01
4.477923850458203070e-01
5.486472690105338446e-01
6.408263637126757617e-01
6.989882248040008017e-01
8.425404864923536907e-01
8.955262963048469249e-01
9.250992974805288815e-01
9.585264998304415807e-01
1.064120570700070267e+00
1.100080922827688212e+00
1.117047835653356413e+00
1.055313856609848555e+00
1.043373369027636777e+00
1.011663135513349410e+00
9.733937089112891794e-01
8.903609286032813097e-01
7.818770439533195837e-01
6.839701750003324143e-01
6.307918828597596228e-01
4.974825725225006656e-01
4.773721954895873143e-01
3.821266577009577170e-01
2.719504626411518577e-01
2.225739993765742109e-01
2.274413109746385442e-01
1.529005085381272278e-01
1.463367284451889960e-01
1.420379085266121055e-01
1.314455649989603736e-01
1.260653295038314525e-01
7.202438099395998272e-02
8.473286411826723430e-02
8.282436987647823212e-02
1.221822571714625133e-01
4.141920014414647577e-02
1.216948042120970935e-01
7.267630058498157630e-02
6.961366142810244961e-02
7.726380174561343905e-02
1.003518446187126045e-01
1.238389534376692913e-01
9.335554077867910805e-02
9.367548180004013625e-02
1.239238554088824690e-01
1.270139105259269485e-01
7.337941633542933995e-02
1.813964549998486886e-01
1.432709333527522333e-01
9.944668094415380633e-02
1.366044036683239649e-01
1.795707147642801038e-01
1.755618477830815094e-01
1.584458778268717505e-01
2.252147086317712876e-01
2.200664019679905714e-01
1.745674274285503036e-01
1.966046264956181622e-01
2.094521957911627263e-01
1.996996974414493309e-01
2.377902121324385887e-01
1.402328637894962871e-01
1.537969791940348163e-01
2.003398525415229503e-01
2.365233549672277613e-01
2.286415734656027099e-01
2.104796681036470718e-01
2.215828164689029045e-01
1.915440315770213786e-01
2.649399696262905723e-01
2.122555355825158641e-01
2.306046601866028611e-01
2.136755707002740701e-01
2.615584284793726066e-01
2.526426677391915288e-01
1.893404085811727922e-01
1.873759433083937442e-01
2.723234417574612043e-01
3.007108176563479951e-01
2.327087385679395548e-01
1.976150222891214780e-01
2.469222433060609956e-01
2.329301720547088950e-01
2.272279568092058499e-01
2.554286013862587801e-01
2.111088272622636541e-01
2.233157666548181153e-01
2.174026851703661778e-01
1.848508569037448923e-01
1.895838583836469693e-01
2.142297443482820696e-01
1.601965968521575356e-01
1.750380809817779770e-01
1.694989153426583739e-01
1.100143950226698530e-01
1.142900943113201312e-01
1.470018307987021600e-01
6.024240214014344591e-02
1.475520361808572989e-01
1.066420932608072997e-01
1.313111349663732552e-01
1.363453474797865494e-01
8.576297913621044877e-02
1.022763258338470899e-01
8.841985442660055261e-02
5.562469081472945498e-02
9.036485553226268619e-02
1.462100145445543176e-01
1.282743440397983437e-01
1.659070601020509739e-02
6.303360674966276833e-02
7.115089296605614511e-02
5.388202431460775710e-02
-5.252345841881748620e-03
4.668633273712559373e-02
3.727282037760700634e-02
2.920551265529378049e-02
5.140450283505862417e-02
3.286369660110477486e-02
5.215914553068754650e-02
1.951554863474502799e-02
1.648283600655078146e-02
-3.895107973919685607e-02
-2.529179537267640596e-02
-3.047917383095285690e-02
4.363976866067274807e-02
1.726749077467713833e-02
2.032342780968390827e-02
1.356221465894612288e-02
5.270722851169793582e-02
4.965788719473205465e-03
-4.170644406998415266e-02
1.088773418134111881e-04
-1.390802178710928011e-03
-9.217063975252515196e-03
-1.140468074075796229e-03
3.799251494978814897e-03
-8.040831479094523448e-02
-5.463218032296583704e-02
-5.401646711834845460e-02
-4.711277045456083168e-03
-2.762440797620960287e-02
-3.544150952112509745e-03
-3.619492545091771568e-02
-3.001131914993682842e-02
-1.163022727681006264e-02
-2.953712303723012370e-02
2.775482971951479666e-02
1.681150498081554479e-02
1.712509291263937528e-03
-3.650203492692378343e-02
-2.808864627854062296e-02
3.314205682538254316e-02
2.524517636468912724e-02
7.642436370425777226e-02
2.567653485369445626e-02
2.515131750457366699e-04
1.918416939881317090e-02
2.588119366977357713e-02
2.267939455997293116e-02
1.371406555316125389e-02
2.641137937074468367e-02
7.427875588550263142e-02
2.924720425346860261e-02
2.300526365580000260e-02
1.002793377760705790e-02
4.233333261616278875e-02
-1.955674817059660509e-03
6.859311791257260982e-03
-4.340673204996370327e-03
1.480928093065961987e-02
1.233553495419401069e-01
9.656703335442308467e-02
6.610413269455306384e-02
1.049451991337954776e-01
5.311176658505900594e-02
8.390138516698442128e-02
1.544347047321684430e-01
8.021544154551306371e-02
1.288110886225981300e-01
4.140320422753226981e-02
1.319736195853926930e-01
8.243357972698285574e-02
1.253293696460721640e-01
1.059565102605546372e-01
1.403473589061069726e-01
1.139363101967787728e-01
9.596787355469880987e-02
1.053586589078713137e-01
1.584168781190934405e-01
5.351085018475609800e-02
1.139690385238546350e-01
1.658134198997194830e-01
1.118825767908888935e-01
1.580106567206131241e-01
8.966363617142050768e-02
7.610775078862161425e-02
3.893855254726793363e-02
1.517097778901980304e-02
4.817910362364844629e-02
2.376759663913273479e-02
2.062005348057538434e-02
2.681437326156087958e-02
3.330996727105576399e-02
1.109627653114117762e-01
3.360501822504143726e-02
1.283779937119047532e-01
1.286311772788965302e-01
7.339563359164277823e-02
2.049739273948031348e-01
2.701382965568701611e-01
3.030676372014316500e-01
4.129528461927183258e-01
4.579346794464855819e-01
5.601966842508995237e-01
6.582008490174811044e-01
6.836271170016492427e-01
7.808469100950531372e-01
8.000202943389699284e-01
8.752963567621201424e-01
9.636225147012098535e-01
1.021762042587524899e+00
1.040062560595336860e+00
1.031622148162823382e+00
1.028659375141419252e+00
9.961870714163418850e-01
9.329780454473528550e-01
9.098372041581321845e-01
8.117492465494542397e-01
7.338910572420178635e-01
6.614793965082388372e-01
5.712329745704346484e-01
4.924559512127708594e-01
3.865575609484158681e-01
3.518358689255812188e-01
2.651801171312330174e-01
1.912532397997675215e-01
1.345530090966343684e-01
1.085838694816942673e-01
5.203208344186993628e-02
7.066225644138565687e-02
8.159463525138650752e-02
5.868336725293184231e-02
5.670312197040894286e-02
3.970418261636227825e-02
1.600874824099175753e-02
7.397084399418295264e-03
5.558177946712913181e-02
1.753835340184712460e-02
8.341119863685511615e-02
4.084615637646338976e-02
3.386045029199091783e-02
7.429213235929377213e-03
5.960414673056026874e-02
6.549985209118089347e-02
1.154363288374792851e-01
3.847391338409100053e-02
3.465950878609239116e-02
6.931882922745025155e-02
8.466719562746949368e-02
1.353344964406185402e-01
1.084051954233587883e-01
1.378749943162946856e-01
7.259021309283884837e-02
5.859020946007403169e-02
1.068600719984703351e-01
1.517242590430536164e-01
1.208556217024503165e-01
1.384132266113320131e-01
1.514155614371433256e-01
1.522482751580302163e-01
1.774269352569755875e-01
2.329911142617597242e-01
1.196062770874752879e-01
1.839430038893838937e-01
1.723043531575435550e-01
1.763806111586909142e-01
1.482140851136805604e-01
1.591040552847382827e-01
1.767855193225960631e-01
2.208111799853664792e-01
2.002101909079893050e-01
2.234088231315198847e-01
2.195309512579235178e-01
1.824154159963591315e-01
1.543137661273632222e-01
1.546845917317992980e-01
1.777363577342126466e-01
2.088121972034304441e-01
2.277853633230714769e-01
1.739327180503905668e-01
2.088458207353401930e-01
2.205705986764492921e-01
2.553382933605975458e-01
1.618353764811593376e-01
2.047184134808768541e-01
2.199785312353966238e-01
1.550620085342246379e-01
1.838556297860706179e-01
1.964573205475274864e-01
1.417240275649224723e-01
1.351808683569795388e-01
1.357885350599704055e-01
1.522561919386234974e-01
1.503598449498645129e-01
1.103550602358727845e-01
1.447673624268921433e-01
1.438946555126885407e-01
5.049830021420007031e-02
1.372050197115558534e-01
5.388276363058613211e-02
5.418828635413958789e-02
1.246178016131374022e-01
3.699329791530633904e-02
1.667279207473697233e-02
5.600119902557884610e-02
4.860126961273721069e-02
8.326336190089790590e-02
5.502420336041879967e-02
4.287643826880363496e-03
-1.616446189113591309e-02
4.418353656112189443e-02
5.643655052745207013e-02
5.857291490542400336e-02
4.121914675243312787e-02
5.724167137766293656e-03
3.953735962604301712e-03
-4.927081045034926998e-03
-2.391524583529320430e-02
-5.644907419146298622e-02
2.436284066605026721e-02
-6.701192665717829733e-03
3.081071356628835300e-03
-5.386236242023065279e-02
-2.187949930014775404e-02
-9.239031387081909907e-03
-3.565010237242662028e-02
-5.854555918738304360e-02
1.642797003306242787e-02
-7.526852372013781434e-02
-4.120851638486579260e-02
1.622120947740065405e-02
-1.130463796192266029e-01
-5.246293294404710816e-02
-7.266886619105719647e-02
-2.831076687836673114e-02
-2.269237569212839353e-02
3.204982682306012354e-02
-5.328527981001726643e-02
-5.239429929927880147e-02
-5.510919508782825132e-02
-4.985976142461835681e-02
-9.364869970154704459e-04
-4.609346562501259736e-02
-1.922380046965282280e-02
-5.731998574796595691e-02
-8.320177358671609902e-02
-3.887933617904216349e-02
-6.702301503690584472e-02
-2.760394547750045710e-02
-3.740497629000469337e-02
-3.500274220503939160e-02
-3.928752414118252823e-02
-5.827728706788137814e-02
5.791135634420116474e-03
-1.395506977212078448e-02
-4.078710852183597968e-02
-3.720713126732150960e-02
-6.129896140644836011e-02
-3.376393605128881481e-02
-1.522789010994945319e-02
-2.892022747152302176e-02
-2.451263024333309032e-02
-2.009060525651035212e-02
1.277117558727464824e-02
1.657598643750926581e-02
1.450943943782902201e-02
-7.872488121367607339e-03
4.445630992009263344e-02
1.681633241061337991e-02
2.140731974050222308e-02
7.537533123648557098e-02
5.025692305319377773e-02
2.942588718638237955e-02
6.815362040236272456e-02
6.160117348168798329e-02
-1.707487170417999744e-03
9.183917063580125661e-02
5.113959872745105217e-02
7.527299385146243860e-02
6.822370974567003310e-02
7.593929987333783438e-02
1.142500787513178184e-01
9.532560039718246392e-02
9.827781617216821419e-02
8.650918229360110567e-02
3.207624415193068013e-02
1.405421806517187511e-01
1.108572494829840882e-01
1.685558276501282204e-01
1.059284780925112968e-01
8.773246465306133723e-02
9.988472058279253274e-02
7.488051393121034072e-02
1.388445089929312148e-01
9.835522543992425426e-02
1.109936756158846349e-01
8.892070291408903093e-02
7.344527331462281927e-02
6.044630843256804803e-02
8.873222852977948050e-02
1.027634597185595189e-01
1.112905361375246677e-01
5.921569358327208321e-02
3.985741337583751515e-02
9.985612735298440845e-02
8.854841037411727289e-02
4.657831784886310583e-02
1.146940847374972733e-01
1.541190164285981268e-01
1.799170327066414721e-01
2.388511440312582335e-01
2.451412690282815110e-01
3.458001832569951306e-01
4.019026284908194246e-01
4.779515581026981264e-01
5.505123180082692746e-01
6.384922844908913486e-01
7.160692931866524669e-01
7.716936148840950471e-01
8.766203568036728955e-01
8.733736563559419963e-01
1.002259479518775365e+00
1.006114028707938868e+00
1.069475158892764011e+00
1.011193385567513037e+00
1.029719112016115767e+00
1.009695545458799915e+00
9.068870473586430059e-01
9.135958968530399904e-01
7.818074745214830257e-01
6.708750395515461484e-01
6.202685967617241891e-01
5.178692686411059398e-01
4.533607612013205168e-01
3.368298581263539648e-01
2.869687610227284469e-01
2.135303508811944584e-01
1.620287568918384324e-01
1.334609661444640383e-01
1.296433415688635904e-01
3.984803221249481886e-02
4.285763184072788334e-02
8.201777684561727122e-03
-1.225723456014839174e-02
6.722673769428377799e-02
-6.215473827158597003e-02
-1.543967016247337065e-03
-1.254556392163934386e-02
1.345897801308421071e-03
3.931070033066900310e-02
2.635541362196332227e-02
4.233609645278693656e-02
2.512944959062241718e-02
1.323109405386368315e-02
1.143382258399527340e-01
9.067497187004261439e-02
6.165102105085868561e-02
1.040590263723713826e-01
5.587986370821371174e-02
8.480979299265647975e-02
5.833081578613955737e-02
1.178642819355858323e-01
9.875588635566359685e-02
1.236055880859932010e-01
1.253551286217464422e-01
1.224180520628627700e-01
1.236569404625524615e-01
1.779743024626300185e-01
1.698048581295560355e-01
1.329103331111702313e-01
9.755956376953632547e-02
1.527148622380794796e-01
1.440185565170621074e-01
2.070042695666667321e-01
1.543216420593060689e-01
1.650189835592268395e-01
1.602762240866484056e-01
1.870663849116379063e-01
1.878596140640978462e-01
1.974280817283278200e-01
2.504949827686321351e-01
1.858963542759312360e-01
1.776383063715303856e-01
2.310034601546369637e-01
1.839027334206445319e-01
2.082288377802473112e-01
1.903649870169942249e-01
1.871876213448081250e-01
2.108804404108548525e-01
2.439396216034311893e-01
2.271798661161603672e-01
2.375642337514858593e-01
2.158106493166820350e-01
1.927175838059480284e-01
1.472509138212609314e-01
1.657115907021593781e-01
2.385764017304281559e-01
2.155181461058395809e-01
2.188091055965009080e-01
1.303557324387198957e-01
1.916571128236225219e-01
1.396161367351158311e-01
1.220582570165171521e-01
1.640167465007788539e-01
1.644583389631465165e-01
1.555519305035256150e-01
8.126561973668669503e-02
1.572428009617963252e-01
1.104816039720608323e-01
1.133204974694409783e-01
1.578048819909761424e-01
1.070874235047916678e-01
5.747217206744879153e-02
1.200037532046673017e-01
7.802589939714379974e-02
5.922079513030115844e-02
3.711653497190136458e-02
1.047111906518418123e-01
7.313634077291705782e-02
4.570255333494467609e-02
4.418375579102239853e-02
6.658629763013777791e-02
3.714738510439417885e-02
1.831437589643299807e-02
2.057804050745205837e-02
8.566331310930189180e-02
-4.588859360491952949e-03
3.620548126503125852e-02
4.912525273029575562e-02
-1.004627360324280433e-02
-3.740858557841043180e-02
2.572797119866693932e-02
5.571428884293613826e-04
2.263163608759757167e-02
2.151039898059649985e-02
2.118248150100522642e-02
-1.903722724323759358e-02
2.171513670253730904e-02
-2.505604353775273130e-02
3.401326874227475483e-02
1.686136930244899745e-03
-3.721864535899067905e-02
-1.310148252382110912e-02
-5.290122593589848682e-02
-3.036740185988173746e-02
-2.461122102389747685e-02
-1.575695979422942275e-02
9.057619922340560958e-03
-7.141564760430551412e-03
-4.041543245862656841e-02
-3.062347875749377168e-02
-2.075024482498363798e-02
-1.524514863780253304e-03
2.926705037574861210e-02
-9.502380635373723627e-03
-2.942481653097887145e-02
3.788092761278627485e-02
-6.952301163744448176e-02
5.086019744562908507e-04
-3.240786296836976887e-02
-3.385911567510399567e-02
3.489346534578642578e-03
-3.770933457765949376e-02
1.611738330117675616e-02
1.941867218973095111e-02
-1.834536110021705441e-02
-3.367594180609236043e-02
1.707122765441695944e-02
2.012603723717622251e-03
6.556713561879576324e-02
3.460652155725597867e-02
-2.240986208092829446e-02
2.751082798857165321e-02
4.474660786128213663e-02
5.946451200129242165e-02
4.401309690714406281e-02
9.123854015903734571e-02
-4.946031138506595121e-03
8.636413307847765064e-02
2.923667495612303907e-02
1.715713441950829712e-02
8.108038146775965738e-02
5.820159529801034043e-02
8.963795368604147995e-02
8.242317779840138692e-02
2.449703023832541793e-02
3.370301171324993628e-02
9.336154925729948928e-02
5.689867825007741131e-02
1.558617749241203443e-01
1.201978080074290606e-01
1.380636955417806344e-01
1.026590219576197782e-01
9.468925832612609672e-02
1.422922288647290590e-01
1.316694378214527672e-01
1.494157710048993060e-01
1.944030100875029921e-01
1.331048689002408414e-01
1.481932637329873848e-01
1.463063722314278947e-01
1.475134550258778987e-01
8.926640347021276567e-02
1.671368994923431717e-01
1.000499467024932032e-01
1.094341731942418128e-01
8.467391827249612368e-02
7.154342515500020094e-02
8.189879497247044837e-02
1.278180844041014730e-01
1.233507615759774356e-01
8.055285914157370164e-02
1.194725944589231925e-01
7.988685141850923599e-02
8.812986783033867344e-02
6.107994015379028530e-02
1.344937462436661124e-01
1.242296193165965540e-01
1.231800360180832499e-01
1.560244152302656395e-01
8.187813094672019565e-02
2.019932703028763654e-01
2.716677642800846559e-01
3.680048048546674666e-01
3.863408517995197688e-01
5.167537038888627698e-01
4.835858138594055222e-01
5.668662969905117199e-01
7.374399006830533176e-01
8.430479655918686754e-01
8.680517679333522585e-01
9.066996148300887626e-01
1.009221835973612702e+00
1.032123321744359501e+00
1.083656308341877317e+00
1.053328325413455113e+00
1.130664097638600873e+00
1.111717723761773691e+00
9.853922475159135885e-01
9.228909253032027138e-01
8.099217722000945363e-01
8.292195467363649986e-01
7.001709938535041200e-01
6.049981021751776877e-01
5.762299100350838366e-01
4.286127656940693087e-01
3.697087817432624934e-01
2.858066145705085992e-01
2.862415130359690085e-01
2.147294692346148337e-01
1.359297059881124370e-01
8.787028956729883711e-02
6.659296850968597636e-02
1.083467548200223313e-01
7.446274157425718243e-02
5.290928205712624316e-02
7.261293597472145978e-02
1.597180020879891693e-02
7.907374041652759367e-02
5.338575251143298089e-02
3.320145969783999673e-02
4.131415845850053281e-02
1.068844791723226328e-01
7.718921459749185365e-02
1.477525891292352234e-01
5.895573485389880158e-02
9.215998130745292616e-02
9.844192902280049506e-02
9.131019678789503713e-02
9.518485290668078636e-02
8.622244099834949771e-02
1.364879144054945148e-01
2.010569380872633816e-01
1.360164035699889806e-01
1.236109510316409782e-01
1.972768941945195476e-01
1.388666402064159533e-01
1.409308779116383581e-01
2.160144019349487798e-01
1.922030831502926085e-01
1.839539157496523913e-01
2.027487888464036547e-01
1.755214705275159326e-01
1.954145592707678125e-01
2.324854664771135726e-01
2.063042403177161033e-01
2.263451498566927955e-01
2.373319527880621838e-01
2.526876454589638832e-01
2.650413283018017152e-01
2.652677600136308378e-01
2.490372527812122760e-01
2.830276227430459923e-01
2.902338412279604762e-01
2.982462055061370632e-01
2.098765608522973336e-01
2.479627553179078181e-01
1.921472988560337658e-01
2.759541624808177773e-01
2.917734822825704954e-01
1.946394794644054349e-01
2.729023981465455440e-01
2.125076690531260970e-01
2.504868482397672458e-01
2.865793857551160451e-01
2.424300588593898131e-01
2.237382919153863836e-01
2.263219706144612986e-01
2.097603010117772282e-01
2.678700492978725034e-01
1.869031995245958033e-01
2.042286350919245153e-01
1.375313430665858483e-01
1.452359695146252239e-01
1.766558832279130076e-01
2.223283446504365768e-01
2.595118628432906416e-01
1.918110358475054456e-01
1.815191219459605931e-01
1.200667298236717112e-01
2.004738638374186366e-01
1.822684837293104543e-01
1.882279835787978028e-01
6.527547479176094847e-02
1.121816268797825589e-01
1.321676484017826891e-01
1.211367522229834931e-01
1.863522781104226256e-01
1.241648702592419717e-01
9.081421613762949430e-02
8.520299417265951580e-02
7.735888186085985996e-02
7.765167124455285563e-02
1.040151994299330918e-01
8.264297040479737233e-02
8.279138920690924663e-02
1.164293694023832426e-01
6.362476647646329864e-02
9.951734073892225252e-02
7.106410763770126815e-02
9.627488414561304053e-02
9.641094889352333497e-02
4.211198292434468332e-03
9.457541494200982085e-03
5.097981096118320288e-02
4.747226178180487949e-03
3.047293330752846169e-02
5.325904650335014368e-02
-3.090273318780250786e-02
-5.365973799616396978e-03
3.206592367231309026e-02
6.450445541215094059e-02
9.181317891283261035e-02
3.443882953470903813e-02
4.701121824745725652e-02
6.387687109037873401e-02
4.416913031584095845e-02
5.782918694288503858e-02
3.587516359528034049e-02
3.391448998813025029e-02
-2.704655461269658834e-02
7.877799371808551221e-02
2.674815537874678656e-02
1.752072427346030442e-02
5.998399960345129206e-02
3.614599947611147474e-02
-1.336356389673032039e-02
6.610675551534529737e-03
1.100358308650250388e-02
-1.951888164555265481e-02
3.526565138888565487e-02
1.471682058267353294e-02
7.005530889911594505e-02
-5.975010785642793226e-03
9.526899800413988692e-03
5.654052648879977910e-02
7.972486661204666869e-02
8.637904918463708281e-02
7.192323601594828586e-02
7.020440235941916018e-02
8.529840130929625119e-02
4.622832771557128934e-02
5.787314219134453985e-02
-1.911785548618379071e-03
-1.275685999041112351e-03
7.970703056470734849e-02
4.887250758307989246e-02
1.077960824751049151e-01
1.196244480656251108e-01
1.084471241517660778e-01
7.568306207564173826e-02
9.241951976393286694e-02
1.125123223526274946e-01
7.806351702657085556e-02
1.396876422724819822e-01
1.376764410103988867e-01
9.623367689878548070e-02
1.465897268440186085e-01
1.677503868435539780e-01
1.904408056162587570e-01
9.073129164931044432e-02
1.332484240740252068e-01
1.814466628559062711e-01
1.564714718202191712e-01
1.690092699794108200e-01
2.018513558335929270e-01
1.656954272534556516e-01
1.954797290304230162e-01
2.203342571973464503e-01
1.595158336528449683e-01
1.856607196013468353e-01
2.247008936827518122e-01
2.069933051957068004e-01
1.836625934790669101e-01
1.226281176752543611e-01
1.373867760547168304e-01
1.353988945795954468e-01
2.343026908965452071e-01
1.676766460279822679e-01
1.113584253143204972e-01
1.492146379497062414e-01
7.148967188418195451e-02
1.664915222928043392e-01
1.376329223182082007e-01
1.147101246652262041e-01
8.393542752067310875e-02
1.938914937671619987e-01
1.574123568033578835e-01
1.572790150519801089e-01
1.435306327855394581e-01
1.708268826446877053e-01
2.611799084176529839e-01
1.894853972123551056e-01
3.448756618804967311e-01
3.209440127888910088e-01
4.036011490554552994e-01
4.403662459879733593e-01
5.290190182573044630e-01
6.411949982422482375e-01
6.895827284501089283e-01
7.940937912226492257e-01
8.768814581417910814e-01
9.200532099397985553e-01
9.499131060200577403e-01
1.079947972016295665e+00
1.081976249602116358e+00
1.118772998820169784e+00
1.141117184938839291e+00
1.109191764063630847e+00
1.106542249227586039e+00
9.945289207982326296e-01
9.831247732122996297e-01
9.271631208387999257e-01
7.947208894294524040e-01
7.039969726747584700e-01
6.519745220174595346e-01
5.563444886424639968e-01
4.361472934964080173e-01
4.084228660824513191e-01
3.173011016951589602e-01
2.836573506785672327e-01
2.703629410343532102e-01
2.460862235174964552e-01
1.716078098861050227e-01
1.245016482874496122e-01
1.300629185635858720e-01
1.598144365284701329e-01
1.135797543528540149e-01
8.599830106870584578e-02
1.109309648432164896e-01
8.948785226207359167e-02
9.231455557357695629e-02
9.324410693958062879e-02
1.227637986200662001e-01
1.257921620664552709e-01
9.143118595990820663e-02
1.821025586906097338e-01
2.124420371860893941e-01
1.086029313349063247e-01
1.624095577188409689e-01
1.194866131202890064e-01
1.844017424795970361e-01
1.617578844297989926e-01
1.840741020612691181e-01
1.801147584253358913e-01
1.585751960841867425e-01
1.599220786770556013e-01
1.268614688006168556e-01
2.003312917714226982e-01
1.993431352194777184e-01
2.898365126064822994e-01
2.468310198605762062e-01
2.346013293288554957e-01
2.276970780375178194e-01
2.871821196214869865e-01
2.841148573428675661e-01
2.190576575749904054e-01
2.545109199094484631e-01
2.887258141334491102e-01
3.408480854749510458e-01
3.204234664707139579e-01
2.364582158667967171e-01
2.565053861228860921e-01
2.630306125489597635e-01
2.961053557440956330e-01
2.571297673206265344e-01
2.524831696992330121e-01
2.798371690789062671e-01
3.020574481701739922e-01
2.946642513689735066e-01
2.789150397861334119e-01
3.208163103238703684e-01
3.063527286718313869e-01
3.144357544170094942e-01
2.560958334812136195e-01
2.519924238675738115e-01
2.875728221816927221e-01
2.795294181440299841e-01
2.517790330551898936e-01
2.643568772208289008e-01
3.174046148068380702e-01
3.113042177214642159e-01
2.304214812555058223e-01
2.215887928627293113e-01
2.183781475613911782e-01
2.528905780172778783e-01
2.277491712740011554e-01
2.091662569560616691e-01
2.879693447081017599e-01
1.914873249972162683e-01
1.890903685156160585e-01
2.235711760720326957e-01
2.019247308171279731e-01
1.855826781877235043e-01
1.976064563475744551e-01
2.261379729096554547e-01
1.441432297850176181e-01
2.086359626301490799e-01
1.677631127739836470e-01
2.119758166135709554e-01
1.433538098516893566e-01
1.582996431223204215e-01
1.915841302232892396e-01
1.452360102170415779e-01
1.498443125287782229e-01
1.227876605775567453e-01
1.366043297342100504e-01
1.258793976219058919e-01
1.292129504025595621e-01
1.057217116367342308e-01
1.157722101061516851e-01
1.169468137548786424e-01
9.258880898615316768e-02
4.645812655143381070e-02
7.479498653900376604e-02
1.315615814342494805e-01
3.262011057407512155e-02
7.785435342524725522e-02
8.431492642927801429e-02
6.070317987512132557e-02
3.485004109618373980e-02
3.468083324763604480e-02
1.261712297256944726e-01
5.153583164921236859e-02
1.049836143428231616e-01
4.306973296396710699e-02
3.743028982228685519e-02
5.037916036533254815e-02
8.430842923205489337e-02
4.733127783473417560e-02
5.370531963834369871e-02
4.899135716706460447e-02
3.206639011590068505e-02
4.043850959194279088e-02
5.837257207685719873e-02
1.829543632370742717e-02
4.803702895484426166e-02
4.878982756951198013e-02
3.801625512652093142e-02
3.482595071617108906e-02
5.278947229231936711e-02
2.780291080777633900e-02
1.787563119088511621e-02
5.852346344230456576e-02
1.424148753491041863e-02
5.202950894301782564e-02
6.803177098588558680e-02
9.239810054070787815e-02
8.721319547328464095e-02
4.258133871847384622e-02
8.330847763366500125e-02
6.765097919041061780e-02
7.420865405945803461e-02
9.356656093584841960e-02
8.772043783716777787e-02
7.151482548359808233e-02
1.413398593119515739e-02
2.026090296270454533e-02
7.827562753308761612e-02
1.265938178876542808e-01
1.461301986765708438e-01
1.013350228508144990e-01
1.250044174710149003e-01
1.649126801827441313e-01
1.181040133125654118e-01
1.046053825313957575e-01
1.460422338994211144e-01
1.421033052770802052e-01
1.725922717314777310e-01
1.529749645585875562e-01
1.438997746203273809e-01
1.632556896500595156e-01
1.824116605358206133e-01
1.749877280392582724e-01
1.734734988939005962e-01
2.072810876655902801e-01
2.598933204092254146e-01
2.331098954009565016e-01
2.087155998536596169e-01
1.456193933983890854e-01
1.599591480247499198e-01
1.271286982043472180e-01
1.994080373860288857e-01
1.678016147146549897e-01
1.386461658286063658e-01
1.981104528290330291e-01
1.956042084959369598e-01
2.291091617006257297e-01
1.919192950188098323e-01
1.913493583594898517e-01
2.206449967108028432e-01
1.753371906637477273e-01
1.825583524897286813e-01
2.020137269560294546e-01
1.385849200917185775e-01
1.877810397114436369e-01
2.104080635629902440e-01
1.488471714734204976e-01
1.804567571226533551e-01
1.561769541636237046e-01
1.740800976725745131e-01
1.545931132831303567e-01
1.460299994147083724e-01
2.397935495363210101e-01
2.701085962561765030e-01
3.000445895913195216e-01
3.194374878873567081e-01
4.262012929119394777e-01
5.459397183798805342e-01
6.071724210887179396e-01
6.372556098370566469e-01
7.622229127970203688e-01
7.734873731718225898e-01
8.266588226849195253e-01
9.019755071198976015e-01
1.005433362896047234e+00
1.112078466747683514e+00
1.117401642437751752e+00
1.111666781055306474e+00
1.126331679985705048e+00
1.066818023282511518e+00
1.141767778185790005e+00
9.897424874720495147e-01
9.181867233054203936e-01
8.650761400520746713e-01
6.932185604846287097e-01
6.938943270257720286e-01
5.803100307008165482e-01
5.329807642754217367e-01
4.383949425020081669e-01
3.748476666655543577e-01
2.625797593708802391e-01
3.210339173549532354e-01
2.202877625721199051e-01
2.003025081632568427e-01
2.134881845613930129e-01
2.277885665196947296e-01
1.296149078981961300e-01
1.264867300216041268e-01
1.102366798501412254e-01
8.976164125400903915e-02
1.172481752882871958e-01
9.733121833367186504e-02
9.218157986788885760e-02
6.872057183043253636e-02
1.365309237168660095e-01
1.777904807823113831e-01
1.371457514092035423e-01
1.341349778209780519e-01
1.210541508397419697e-01
1.676420745983732141e-01
1.222705070034271896e-01
1.671983001931784396e-01
1.645433683181092288e-01
9.906925449009762463e-02
1.530217780669900496e-01
2.074671012829694128e-01
2.197133795343145235e-01
2.675475029699401208e-01
1.795429888275650032e-01
1.818089539480226557e-01
2.305351361101294350e-01
2.163335443891896970e-01
2.047763474361144198e-01
2.477967173160851577e-01
2.610394479647565880e-01
2.942300798433804543e-01
2.285441277743867905e-01
2.218875421697751316e-01
3.031130678587109495e-01
2.313980412706582446e-01
3.087889626052016112e-01
2.425066992925096476e-01
2.388288391008016875e-01
2.994908346640966501e-01
2.774016440516337001e-01
2.775152838975678549e-01
2.833296157392027337e-01
2.440938836430318615e-01
2.598619297049987176e-01
2.862565930768928291e-01
2.721943061225396976e-01
2.453874235598499376e-01
2.915242156844906618e-01
3.164727699897124102e-01
3.138349283402191991e-01
2.303757523710758259e-01
2.802032905260378737e-01
2.448765774634307779e-01
2.258948837573905022e-01
2.355334419270846413e-01
2.085150115994742759e-01
1.926767624299559889e-01
2.521339716082703353e-01
2.529479120184219276e-01
2.674159204060543860e-01
2.609366888280028052e-01
2.538761570311228177e-01
2.060008416889514415e-01
1.776951898901562854e-01
2.243219701648589970e-01
2.005506649223600668e-01
1.336462782529022064e-01
1.809204161764295660e-01
1.589818657661223322e-01
1.721264059421701575e-01
1.501675030736086269e-01
1.785759643261536633e-01
1.397598260892501665e-01
1.712934035813202249e-01
1.881189963646350272e-01
1.125049074374058766e-01
1.068284740241743080e-01
1.340433969778751233e-01
8.917590988103880900e-02
6.893109067029309922e-02
1.200242495417432054e-01
9.240440193569597616e-02
1.439103173934473123e-01
7.243982334713527926e-02
8.220819348349225897e-02
9.300963796787822813e-02
9.651041859427252068e-02
6.881475072144772887e-02
5.317767187995972589e-02
7.666517409418630025e-02
1.066031736024756205e-01
2.304286669977718277e-02
2.777221290620082370e-02
3.983569150111989504e-02
6.407146600055729779e-02
8.279977691651493887e-02
2.630593987610107404e-02
7.624589644638481156e-02
5.234623743647648375e-02
5.218458360470311364e-02
-4.111899980402719534e-03
3.417055268858251033e-02
8.275669247478889545e-02
1.096485972620928062e-01
4.412965308431195111e-02
6.706561253357239127e-02
6.595214051361300567e-02
1.645040265006926170e-02
6.342922716930893268e-02
3.335447558175588106e-02
6.072431130751396178e-02
1.011394895830354870e-02
5.691058879967439421e-02
3.119879205731118654e-02
8.120493718439918129e-03
4.608717231855011948e-02
-8.872221662835397260e-03
2.471839691236345921e-02
4.436201356431851428e-02
8.857782824445326053e-02
2.325830435870635676e-02
3.229704714542845634e-02
3.457083142375728252e-02
3.473120745381454849e-02
6.866512609628093455e-02
4.421635460149775376e-02
1.240996948360578722e-03
3.770055285431041237e-02
-2.674050469133892188e-03
6.853332900704350861e-02
5.364683747547865922e-02
8.393569328775912775e-02
2.691406048281864624e-02
9.705451476471903260e-02
2.470265588329166248e-02
8.515338421040760664e-02
8.577393321996353015e-02
1.071569336591216837e-01
8.883765109812502558e-02
3.746575677499572321e-02
1.125773596593289544e-01
1.112690718295324954e-01
1.244987318650077335e-01
1.592047435754326279e-01
1.347046398886055096e-01
1.629185254466360977e-01
1.424749796508231192e-01
1.164351869733206979e-01
1.604779275121273052e-01
2.032186942329144153e-01
1.815472332649930576e-01
1.452498643813803503e-01
1.404523598337959478e-01
1.702435669562205045e-01
1.473882264319824886e-01
1.727232584736866361e-01
1.588084179828498643e-01
1.889513744471637557e-01
1.166384995596340818e-01
1.553566645167048232e-01
1.906924067417762880e-01
1.438607478173378473e-01
1.345789528898751752e-01
1.634386919035825114e-01
1.691747920250772641e-01
1.888024583735064821e-01
2.099307434211358236e-01
1.926731346864373751e-01
1.135033550626412535e-01
8.270195606033982350e-02
1.259763658584819312e-01
9.219158342257206817e-02
1.175650218554006587e-01
1.706642211659150643e-01
1.814408791661683007e-01
1.392113412775510539e-01
1.682129393102189396e-01
1.507134790566938831e-01
1.565997261347978897e-01
2.205303118300330767e-01
2.061091931719797876e-01
2.514794016503434371e-01
3.593536112656497972e-01
3.569358349601310376e-01
4.648169920189486604e-01
5.253468511877914526e-01
6.397494979749875910e-01
7.112125752258466882e-01
8.435636854017795061e-01
8.876009592624176658e-01
9.373583595146748326e-01
1.013837085500450375e+00
1.028549854803380015e+00
1.050209670219049762e+00
1.060141978516882855e+00
9.942082595166658043e-01
1.015870954176657737e+00
9.767465422449691514e-01
8.820980911697132720e-01
8.717667777089258552e-01
7.469212614979628961e-01
7.574097001213917491e-01
6.072766346932970682e-01
5.403840035990611357e-01
4.361720797795132776e-01
3.399328986859986301e-01
4.036117653765438074e-01
3.014992558544609125e-01
1.394225700566644188e-01
2.068490906180284195e-01
1.211623465431591884e-01
8.225812138701356357e-02
7.491343468376805703e-02
9.411999218967014025e-02
9.832765847418305227e-02
5.110621259473933226e-02
7.537768614300845160e-02
1.226798812165807474e-02
5.621642877888987505e-02
5.758647810789314925e-02
6.741417586715359178e-02
5.773502370743225504e-02
2.679766049965724706e-02
1.245757770295950473e-01
1.215643847910519437e-01
1.193217624625050044e-01
7.934348365345353371e-02
1.415414104211371871e-01
1.133319558566495966e-01
1.482414618902072323e-01
1.144589845629688241e-01
1.067554502119541782e-01
1.101449253158185704e-01
1.754835036530657810e-01
1.544656013691794172e-01
1.535001026237456656e-01
1.689369339684979043e-01
1.504287643671519958e-01
1.914948058419168042e-01
1.381665937624607654e-01
1.834750091923231241e-01
1.454073397468036155e-01
2.025526996300648364e-01
2.362827585081448412e-01
1.400401421421719472e-01
2.124641402362462406e-01
2.284134162000266699e-01
2.510965063010147102e-01
2.170399524675654113e-01
2.069048375882180935e-01
2.537182756330511602e-01
2.571623767564921725e-01
2.160178010190830500e-01
2.433659016105396422e-01
2.595018773445566529e-01
2.004025792907786763e-01
2.785745746605802764e-01
2.485717175765986275e-01
2.642836297031211368e-01
2.430856605828575212e-01
2.487859090770899173e-01
2.245723002680242997e-01
2.693273211866646366e-01
2.861550551304181123e-01
2.330513470140374299e-01
2.686317169346852385e-01
2.337940006117078806e-01
1.608448730258936199e-01
1.941151163105762634e-01
1.978260379929190904e-01
2.476205748530184436e-01
1.759284835167211902e-01
1.626773527410158293e-01
2.028389788928760540e-01
1.813006670458729430e-01
1.734167007928170134e-01
1.795887299782660818e-01
1.416939991306966629e-01
1.417343854840449335e-01
1.318052395008470212e-01
1.585148281080307198e-01
1.432202540262569324e-01
1.642285439037334538e-01
1.022533963735937357e-01
8.802040137671379716e-02
1.247735569752538576e-01
7.641978380479308441e-02
4.813509427800487239e-02
8.630936155586707570e-02
1.104302311704928874e-01
-8.142435779669512930e-05
2.761958996642785089e-02
4.809978528036031736e-02
5.232380274962482314e-02
2.669151341595609253e-02
6.718264761535818613e-03
-4.631413332377716519e-03
6.419551060702839707e-02
4.572278500525413236e-02
1.731859129417817611e-02
1.893478756806961719e-02
4.054667452657906984e-02
-1.406879251934786343e-02
7.377818849640255250e-05
-1.897409190008435970e-02
9.850904685381724202e-03
-1.724033014448607751e-02
2.846681125476473173e-02
-9.017605234175211926e-03
4.165678717698621109e-02
1.733409476496146698e-02
2.467478480167141497e-02
-4.949119965878068239e-02
1.389773261990866204e-02
1.771800143307876441e-02
-8.388543145335425333e-02
-1.979010522903251745e-02
-7.542855368727043042e-03
-4.323296625638982371e-04
-3.852952628362930898e-02
-2.742116270988686350e-02
-1.605441757008709003e-02
-7.281872510930331027e-03
-7.951353975707899091e-02
1.825897799818055472e-02
-2.127554568551846478e-02
1.895490406864201727e-03
-1.896057406408403756e-02
-5.236608938713773614e-03
-4.126083582777564235e-02
2.225525389199619827e-02
-6.040473717154189182e-02
-1.887517740213463802e-02
-7.847271555559511003e-03
-1.842126784372735693e-02
1.086841324517191787e-02
-3.741481937306537220e-02
-3.921008091972529030e-02
-1.251908604585937057e-02
4.196696377692148150e-03
-3.927892879615035859e-03
4.989201469030320885e-02
-5.386922850902264859e-02
2.836834109311230090e-02
-7.555464500418569013e-03
6.745049085119482479e-02
6.245761910887309004e-02
2.908773167799664702e-02
1.971717549064318925e-02
4.554051629045913208e-02
1.225587036118401529e-02
3.147538477276799751e-03
4.368781867541428332e-02
4.991428782155234167e-02
9.523643251317234770e-02
6.891953310501366947e-02
9.653661934168640546e-02
1.179766614158556659e-01
1.225040845080643120e-01
7.873958478636550185e-02
8.477550152670287886e-02
7.263224913893887025e-02
9.044612155324391334e-02
1.411933343316975065e-01
8.328585567142754442e-02
1.874458786789112985e-01
1.158833960957910553e-01
1.244753934943007845e-01
1.917657656957461598e-01
7.906561523874969244e-02
1.128224364220562215e-01
9.775430959629810568e-02
6.288490662929847874e-02
1.181899280442522404e-01
1.256671891212267078e-01
6.440363305631960356e-02
6.915795077251538081e-02
8.166667289101194049e-02
7.466548848484666490e-02
6.878377044561834186e-02
1.130056329575481744e-01
6.877885106292985773e-02
4.226999289013141231e-02
9.409973393721987600e-02
5.364112409161490846e-02
6.676847654123448106e-02
6.441635415139580767e-02
1.105288288161711263e-01
7.033347832549227685e-02
1.030420126490657340e-01
1.421854782182730426e-01
1.508768011482192473e-01
2.620495128527868811e-01
2.876722082367860200e-01
3.450182533045882960e-01
4.425594819563673510e-01
4.733701633902865913e-01
5.330444362342319220e-01
6.024565605045787420e-01
6.479011061364892132e-01
7.985937633229226451e-01
8.424575881889502238e-01
9.320032888770974910e-01
9.701617229903868322e-01
9.811031107040569799e-01
1.091414079787900837e+00
1.001536547002516819e+00
1.060926791538750802e+00
1.050768688904140546e+00
8.755784375868697067e-01
8.969316605177791724e-01
8.321393422193777978e-01
7.347516847412820518e-01
6.927533308026868619e-01
5.454957537068332307e-01
5.155624093629169735e-01
4.131386801959576749e-01
2.829410824348047582e-01
2.459785724976221721e-01
2.222781308723557336e-01
1.015751422449378827e-01
1.176531921985165818e-01
1.384569059711762418e-01
4.993852820864620040e-02
1.786666185910554261e-02
3.829914391546758445e-02
9.173320691494810109e-02
-2.760193229615709454e-03
-6.453890850818752578e-03
3.574360590775230162e-02
4.465985104890056456e-02
3.040671354467955334e-02
-9.475413679011689128e-03
2.207885859151387936e-02
3.019694132844299994e-02
1.113674668488059266e-02
6.530167525423186126e-02
5.225994953951931810e-02
8.992781980088541960e-02
6.042019457397541926e-02
6.683858672707013171e-02
7.262468808013644583e-02
5.122220635547080486e-02
4.329426852596654496e-02
1.102549693747550408e-01
1.286676351134266039e-01
9.140632847396597260e-02
9.092098953089738922e-02
1.174369271932028669e-01
1.549878511632412081e-01
9.665437504730781115e-02
1.521761583424542930e-01
1.299826955160615916e-01
1.862218857181422160e-01
1.630150086001922183e-01
1.964541150613765830e-01
1.792966439095289022e-01
1.900848509655374552e-01
1.715371765780080437e-01
2.060139673289495543e-01
2.004837894235815821e-01
2.086132763411090996e-01
1.465297272236399384e-01
1.853033396173741354e-01
1.900514877390857837e-01
1.713538861292902560e-01
1.952420144626427767e-01
1.934901796646881778e-01
1.610063087325948605e-01
2.082627602901579722e-01
1.936391371168694475e-01
2.144789428740519199e-01
2.280366322615915431e-01
1.733868085230076683e-01
1.243318798449418727e-01
1.762770126039775176e-01
2.261941513063615850e-01
1.976999911660731746e-01
1.951538011177377796e-01
2.303731019868531238e-01
1.176499738375574866e-01
7.420427224661151067e-02
1.806574636717651061e-01
1.657484950939535628e-01
1.343506265018235279e-01
1.327933213232975751e-01
1.115550004740029355e-01
1.323002981126516486e-01
5.754488389488227051e-02
9.892014105664109769e-02
1.001522235557354701e-01
1.772125516388518562e-01
1.303388049764856726e-01
1.253894175912773634e-01
1.028215403815469081e-01
6.421680010781971593e-02
9.050165135393289928e-02
9.132205023067616056e-02
3.755182888473665437e-02
8.681411636542840649e-02
7.729490094190483163e-02
6.384047501454620521e-02
8.477372025679434653e-03
5.885964831465913261e-02
-1.002588351988187299e-02
1.776312886327087448e-02
3.749572337193205623e-02
-2.513613039850282060e-02
3.047466025089123898e-03
-1.797870488783075843e-02
-4.467784033069229638e-02
-2.076055901751180238e-02
2.517926753024822550e-02
-2.900909706972951141e-02
-4.277793866808810019e-02
-4.974453035476091023e-02
-3.874699143978199700e-02
-6.248270352347033707e-03
-3.460854612023978732e-02
2.203623184674569080e-03
-1.277603311553077853e-02
-1.448924948078025854e-02
-5.257546501201240674e-02
-1.084685612290269829e-01
-4.473646464242331255e-02
-4.879631097231555692e-02
-4.971337795932320724e-02
-1.515534691042652593e-02
-5.528128747152233347e-02
-2.185313591772707065e-02
-2.919842011859512948e-02
-5.280468949169418724e-02
-4.360631873978787487e-02
-4.235266247271828044e-02
-3.141752043739169664e-02
-6.296573049673256928e-02
-9.103496134770927561e-02
-5.608524130594108592e-02
2.370275734726312589e-03
-1.042607855100224079e-01
-1.299964878250729761e-02
-4.287720554228378195e-02
-4.197051966129348999e-02
-6.995425534314039795e-02
-6.413813217491379226e-02
-5.272373362228463534e-02
-1.756589910353302530e-02
-1.899906399401530416e-02
-4.489288496933804828e-02
-4.098669625597310684e-02
-6.140227803871106671e-03
-2.343164756223024489e-02
1.535232874039313411e-02
-4.924654447604072394e-02
-6.537950757038737959e-03
-2.262700400069331264e-03
5.245360820835064108e-03
7.941278340002334846e-03
1.829013752457837177e-02
3.154618627780265971e-02
-5.697659503528231667e-02
3.133946445484108584e-02
3.420374080414578799e-02
-1.142202254781025939e-02
-3.355678151303519152e-03
1.459357852394006783e-02
5.069986496292957362e-02
1.496532968873406921e-01
1.365430933273842073e-01
7.797797352348043165e-02
8.896716219892596145e-02
4.004150983708834599e-02
3.389237302546113662e-02
5.343773210393348849e-02
1.122725661705700484e-01
3.236608776042741720e-02
1.187063368140315323e-01
1.312897339949571640e-01
1.124635603837501052e-01
9.915475030055739825e-02
1.064399543561579120e-01
8.667697542551541789e-02
8.256083461228581888e-02
8.441487119549170859e-02
8.417093296709057815e-02
1.104649718756022109e-01
8.426731123098935017e-02
1.022166555716525621e-01
4.048422485208631738e-02
8.715600619202651389e-02
1.309649229968657680e-01
8.577811196349488521e-02
7.829501223547299937e-02
7.800932082531651657e-02
6.200042495898692996e-02
6.896373069738032102e-02
1.867878600539193967e-02
7.136826290479364454e-02
6.892270314479127802e-02
5.173729382404661237e-02
6.880952906809081893e-02
1.014356243652120987e-01
1.314812537332964437e-01
1.221914777314007244e-01
2.385201366679987056e-01
2.741031446599198063e-01
2.818739781664894584e-01
4.317557158705571663e-01
4.962073503620910153e-01
4.910177794726356959e-01
6.410913328655234444e-01
6.507947300157713721e-01
8.283228902776587077e-01
8.687699194688998094e-01
9.575871621237388442e-01
9.986949050959995633e-01
9.876666270615483967e-01
1.075911569028793480e+00
1.002384700460114297e+00
1.004102721149352728e+00
9.451902073439054641e-01
9.579836290785086472e-01
8.220853197787655331e-01
8.296770102824116977e-01
6.656514118769040200e-01
5.930206276532484777e-01
6.025459293340209577e-01
4.378567977580521409e-01
4.339779010574945639e-01
3.175520734497314645e-01
2.350124426636385488e-01
1.754252108901458718e-01
1.363570893440820553e-01
1.261507588765868881e-01
6.515030158621509804e-02
2.555128908296947637e-02
2.997151745431586578e-02
6.627200959277940173e-02
-1.066493297224364867e-02
1.130959708536003611e-02
3.254960997749792306e-02
1.256779258524193948e-02
4.455458929929895923e-02
3.688531964130905422e-02
1.269453012079089366e-02
6.418568980326631868e-02
3.787604687234891881e-02
6.519872424686701251e-02
7.175583685968300873e-02
6.303928983103321282e-02
8.361711183122744195e-02
5.527091829769061049e-02
8.778675726794815670e-02
8.093295605588077257e-02
7.272040715399880062e-02
1.126827816487168676e-01
1.137711471983785250e-01
1.550907126227047961e-01
1.176430705516898489e-01
1.205772268134409630e-01
1.532909050810714602e-01
1.348119989029914478e-01
1.844027774944068387e-01
1.651984628805830135e-01
1.406355299382547885e-01
1.761036733812532951e-01
1.705725570765671828e-01
1.571692855174327552e-01
1.356516290216112086e-01
1.831578398658610107e-01
1.628024296801071358e-01
2.453557024682877508e-01
2.109381890244990676e-01
1.887024881713736113e-01
1.726903461558915442e-01
2.286862568116632688e-01
2.393271711161790993e-01
2.765441993822945199e-01
1.833777778607873776e-01
2.188734478143731232e-01
2.676633116899067577e-01
2.585496369466513955e-01
2.286181833495770643e-01
2.151228740912157211e-01
1.932616339444687692e-01
2.380899374243538591e-01
1.812834881922832930e-01
2.040523523111682780e-01
1.694545494578880707e-01
1.914456485931847196e-01
1.950502742081085816e-01
1.602322736188273589e-01
1.668223812009956841e-01
1.384986967894294985e-01
1.561672686805408439e-01
1.786557591701731229e-01
1.653077797504852731e-01
1.876869125206606648e-01
1.542979771036135372e-01
8.959655746388568709e-02
1.573825410558683802e-01
1.515439701331453004e-01
6.533376608603913560e-02
9.859923576401911915e-02
1.181775972845175299e-01
4.058877353600669896e-02
8.313690143453866810e-02
1.581353613173511752e-01
1.327431885336455841e-01
7.212778784007858879e-02
1.313215973755555155e-01
4.445575720682196780e-02
1.014012946226066358e-01
3.015620724490962468e-02
5.838504347781402204e-02
-6.875739893625894272e-03
7.156878877998977539e-02
6.544124455688171693e-02
4.434023091529830374e-02
7.133727495917606409e-02
6.257340726125523722e-02
4.212479484177973632e-02
4.979053865766731868e-02
1.611245285286133297e-02
3.697093251913975004e-02
4.302680390665447607e-03
1.152562804402263927e-02
-2.658989252464256242e-02
3.527144400801422719e-02
2.396609241001261548e-02
-1.761081078907767578e-02
-4.752027639244841423e-02
-3.460056499221535187e-03
6.933402681532321865e-03
-1.745378889037040721e-03
-6.290378354140823552e-03
-6.707124784861490108e-02
6.350574419232109247e-02
-6.250017633210938617e-02
5.732388940753400247e-03
-2.065183096527511974e-02
-6.527224062351719147e-03
-1.146204600408354257e-02
-3.233856282845992691e-02
-3.027258658649119305e-02
-6.103900330767082771e-02
1.581528418539358133e-02
-2.594900864998004458e-03
-3.659443856577021537e-02
-6.890839283828621709e-02
-8.241170941920153425e-02
-6.547230887474991823e-02
1.787727505569970676e-03
-1.887650145942468272e-02
6.142176738930645030e-03
-3.686567695175846371e-02
-2.757521089986172264e-02
1.450028564441003739e-02
-7.047211961604316066e-02
1.627163752310463105e-02
-6.029407351571326734e-02
1.577451672872463503e-02
-5.928262142472643520e-02
-6.412989845725212967e-02
1.787038805130662308e-02
9.358596679673904239e-03
1.605275909425626576e-02
-5.647185775954809833e-02
-2.180127622293944259e-02
-6.154025325922300033e-03
2.298326916762457803e-02
-2.472005836002030832e-02
-1.217292172604464602e-02
1.140283259332610169e-02
-5.828985983120743564e-02
-5.241911940961406155e-03
-5.147455952622240205e-02
-1.581844809580366593e-02
-4.849291292743680357e-03
1.466928256759046298e-02
1.232634902260099780e-02
-5.926524160065084479e-02
-5.650731550861477770e-02
-1.688335582163247653e-02
-2.829443590302901587e-02
5.605960707396146978e-03
1.958158589243582520e-02
-4.894096999031414402e-02
4.015736101249334916e-02
