1.038248049117975080e+00
1.032891397601040095e+00
9.831932100032827471e-01
9.124021336943476390e-01
9.246237303910816996e-01
8.853563420964667419e-01
7.287602127168546495e-01
6.448124345954479031e-01
5.436789584695455035e-01
5.423680022926351540e-01
4.334501748867254922e-01
3.355924495662637175e-01
3.022311876228088723e-01
2.290172178749457499e-01
2.241445703026147818e-01
1.408467311494585594e-01
1.360661965722873568e-01
1.421729349276417143e-01
8.577893725012943060e-02
9.204279169633840241e-02
3.231947377044865760e-02
6.393391537076462128e-02
5.055821963120803175e-02
7.633621125792604267e-02
8.607499801644255544e-02
6.317513434351723633e-02
1.129873620642942167e-01
6.349459147081090715e-02
1.120880473030165941e-01
8.059713694058598388e-02
9.337318790075066488e-02
8.923518571026496649e-02
7.946442326841222925e-02
9.421385014677594039e-02
1.341531759882508557e-01
9.534785294745033724e-02
1.350857434127316070e-01
1.094478381096961606e-01
1.536070360043881311e-01
1.502245534690601070e-01
1.109069493150289798e-01
1.790069889554999349e-01
1.800307517736483565e-01
1.689191044863870284e-01
2.062849929086100764e-01
1.704298516112835726e-01
1.743418474855873146e-01
2.296957113505301851e-01
1.725183245391115894e-01
2.085562901459498686e-01
2.361746097279400491e-01
1.941752142103947143e-01
2.386990744612292881e-01
2.235343467612866952e-01
2.049157406739396114e-01
2.343116411822170619e-01
2.320757921198477458e-01
2.325436583376857547e-01
2.534830527826963942e-01
3.245894771380545274e-01
2.601860283432577692e-01
2.739297089512117145e-01
2.043886693598698512e-01
2.470161584293753820e-01
2.147134791465923342e-01
2.641530013204443361e-01
2.388679693667357107e-01
2.702745846882266267e-01
2.292405958706151547e-01
2.273054632074805459e-01
2.787728761063416050e-01
2.310032106921350303e-01
2.703437866596734573e-01
1.879822971667378662e-01
2.279876609399315024e-01
1.696929864367595908e-01
1.730859114591365433e-01
1.797486807402611797e-01
2.587298026351670943e-01
1.934798012562826963e-01
1.644146624165146175e-01
1.859277449307208951e-01
1.746674424368931389e-01
1.719014293354752254e-01
1.555645867232588464e-01
1.459101187998785853e-01
2.017487098975753734e-01
1.370606660981285030e-01
1.391511977305268377e-01
1.422504732725177190e-01
5.831758861001236360e-02
1.151728899414809493e-01
7.929603791782828537e-02
1.470963427774695520e-01
1.435828681227722392e-01
9.876013060643065722e-02
7.846048383359797984e-02
3.065129455196388686e-02
8.413004826167587435e-02
1.124668863790326406e-01
6.327097749904948831e-02
1.304766913543840279e-01
2.783866520998537486e-02
4.060208009845320265e-02
2.921919789922710481e-02
6.374428053241737446e-02
3.842867807157257509e-02
2.140348631175708824e-02
5.676982764102389556e-02
3.064072537172605332e-02
1.941407997239281980e-02
5.349132083893895495e-02
2.667844124195687533e-02
3.847393906402982178e-02
-1.598952413893839700e-02
5.659536038578949491e-02
3.827908690493220245e-02
2.712940871895618694e-02
2.570912020734280809e-02
7.271401632516574787e-02
6.777411462081872617e-02
6.622839542046607408e-02
2.575070158941950710e-02
5.659851971712946683e-04
-1.949504999929942139e-04
7.452806551188340817e-03
-1.003910957999409187e-02
1.701336246567163729e-03
4.020497938325515858e-02
-2.579535909666359067e-02
4.679116333777846859e-02
3.091169805576837737e-02
5.456800061813582570e-02
1.095975639938025215e-04
7.587585704880045814e-03
5.714692322261415158e-02
1.223729301382374055e-02
3.840056432841727763e-02
5.224079161677014360e-02
7.304480917329463086e-02
2.090256265138226710e-02
4.402624803917469520e-02
-1.524152941823425991e-02
5.537557884223726079e-02
1.295685086436371668e-02
-2.177682381274980566e-03
3.931693914997262673e-02
7.185269606507126150e-02
-4.048337667619947983e-02
3.286145719361369816e-02
2.554377985686372837e-02
3.596873854147392136e-02
4.201976393364559303e-03
2.323547749915964855e-03
2.191731157913229949e-02
8.287332449222067909e-02
1.071966495540475905e-02
3.272562874365427671e-02
-1.025868369625148463e-02
4.810716607051154087e-02
6.926318111614918061e-02
3.718168050631483201e-02
-1.288334366341587628e-03
6.620309985154446131e-02
6.017035160389486853e-03
-2.495548526244202939e-02
1.723343859907079667e-02
3.424799161218430865e-02
5.344756277112071990e-02
4.848694394999449736e-02
4.646858613389612258e-02
9.595050292653925506e-02
8.789036594573787498e-02
-1.007610107888856285e-02
2.578375424211322084e-02
2.986415349706684347e-02
7.608201642752741856e-02
3.661202304549725228e-02
8.799842189564212325e-02
5.110533021428584344e-02
4.384013696212415989e-02
9.686173645642078001e-02
1.044680572929043150e-01
1.169896643648259682e-01
1.415193672386626800e-01
1.125923884335621461e-01
1.349284764313967155e-01
9.023971929071615550e-02
1.135205362880698648e-01
1.378940013455711711e-01
1.573811693492819519e-01
1.433508041265300903e-01
1.934658582230802393e-01
1.723695284573271147e-01
1.534579668576892819e-01
1.726952419606800904e-01
2.094032538441857327e-01
2.042631680523878390e-01
1.868892110127843842e-01
2.130834545603605412e-01
1.677951201629093447e-01
1.585708422340125490e-01
1.747936883865895408e-01
1.657634798220198880e-01
1.795747483402784783e-01
1.767328004006726849e-01
1.937279436420110135e-01
1.730096595796522807e-01
1.779163095451499477e-01
1.878458641185586642e-01
2.052982887001872925e-01
1.150043804159301131e-01
1.530801094817557662e-01
2.361762304074082330e-01
1.337263860318357034e-01
1.546689229967822543e-01
1.712807023286519459e-01
1.571170427230440259e-01
1.242123246827781524e-01
1.487449219962165281e-01
1.458969019612174345e-01
1.934953369111609145e-01
2.234120943022460948e-01
2.118942765281218166e-01
2.771946046971977551e-01
2.620073734841761870e-01
3.112800317412790507e-01
3.353126547211444097e-01
4.838905686866926126e-01
5.020826948461026840e-01
6.116222952626922948e-01
6.727853540409319821e-01
7.998135851579117883e-01
8.718690406665655646e-01
9.234203922867821879e-01
9.619598056380459505e-01
9.893451155199364244e-01
1.041857071290738457e+00
1.076591472873802857e+00
1.066732682621797768e+00
1.051615436498053002e+00
1.072001762235540445e+00
9.454744907253811448e-01
8.905365226356218855e-01
8.153230871042084216e-01
7.753656721149151387e-01
6.807136014382628719e-01
6.287638897593386123e-01
5.088650521917196246e-01
4.351081040553922974e-01
3.588597775790122180e-01
3.247187360642739828e-01
3.062117294037270954e-01
1.368268564925149144e-01
1.474533924061607881e-01
1.863549774068420928e-01
1.082075032447852858e-01
1.294853903061901901e-01
1.392696589281484931e-01
1.362637950350403804e-01
8.010836765815163019e-02
9.139280381472825177e-02
1.522298288086645357e-01
1.267895061253911937e-01
8.202978797745111295e-02
2.062045875089524860e-01
1.488090767745820497e-01
1.065325821063410616e-01
1.909833214476024388e-01
1.153405063990641383e-01
1.665749118606004442e-01
1.805346918642076193e-01
1.815548640430636462e-01
1.231090786883879129e-01
1.396070903268897545e-01
1.975519624585242440e-01
1.405394463404062433e-01
1.673662964497959482e-01
2.108997262697997199e-01
2.008005096081576513e-01
1.711574465095263842e-01
1.977542351430827683e-01
2.156591410378185802e-01
2.659264390736207906e-01
3.120421950065731531e-01
1.851660446039306573e-01
2.555828827485153165e-01
3.022297075440035785e-01
2.244172748941105910e-01
2.639162674708375733e-01
2.490268636239686417e-01
2.856302924900433471e-01
2.539515920105109292e-01
2.309114710967846151e-01
3.145721298175501723e-01
3.175797947701136659e-01
3.074453386438875668e-01
3.226404636201637421e-01
3.084161788406420968e-01
2.775722453082899999e-01
2.857857602326845936e-01
2.617119361029127123e-01
2.790782302620555266e-01
2.825314516834870338e-01
2.651005264462006350e-01
2.522567639605403089e-01
3.032317285957759623e-01
3.186021367969439910e-01
2.581571818678435326e-01
3.051929972430450499e-01
2.667187271577733942e-01
3.237051558806451901e-01
2.776925673833631203e-01
2.861314048238182139e-01
2.383825530721834784e-01
2.662892560830003030e-01
2.793535366475099480e-01
2.365174257068539954e-01
2.440092371468711441e-01
2.103651777788000943e-01
1.941301336328755400e-01
2.364385249331486527e-01
2.408019353290120068e-01
2.202695225225956566e-01
2.141359180598370882e-01
2.706753593182615880e-01
1.529289669166109256e-01
1.795747345877143908e-01
1.205269851731416431e-01
1.069259205334032459e-01
1.938427523674584041e-01
1.416783921810678692e-01
1.617285880544235277e-01
8.861005389611517624e-02
1.845987014589963171e-01
1.197174510964219285e-01
1.131486598986963521e-01
1.373205361544208858e-01
9.686762892775313549e-02
1.084447740712595476e-01
7.835354559796624263e-02
1.203109584440289342e-01
1.113009610042727388e-01
1.311235401858680816e-01
1.098093707698291899e-01
8.691522828298198222e-02
9.007833225894010254e-02
1.235399579682587706e-01
1.176476117240449898e-01
4.657833407093908695e-02
4.546789507209783587e-02
1.127837836519720305e-01
4.878854743270888417e-02
8.995082138702284458e-02
9.500244191684031891e-02
5.576013518608596148e-02
7.119868830844966467e-02
4.258551154087474727e-02
2.059192272870213891e-04
7.114608993968632444e-02
6.611002398477572317e-02
8.134765665682763824e-02
8.766424264955835488e-02
7.213287675282639699e-02
3.993606672452920670e-02
5.943212925399617153e-02
6.619565197624066588e-02
4.783874270181032173e-02
4.116840788373711535e-02
5.732768183032713183e-02
5.994395638494240397e-02
6.667821283609999539e-02
5.768697421663628033e-02
6.226040584521108645e-02
4.186729193063401522e-02
7.333208474196317717e-02
3.932602116331146425e-02
4.876054758556549323e-02
6.837789152321434305e-02
1.142389612579929048e-01
5.375738628531960550e-02
5.724318457717898767e-02
6.049485397610948612e-02
3.265314987604051727e-02
9.301417804269290768e-02
6.769270554799004802e-02
5.265774717792615772e-02
3.244063598982215024e-02
4.983886601059536042e-02
3.153408133789481482e-02
2.303691026808594652e-02
6.250332354562941617e-02
2.450430123312871342e-02
5.178388170850342642e-02
3.356717683557794429e-02
6.514379252822562194e-02
5.339495533846885800e-02
5.736815493863541005e-02
2.075848883291954092e-02
8.403557800960399782e-02
5.141219561767180340e-02
3.072655360213867939e-02
5.534740171036218320e-02
5.869927772248922232e-02
9.551225014146738634e-02
3.747010950687808956e-02
8.151570574387628776e-02
8.058102171208851583e-02
1.148701350618436257e-01
2.501725263453734305e-02
7.964667253371307543e-02
8.061305644749958144e-02
7.053393546196742858e-02
7.249098179320007107e-02
1.096859591869956962e-01
8.067628230730883310e-02
7.881013315664814334e-02
1.271781921345698785e-01
7.726923517900141647e-02
3.952762007271744260e-02
1.433306631864871283e-01
6.145438703600359515e-02
1.253852078256168234e-01
1.354010666970344445e-01
1.935973179399940181e-01
1.577429374441072230e-01
1.650412022103195375e-01
1.419684998882587423e-01
1.218987652455194720e-01
1.544799506683819934e-01
1.127563713458307193e-01
1.430178360789907677e-01
2.360407571626088330e-01
2.129539122430009757e-01
1.901382602461975935e-01
1.639849779326649770e-01
1.832944696707874965e-01
2.245004708061638377e-01
1.813351319193418354e-01
1.824899705848670728e-01
2.000321596706000904e-01
2.118713067246054682e-01
1.530326599277073429e-01
1.505498497570725847e-01
1.292617267104796408e-01
1.877102169044988500e-01
1.474747763181022686e-01
1.788282443379412556e-01
1.945421249067304792e-01
1.497971792506551103e-01
1.048312107456010472e-01
1.542007738648224768e-01
1.341579357338470169e-01
1.751018921009131479e-01
1.486152796708302692e-01
1.175966577821187797e-01
1.843585596114618586e-01
1.243388175608534929e-01
1.225744755429736821e-01
1.708699100910115731e-01
2.153154508955992252e-01
1.755106075291701095e-01
2.464925251771248049e-01
2.833523865260618724e-01
3.070541097233143724e-01
3.661397762154369184e-01
4.204790499522575442e-01
5.101993101513154771e-01
5.451703745216377461e-01
6.650722868391512055e-01
7.395853440917705690e-01
8.755674380994604711e-01
9.190391510293302035e-01
9.465686388358853787e-01
9.759024213161858752e-01
1.058774770623327699e+00
1.087229278764343388e+00
1.063481979988214920e+00
1.059139116517073376e+00
1.031785220488991683e+00
1.056651029103023776e+00
9.869039735922379153e-01
8.696941104514436249e-01
8.181287282966909213e-01
7.018820896397015563e-01
6.388353450450687809e-01
5.456411310846598361e-01
4.646464276452382802e-01
4.216441638272422354e-01
3.415667149238757472e-01
2.866257961260910703e-01
2.624073534795319240e-01
1.961091892970083794e-01
2.192146045167760460e-01
1.522187755663112207e-01
8.494367011800585399e-02
5.119363636628405240e-02
1.706008587722795677e-01
9.128147577612545638e-02
8.712841478818386665e-02
1.488444169984396992e-01
1.291343426165083574e-01
7.471851308864158048e-02
1.434386089086531479e-01
1.211233183690711146e-01
1.337109368280688937e-01
1.308245178980767531e-01
9.719836726979282082e-02
1.584179583021628202e-01
1.326560685672161788e-01
1.663579470497058566e-01
1.782109930135847842e-01
2.217476767193747589e-01
1.512197287321758454e-01
1.487293480109952160e-01
1.835730242340549156e-01
1.933151745962968238e-01
1.616782709758296521e-01
2.069301642254715023e-01
2.189568096535205732e-01
2.747536778653311140e-01
2.416926181042497734e-01
1.953677626014666269e-01
2.654223044941395049e-01
2.374135834927541822e-01
2.177244444539591928e-01
2.288731293233574604e-01
2.501304401816388800e-01
2.732312189808275282e-01
2.269303333684635771e-01
2.920296283005901494e-01
2.569815253717707138e-01
2.826268357548332166e-01
2.544841702564933361e-01
2.914059581887535333e-01
2.572186436464155568e-01
2.921810242056528395e-01
2.541044486463414631e-01
3.018554379716605895e-01
3.291809582776352716e-01
2.941229527693851042e-01
2.759250178156216760e-01
3.197170614266817701e-01
2.617398176246366059e-01
3.068798317535996190e-01
2.817595485794893717e-01
2.908118860574193665e-01
3.120321414495984547e-01
2.657832776577264133e-01
2.441000542162040099e-01
1.836181857796448103e-01
2.524615996411249119e-01
1.979052420326727346e-01
2.682659831258262795e-01
2.576977878333043259e-01
2.382770969498392288e-01
2.166804866601065305e-01
1.454192072194987750e-01
2.084699548440978878e-01
1.674992309317905603e-01
1.771180800837939551e-01
1.910897477922158250e-01
1.558223328469490465e-01
1.876442804156991662e-01
1.407523347662310298e-01
1.440769808813209818e-01
1.489820428145631759e-01
1.781984262832268517e-01
1.278151154213645890e-01
1.450053544633386760e-01
1.960277896754371030e-01
1.322505281810645861e-01
1.060211639971820469e-01
1.144229075635619375e-01
7.898096747003956197e-02
1.021599930653195876e-01
6.484837894599405905e-02
6.945865507078913259e-02
6.529191875017185953e-02
8.167835888676627798e-02
4.686718953810382199e-02
8.226067787784367702e-02
6.615896027604098451e-02
7.902641580294228474e-02
8.284857952471909315e-02
5.614870954292837391e-02
8.599087637595023703e-02
7.003371730835925013e-02
2.165782755220769379e-03
3.302622894203621068e-02
1.003355855889004611e-01
4.973109684794278784e-02
1.400586525524896431e-01
3.161689661698649512e-02
9.288720286440125401e-03
3.655465310683145286e-02
5.996015422111818094e-02
-1.536031808629882006e-03
2.452983689345154469e-02
4.368033443826485618e-02
2.658886152388131863e-02
5.223656972479635147e-02
-4.050288251678764440e-02
8.715432498007484596e-03
4.627669523512355221e-02
-1.209640746113933504e-02
7.694338469659302987e-03
1.040500707184216500e-02
4.132905466595081234e-03
6.363666763989649089e-02
5.168802307946295319e-03
6.241635348639139325e-02
2.672060218002666673e-02
2.860070129685647611e-02
6.168804298365133248e-02
3.733267666068731255e-02
1.414200691256458677e-02
-2.801140976690773970e-03
-8.434067585270804690e-02
1.807188134080526740e-02
-3.496342556364435278e-02
2.146306389609741253e-02
6.832281598005827961e-03
-5.672534531783579581e-02
6.114163002044915168e-02
1.805626921606998808e-02
2.938686033840797601e-02
-2.428521261352407923e-02
6.375777820565339815e-02
2.325633490503841577e-02
2.475556518559621916e-02
-2.512685782043806021e-02
1.579840622990338894e-02
-3.298743825384956030e-02
-1.238432487652783333e-02
1.337555297885711578e-02
3.530407237323555936e-02
1.080794609207961186e-02
2.034709540061742372e-02
7.993659956491927510e-02
1.796604590444648986e-02
4.465571629243480362e-02
1.449409860200765940e-02
-3.327181914638602245e-02
-4.774345995473610813e-03
4.569595744446317692e-02
5.949387744069426290e-03
-2.732744228183155155e-04
5.855122483227333946e-02
6.973405839387056618e-03
3.542904585235696902e-02
5.807269735189535959e-02
6.470377655064125932e-02
8.921124791791762432e-02
-2.397714630016280907e-04
4.526189807621578548e-02
7.157895584718401705e-02
1.458250590492467247e-01
4.483513183260408319e-02
9.574273270429486948e-02
9.672368628293666337e-02
6.133949788275901149e-02
9.397480427534037062e-02
6.664752079418344299e-02
8.921115938185164573e-02
8.244804001111308289e-02
9.569071446250895785e-02
1.474776473862461912e-01
1.594804153864966267e-01
1.235321492144923206e-01
1.212638186935813683e-01
1.243231953219059438e-01
1.402408229916688454e-01
1.453158572855030584e-01
1.037521555110146182e-01
1.653402186714914013e-01
1.238190717602884183e-01
1.103431767499844646e-01
2.163542223978168755e-01
1.550556828246747176e-01
9.051273642626542215e-02
1.745336669890897308e-01
1.655369166622620847e-01
1.386955909282711896e-01
1.506320542177279065e-01
1.705461301804374885e-01
1.205911227973286842e-01
1.386038184600500156e-01
8.231531669753062996e-02
1.457121737060151634e-01
9.237375284213024396e-02
9.428780218714538641e-02
1.378964093129200763e-01
8.220196856134162622e-02
8.160095057406893670e-02
1.015881499193313497e-01
1.195497094829802848e-01
9.494209191657766722e-02
1.254228684293885732e-01
1.180302943724771403e-01
1.530493693538993727e-01
1.816050103565681195e-01
2.445196505409152343e-01
2.825893689411040910e-01
3.745425924976870102e-01
4.269917250923568330e-01
5.013616868367222201e-01
5.516543451147831734e-01
5.552690833372319057e-01
7.602060327398605377e-01
7.650870898823709521e-01
8.990802112736859808e-01
9.569474881692972001e-01
9.287141099109437192e-01
9.909846982520171821e-01
1.060679052300538938e+00
9.908691941970286798e-01
9.944613009537150994e-01
9.915166640030265155e-01
9.472896929372247588e-01
8.502060031146394525e-01
8.082726921754076477e-01
7.497697690616049737e-01
6.865657309610240233e-01
5.701647199244933573e-01
5.077229084277681270e-01
4.454760802831186361e-01
3.484699720365239117e-01
3.413894745935497910e-01
2.199239743991486251e-01
2.227305935707279694e-01
1.408067369119103407e-01
1.307768846661890305e-01
4.229526225912396548e-02
1.023715109177109617e-01
1.112162082059837409e-01
6.324185625557157686e-02
5.953639032827200139e-02
1.415479210785888231e-01
5.005565440278034184e-02
5.831201936986880191e-02
6.977777046449541720e-02
4.943531838602395478e-02
5.115783619171938162e-02
1.592088197815553358e-02
6.720184418932362291e-02
3.432417078062928451e-02
8.387412560014964602e-02
1.182533709532441191e-01
1.115033707792997403e-01
1.181521647715220585e-01
1.038368613977932731e-01
8.300616096694984902e-02
1.665499455831894737e-01
9.749034938830540564e-02
1.368653661705860891e-01
1.039360611573831999e-01
1.584887691384289365e-01
1.320903432967861224e-01
1.507023670287220285e-01
1.258525207467430795e-01
1.706092187034089214e-01
1.827265545403191083e-01
1.942375933643314401e-01
1.739529580139115295e-01
1.933909588162431858e-01
1.719092700436286592e-01
2.111084322455125117e-01
2.193828300288915290e-01
2.023575206409752025e-01
1.918090802907080616e-01
2.881850402888683771e-01
2.625780102177038833e-01
1.973116192479607012e-01
2.011917261260125211e-01
2.111341884929834045e-01
2.259570344141354215e-01
2.518454471610938050e-01
2.323985611757279357e-01
2.339769453239368413e-01
2.006874988404817595e-01
2.941169782380161912e-01
2.230056792812626087e-01
2.466440863009027040e-01
2.344145276278183643e-01
2.018139435874662935e-01
1.826387465803865906e-01
1.717873903734384311e-01
2.128027238840558277e-01
2.084340783663798380e-01
1.634277976546033573e-01
1.418641504943992937e-01
1.792577522166027282e-01
1.368035884151427573e-01
1.590160049693047917e-01
2.127274224612420717e-01
1.342228396609539409e-01
1.909722378206265003e-01
1.496977923408450706e-01
8.666608398822872594e-02
1.545833344929627984e-01
1.290911771689922105e-01
7.436086776537596810e-02
9.693958089868537353e-02
1.520442324998446670e-01
1.381310437952109893e-01
9.670416561923018961e-02
1.214057570189168017e-01
1.220582303211657782e-02
6.631901179661561785e-02
1.639813612545476182e-02
3.962478263391494560e-02
6.684251914752112333e-02
7.809173131714393368e-02
4.072699387746127331e-02
4.377304588237326821e-02
4.140035810135556105e-03
1.479938838718417027e-02
7.802061421886691273e-04
6.549976362726978030e-02
-3.840092256736647031e-02
2.741305834035295125e-02
1.480217480658744394e-02
-1.607310493467462020e-02
-6.452121362608082000e-02
-4.451944936599828290e-03
-3.736607205932552384e-02
-4.352847728339095945e-02
-4.994006913408134685e-02
-1.898301164797251694e-02
-1.562647910886220959e-03
-3.723948327310634687e-03
-4.817885342638474067e-02
-1.892818964647845908e-02
3.130004628013449003e-02
-8.901599194807735538e-02
-2.797955596423110092e-02
-1.392383508328399674e-02
-7.536093019333443832e-02
-3.470290848906026904e-02
4.101658671319362293e-03
-6.192389801516218900e-02
-3.530414506205516861e-02
-3.393232366613868622e-02
-6.175526773285164306e-02
-4.292407987685194909e-02
-2.969893233772576135e-02
-5.473079584418259758e-02
-1.204168870498222021e-02
-1.263290714736063983e-02
-2.330402486482956864e-02
-4.769802934065116296e-02
-5.656882650735187146e-02
-4.733937127296106162e-02
-5.957046938604998454e-02
4.011184713657306444e-02
-7.401191453776637119e-02
-5.904678941234394601e-02
-6.454916722818414276e-02
-3.113743625913538426e-02
-3.945189517374242394e-02
-8.567840179262414813e-02
-7.973633667981627760e-02
-3.124292975041250212e-02
-5.954089845990126473e-02
-1.003636941707242158e-03
-3.352585535752904133e-02
-1.263345463516972467e-02
-5.145108044507149675e-02
-2.840076695062164480e-02
-5.697737114179500517e-02
-4.872752395406630688e-02
-3.768964859118075633e-02
-2.531247627457336447e-03
-2.059366268760191854e-02
-2.023845875629009042e-02
-5.113924515247488672e-02
-2.392530510461592791e-02
-7.789290730541535701e-02
-7.587365934521687894e-03
-2.470584217347151362e-02
-4.546982672030283612e-02
-6.575785112182873371e-02
-1.367894387447021742e-02
-2.323479242214635671e-02
4.139468135942760141e-02
-7.343083234730686526e-03
-6.670085637937558931e-02
-2.105584500981726170e-02
-5.342035493450247863e-03
-5.403536253185119154e-02
-2.402173550646371017e-02
-3.572997886603090922e-04
-5.584889927140276877e-03
-4.920382863275048202e-02
2.318604528979022888e-02
1.877043014062329540e-03
1.078242820513961725e-02
1.796565437552653799e-03
-9.247968936454499522e-03
6.578836447588945480e-02
1.914304890069884468e-02
4.384890142647029920e-02
2.775236970003032433e-02
7.088827331071670401e-02
9.570662113830215312e-02
5.501342556998299604e-02
5.812375839685251372e-02
1.090464561251004716e-01
8.228898974139112199e-02
8.994872601566472614e-02
1.341309351806014294e-01
8.007589768973491506e-02
9.287932561421419209e-02
1.274627587107596272e-01
6.434189537466160347e-02
8.189962072050416264e-02
9.030103919420802427e-02
1.390095186220653423e-01
1.309694100171216735e-01
1.208977162111567194e-01
1.131931116386656611e-01
4.892246031865884331e-02
1.118554867800840014e-01
7.876316181104996150e-02
6.953742565473046422e-02
8.323174657629088535e-02
9.657603817463616958e-02
4.604159033076087731e-02
5.336123716114234139e-02
6.001199616547650550e-02
1.094899952672033494e-01
4.733401219008148697e-02
4.006062697057806432e-02
2.015130978103395892e-02
6.150490570126638384e-02
5.382085600700863698e-02
1.118953095471590803e-01
1.173108389384498185e-01
1.119678813776739251e-01
1.709995941584484813e-01
1.755278112307478433e-01
1.875981221548313760e-01
3.824959731384236505e-01
4.225245851170711386e-01
4.968599399520245430e-01
5.694051042343681868e-01
6.478261827268412265e-01
6.522038403299630360e-01
8.480996124823342308e-01
8.264601090161489694e-01
8.700086982155961213e-01
9.542475408599734310e-01
9.790470725497132376e-01
9.855566102441852827e-01
1.002613390245510772e+00
1.001134266000739848e+00
8.849020775547019602e-01
9.040468538214100347e-01
8.389000267904720420e-01
7.098677586249263483e-01
6.048074694235350268e-01
5.106134543108296064e-01
4.466006384299238685e-01
4.171328974196172323e-01
3.804344223607200037e-01
2.346519892386161321e-01
2.171545845833094124e-01
2.140631333511885392e-01
1.471194793868950690e-01
8.952215364553445243e-02
1.936970474271976217e-02
1.834740815054187318e-02
1.259347150419640182e-02
1.339372323625429712e-02
-1.443594512392316204e-02
1.652604276959457330e-02
3.163750896033837301e-02
-3.658202785588424849e-02
-1.630741469005264621e-02
1.938754623739677441e-02
1.640839030063659387e-02
6.865120155526899248e-02
4.411917896379187465e-02
6.376135115367681516e-02
3.711813222276655333e-02
1.908271070809986619e-02
3.288668394228416031e-02
1.140095934290012575e-01
1.130700666641589053e-01
8.839334008277319188e-02
1.085060836363000158e-01
6.557185699725534556e-02
6.490598578535534957e-02
8.784686074077199813e-02
6.632456250312745993e-02
1.017668841865759788e-01
1.509986192438375896e-01
2.376329508613252428e-01
1.570894474145906605e-01
1.616764002633280795e-01
1.372425813002730866e-01
1.681542558604386672e-01
1.189467200355629750e-01
1.658881554393694668e-01
1.629695655964334966e-01
1.080686964119132454e-01
2.219202183387122829e-01
1.753252609769751225e-01
2.458572045014210949e-01
1.563996596448312126e-01
1.492416142454491834e-01
1.489956806097575970e-01
1.767906923110651174e-01
2.295839309739136636e-01
1.830598971436132039e-01
1.776528618596164288e-01
2.401576860823024240e-01
1.510628012065770298e-01
1.906945069799075576e-01
1.841235931398417236e-01
1.604839314177308185e-01
2.047599315089560779e-01
1.922546467645383228e-01
1.653953543019478778e-01
1.681561798293962073e-01
1.802368828656812361e-01
1.858416214582947479e-01
1.808289218352892580e-01
1.854182435695853892e-01
1.732119426394731210e-01
1.393595987419661286e-01
1.395015410205825146e-01
1.974808336609754356e-01
1.496380713436327725e-01
5.645006750246007315e-02
9.668075379112812950e-02
1.337665916110542530e-01
1.144055514692612907e-01
1.089803743969495475e-01
1.097225293200536494e-01
1.007391869136615437e-01
6.623053731892318552e-02
9.046900913262481692e-02
3.412504274140815141e-02
2.792346585832743838e-02
4.707325242436629503e-02
3.457306659035253721e-02
1.169927322465776076e-02
3.931261231234021991e-02
1.519241431763672379e-02
3.031097186449446812e-02
4.520258316959503003e-02
1.058475715615972423e-03
4.391314686340727635e-03
-5.920647175824751696e-03
3.431146382703031961e-04
3.322032247963122020e-02
3.345513333198249506e-02
-1.475185358775375766e-02
-1.660429197307272675e-04
-2.919071115868400457e-02
2.392127347230002532e-03
-4.393583432057537874e-02
-4.663394087645954950e-02
-3.698465627089009278e-02
6.760482858760283320e-03
-4.747306549905350170e-03
-5.409855098504987025e-03
1.370108314687908807e-02
-4.148264963272282890e-02
-7.955618043038795162e-02
-4.873514085651523692e-02
-1.153347578806268592e-02
-8.924014155746215482e-02
-5.827750040322834946e-02
-4.727752169655053543e-02
-3.541287605946036310e-02
-8.245471132010243065e-02
-2.672783688033565294e-02
-1.593932375713988728e-02
-8.466829628104294292e-02
-8.933387299582676300e-02
-5.464390389863572201e-02
-7.345784424915387245e-02
-2.107570979747623585e-02
-4.685189708428900285e-02
-4.380306835758873002e-02
-9.002500091557721906e-02
-6.642957507690644414e-02
-5.563575308714945739e-02
-2.586201884701051779e-03
-7.885258039725807910e-02
-7.510545265888089739e-02
-6.931189366217191394e-02
-3.898413940067609051e-02
-1.653945029656959595e-02
-8.983108866751310373e-02
-2.825310622405362987e-02
-8.284645822308553398e-02
-4.237071994813360054e-02
-5.002084604779541421e-02
-1.886019029292351767e-02
-3.470672410507320838e-02
-6.199008615455747773e-02
-7.609636432567148945e-02
-5.076130180155621896e-02
-6.982830946182311260e-02
-1.638219240627606169e-02
1.084001726303018831e-03
-1.866680591303378559e-02
-4.530931169323790947e-02
-4.526519983333872343e-02
-5.151146851924137682e-04
-3.275896533185159581e-02
-5.360171608186212883e-02
-8.972720525261684843e-03
-7.692276705015296812e-02
-9.283200070867722586e-02
-5.539419971539514403e-02
-1.745472157321806272e-02
1.664148091742503888e-02
-2.110723030301205755e-02
-6.772543314777081103e-02
-6.074181306176457129e-03
-1.806987380966907503e-02
-6.948252782442232434e-02
-2.194954402453110076e-02
4.506226847434413596e-02
-4.074888728998325022e-02
5.842510040818378603e-03
-5.622950049814643553e-02
4.731556224694321439e-02
-2.935510464465356656e-02
4.366493024074029339e-02
-7.844778376179532137e-03
-2.776370104839778058e-02
5.164629092199730237e-02
3.986919533876620569e-02
6.856429301646729813e-02
9.391121678812121287e-02
7.456409765721427885e-02
2.419834246970663932e-02
5.049150239980515487e-02
7.290639720652537792e-02
9.232243812782589543e-02
6.017155322433829362e-02
8.743490561492456292e-02
8.608797130277534571e-02
3.319697068715773275e-02
5.743614810224815376e-02
7.832616208558235149e-02
1.276322042191904149e-01
1.396291338897343304e-01
1.351068053482684661e-01
1.221924598710450727e-01
1.241511535664349825e-01
1.753869755591339064e-01
1.346927792863472917e-01
8.655059714560106587e-02
8.214978891606944389e-02
1.299193868256412754e-01
7.050361120744637333e-02
9.781021806561754350e-02
7.111451496267645611e-02
8.591148867892320351e-02
8.021637207373411016e-02
1.093390484713105404e-01
1.087614617096145098e-01
3.510008708665916105e-02
1.115958411125236305e-01
1.098769558761802101e-01
5.816375835500321723e-02
8.537194632355923907e-02
6.086024796783072455e-02
4.356835231346448123e-02
3.579765924889356798e-02
1.281019625550030849e-01
1.934517860825314128e-01
1.827575946058044853e-01
2.804318440302940862e-01
3.028645402889786897e-01
3.792739311728530183e-01
4.374486206424879065e-01
5.461494392287276067e-01
6.155303557123992242e-01
6.595655659956285444e-01
7.877934050767697594e-01
8.434583003160005532e-01
9.310721834185491375e-01
9.488182890435231664e-01
9.952755935193036141e-01
1.023168139566064783e+00
1.032312495354808402e+00
1.017685327904315429e+00
9.632086182266672569e-01
9.637792954438575421e-01
8.596920339675784284e-01
7.674205075808321341e-01
6.853074502477352059e-01
5.962736665741310560e-01
5.331216614824282329e-01
5.001810588409566494e-01
4.471535346882555828e-01
3.183933616501512520e-01
2.542891973312785270e-01
2.183095403076469321e-01
1.662116452313210091e-01
1.362175632411819493e-01
9.713842664290239792e-02
8.455106468253173468e-02
6.667528582752517419e-02
5.429400768152015111e-02
1.083981745823922940e-02
6.015121317199754319e-02
5.515198801900288161e-04
-2.141706752632817692e-02
7.197655271625044704e-02
2.504173670822568143e-02
8.812029275466795597e-02
8.279571482093404933e-02
8.166490377335661188e-02
1.027860609975060485e-01
7.370538121890557459e-02
8.792928510260379638e-02
9.198546254349825035e-02
1.036976719657330681e-01
1.024921220037547653e-01
1.523894389033761121e-01
8.489979803949959658e-02
1.118047325136283798e-01
1.531053333732523836e-01
1.464259643021063872e-01
1.492687873513217356e-01
1.018482972513354984e-01
1.497608590390157868e-01
1.050621803679873262e-01
1.860732908933900309e-01
1.873511621251762460e-01
1.647140582055776070e-01
1.957331388882091183e-01
1.593006924212968523e-01
1.907730588552447315e-01
2.267762733564757660e-01
2.047728153400441009e-01
2.401853187702132353e-01
2.193820193980353661e-01
1.981408889829865960e-01
1.925511136072546037e-01
2.472920251726032637e-01
1.937916489813497067e-01
2.174796371893724378e-01
2.697433167074691496e-01
2.786984312206203240e-01
2.639843737345078378e-01
1.966164060807721325e-01
2.435670592704876347e-01
2.579213695349720781e-01
2.945347034339861891e-01
2.462436669790125376e-01
2.214114335151357305e-01
2.423358595808917659e-01
1.672801919023608752e-01
2.453266738003952729e-01
1.941967474800275484e-01
2.169848320411917053e-01
1.539258264697774548e-01
1.771027209334695429e-01
1.967135085372946623e-01
2.437202799711646051e-01
1.777177179928633999e-01
2.022495121766085813e-01
2.042659187237486074e-01
1.971837919964024299e-01
1.326940084197007763e-01
1.619021879479138892e-01
1.735785133553504056e-01
1.865430290143793579e-01
1.297860890887787277e-01
1.722885823485816592e-01
1.253521452517611656e-01
1.583502585492970738e-01
1.341861280613276253e-01
1.678226439565383699e-01
9.148641740374989506e-02
1.210859222294682347e-01
9.682680488040543154e-02
1.262648790319120806e-01
7.449947809003561183e-02
6.489174499510994010e-02
1.510127257007610191e-01
7.323812929728536203e-02
9.932321645132911880e-02
2.384878784062422624e-02
7.699374314854141865e-02
6.909368347610223005e-02
4.126665117313045583e-02
1.039171874854694436e-02
6.132861800068046404e-03
1.988726734091067830e-02
2.302782098057185728e-02
2.097650309943509608e-02
4.625179819572933920e-02
4.582704587594536166e-02
5.962284992195928529e-02
7.902287714717590172e-02
6.361789990125889249e-02
1.023401365634400706e-02
1.341345857007963591e-02
6.040891260532568058e-02
1.369396097992224906e-02
8.358825336817789220e-03
9.114908451608243201e-02
-1.094848470598630726e-02
1.384007380244184869e-02
-2.763544946487486720e-02
-4.211123531923079144e-02
-3.430469765028694440e-02
-2.254427078836782408e-03
-2.161626764525971869e-02
3.749946820485801358e-02
8.610936130398885724e-03
1.794172290865122914e-03
-2.118533370330567822e-02
6.487103514849663910e-02
4.403873239698646858e-02
6.480161273514882525e-03
2.543666322598998886e-02
-3.533306664294739996e-02
1.408385806205973007e-02
2.169303558875167875e-02
-3.435114620780380795e-02
-3.071236377241991743e-03
9.427138508757445731e-03
4.671263560306791567e-03
-4.167767643323779664e-02
8.137265319005680675e-02
3.344734745703740325e-02
-2.061192940340930702e-02
-8.644476410850625986e-04
-5.331474466940096246e-02
3.803154838365016555e-02
-1.276368420626151391e-02
3.261494025779636263e-02
1.153187843422858599e-02
-3.296538153727892467e-02
1.699423800140861807e-02
3.520131891910945401e-03
1.563901730887896566e-02
3.571579788597036009e-02
-3.862898691115910360e-02
-1.563791272678710653e-02
-3.824828007685023012e-02
1.661920985216366192e-02
-6.086086275851113753e-03
6.291055366622164136e-02
1.986788839529737144e-02
1.042682445146549119e-02
6.467813435190360172e-02
8.522113822964659524e-03
4.465933941056340895e-02
2.676724248087622091e-02
3.971781168251444644e-03
-4.146390305328819664e-02
3.995770572860538744e-02
8.931725721998380607e-02
3.080064354274691940e-02
7.130845030268230522e-02
6.328728730441504635e-02
4.603689788028785673e-02
1.294298453734825730e-02
3.982113529544472480e-02
7.489163094702168399e-02
6.563798046317856349e-02
5.493866970371071023e-02
6.760882227681717926e-02
1.267129805666549203e-01
1.335953904683336302e-01
1.076723753260009353e-01
1.223771845142006820e-01
1.225285592900178522e-01
1.533648063843728593e-01
1.713889430856793128e-01
1.262732072947377326e-01
1.424763169277111219e-01
1.529884703982809790e-01
1.193915395543531932e-01
9.958214156113982807e-02
1.398150962545708365e-01
1.186596739389361999e-01
9.423278119482890458e-02
1.613612770420946307e-01
1.859035362422304105e-01
1.619565772981172991e-01
1.111165126707160250e-01
1.726821617116686969e-01
2.247932375435749974e-01
1.889281046894893401e-01
1.875170202666573416e-01
1.814963536366956398e-01
1.551549944260355585e-01
1.640782533483918504e-01
2.175284172232622160e-01
1.892958047900830387e-01
1.575337034180108731e-01
1.522700314215008621e-01
9.360727736262612619e-02
7.347617372268304414e-02
7.456286848526980093e-02
1.455514475392720164e-01
1.883748538971804776e-01
1.257500948341425673e-01
1.761438970106969926e-01
1.336204923011198309e-01
1.530423251961358089e-01
1.743380735086001998e-01
2.231386987647775155e-01
2.400255778465513190e-01
2.879983970124307957e-01
4.017350348719835318e-01
3.619784246467497857e-01
4.492147894583296552e-01
4.853386013915202968e-01
5.992312179610970180e-01
7.143443308049287621e-01
7.715860942272502188e-01
8.300214134875394389e-01
9.211922705520635413e-01
9.136205613916967838e-01
1.019475234946114917e+00
1.064300824647573585e+00
1.074022193355735455e+00
1.094262677067144862e+00
1.019264697937071640e+00
9.361907945884077042e-01
9.219485507419568071e-01
8.550113607527941584e-01
8.047283996666722006e-01
7.254109488303692732e-01
6.460613194121407332e-01
5.209857055649230739e-01
5.121584563283065883e-01
3.991584973967978178e-01
3.816846951218294537e-01
3.411681366146294692e-01
2.310657177183185751e-01
2.054286121197899939e-01
1.754490248747654357e-01
1.519189656665385357e-01
1.745092364837104726e-01
1.045258609769001146e-01
9.793559586166006303e-02
1.173332837579152965e-01
1.017290359286898704e-01
1.336726738487039323e-01
1.150770705585388853e-01
7.246143551211542411e-02
1.029553343036006402e-01
1.021494706011613074e-01
1.267461576535052481e-01
1.683811753618488782e-01
6.323754671944481487e-02
1.338658845572059664e-01
1.142529851952116815e-01
1.491426736501884898e-01
1.695740840605483857e-01
1.132887255387144410e-01
1.561681499332744083e-01
1.780740517917896448e-01
1.608107378951158239e-01
2.090396994514061579e-01
1.617210088428717996e-01
2.084693679564510460e-01
2.200741442033653794e-01
1.431309134412674933e-01
1.974577619437817844e-01
2.497318538833512291e-01
2.745880966272467583e-01
2.361536005406122130e-01
2.932203554987498073e-01
2.377677497248247840e-01
2.319921175512602296e-01
2.747348993210849688e-01
2.501436200075977112e-01
2.823165407395747950e-01
2.391311537235871199e-01
3.078704653428144256e-01
2.808079207642739661e-01
2.851152497848774559e-01
2.996478911291636793e-01
2.492204363582066207e-01
2.574606553745725224e-01
2.544288936594771844e-01
3.034038923439491553e-01
2.719793596020736448e-01
3.253918522573706618e-01
2.623074687713466968e-01
2.924264456842392557e-01
2.990358203637080714e-01
2.748529340771403984e-01
2.715732319951907892e-01
2.520859233288262335e-01
2.843739205419131832e-01
3.016585663077828716e-01
2.366049204110183268e-01
2.968033622008161010e-01
3.044061110020707117e-01
2.237021056970508737e-01
2.231043113175839587e-01
1.808234562500128650e-01
2.297782273453466972e-01
2.259345200996910608e-01
1.998256160942262494e-01
1.851242162530486457e-01
2.720957225488542797e-01
1.569787971599239662e-01
2.113814418553308927e-01
1.926890187689178080e-01
2.157278016448860025e-01
1.834017097724266465e-01
1.585527895042517788e-01
1.360554368843307493e-01
1.765406377667407545e-01
1.195043325785455079e-01
1.858656901058935440e-01
1.557391002316001194e-01
1.574106160188833148e-01
1.280487467180078942e-01
1.658838243703900650e-01
1.257197858190316486e-01
8.428166394742846179e-02
8.370581483494290986e-02
6.101306721744616940e-02
1.258584473291088079e-01
1.261689678738560916e-01
9.668521959659026610e-02
1.180213220796944296e-01
1.403688906919495216e-01
6.855328993274523164e-02
8.311444533428097303e-02
5.067975277335441675e-02
3.518771937522012505e-02
1.150772712146922172e-01
7.708300384006826211e-02
7.251547546042172443e-02
6.505003449003170235e-02
5.171727970905032334e-02
9.680815447161811305e-02
6.181869694402410131e-02
5.549726631120452391e-02
5.871444823789679496e-02
7.847271554660577297e-02
6.424410991944090599e-02
8.924952699018337543e-02
8.396831601245652310e-02
2.366600811998731749e-02
9.059998626926035747e-02
-4.839769760738736604e-03
9.081264067113636873e-02
6.232024109645355192e-02
4.879351008614540158e-02
5.973390927286574559e-02
1.192257290501994721e-02
2.854693912377508427e-02
1.636988556551026430e-03
6.822495779949125372e-02
2.973618243618747839e-02
5.904194179472143506e-02
9.809941014600621900e-02
3.389296752826215231e-02
3.811047854936110146e-02
8.165703430227148896e-02
2.167550742942659162e-02
2.576875265437013687e-02
4.596205754064431465e-02
4.922303666269975397e-02
3.615720175762850153e-02
1.578758254935147542e-02
6.375832423597840859e-02
6.404222362567187077e-02
2.863925355861809269e-02
4.852190276506150590e-02
7.305711759561936414e-02
7.027413821574426955e-02
3.994525718161259786e-02
7.780166689063774954e-02
1.212907563438012648e-01
4.240628530113198236e-02
4.488888860155804128e-02
8.258027630944952957e-02
1.245062226300335667e-02
9.212103822934059050e-02
7.768519088134420714e-02
3.172564169887482494e-02
9.294750777005024445e-02
1.030027583815212727e-01
2.832095859868906385e-02
4.306739334633708643e-02
7.192091552940901855e-02
5.985611359112420760e-02
7.486337810104913559e-02
4.409362325820566364e-02
7.337140690863368231e-02
9.056346755472660659e-02
1.060815968564143147e-01
1.744931807697682608e-02
5.605870715967509188e-02
1.016804037398437166e-01
5.411625498938570783e-02
7.071382863385597406e-02
9.858113043228197703e-02
9.451892924866237000e-02
1.369480521375512905e-01
1.651450722331318510e-01
1.426685950802739355e-01
1.340816916557887040e-01
1.532211133937328718e-01
1.388183571186041854e-01
1.589852559865886916e-01
1.510806455607849041e-01
1.504266828041255499e-01
1.287231754985501686e-01
1.784569417650743173e-01
1.546536214495329575e-01
1.616233848809031926e-01
2.589562893988335834e-01
1.882562413837443049e-01
1.995846061495442636e-01
2.299249987920953253e-01
1.778530109986349861e-01
1.653959778816639081e-01
1.485400848658491313e-01
1.665249454322982325e-01
2.394262801267016960e-01
1.655373321738616843e-01
1.660016893357589007e-01
1.470229068010816265e-01
1.779597030819364822e-01
1.557861029773818795e-01
1.580915660330892980e-01
1.948172949016016842e-01
2.017021123351835366e-01
8.476228027570906209e-02
1.898159763579690962e-01
1.394066831870873213e-01
1.496091886184745534e-01
1.321400981091850335e-01
1.633019528787216235e-01
1.356983888702216756e-01
1.577854055161616031e-01
1.353192909273965572e-01
1.300592025429511134e-01
2.149417536304704113e-01
1.911166294230556562e-01
2.399869166278718602e-01
1.980838171513284729e-01
3.060503199129952501e-01
3.530146779253106049e-01
4.030740783140521755e-01
4.197333942893549663e-01
5.145969244736230408e-01
5.972831197326248232e-01
6.908279327223239008e-01
7.189000326674320762e-01
8.580125618435454626e-01
9.242478289391690138e-01
9.403608319178274888e-01
1.004145007275842438e+00
1.043556803060601945e+00
1.075635484448497659e+00
1.084953254234906517e+00
1.080473225905094647e+00
1.006166341977771328e+00
9.601720880586844808e-01
8.924944843344075895e-01
8.278435486433156631e-01
7.779950992954027811e-01
6.895356850033871332e-01
5.584640452664506594e-01
5.334047824001724170e-01
5.067148547500323064e-01
4.065481109870834886e-01
3.269488473413938445e-01
2.902180415602910735e-01
1.789843844799625106e-01
2.134615278658947291e-01
2.004008711907069862e-01
9.970541016485788555e-02
1.326620690533287239e-01
1.262205158066872501e-01
1.055540914013640974e-01
8.140295156619981043e-02
8.876772198617172149e-02
9.014598430246528737e-02
1.464315881873394509e-01
8.021655678784919696e-02
1.327728016527055799e-01
1.449354142374836563e-01
6.289269976708185272e-02
1.120904804237977670e-01
1.254939474566041657e-01
9.369091961220646358e-02
1.316644486049089735e-01
1.180408881095328377e-01
1.823984604015399524e-01
1.498412898025761053e-01
1.604194522051839988e-01
1.972711895496860879e-01
1.901379837161850384e-01
1.808983076481859020e-01
1.517725823218822878e-01
1.475967920127471411e-01
2.446743436266951843e-01
1.996404265485149376e-01
1.934797248273745773e-01
1.888011419051025264e-01
2.602260558112038380e-01
2.451967125565898686e-01
2.538305257385481961e-01
2.337392592927241552e-01
2.298459244081946795e-01
2.728444906679172166e-01
2.798734468177497270e-01
3.020054940608306593e-01
2.528105517151518766e-01
2.423234597227258980e-01
2.691893624494279824e-01
3.181241228822891398e-01
2.257203379211303873e-01
2.852355984410028245e-01
2.991322162915560079e-01
3.122076808568460815e-01
2.470756795008255124e-01
2.988419622337250003e-01
2.462273257949706140e-01
2.382312072094081024e-01
3.018819255665359247e-01
2.557494265975602810e-01
2.787549234292863720e-01
3.103118376148427116e-01
2.823875423184796229e-01
2.606368695110484746e-01
2.635337323522466413e-01
2.438354260960073072e-01
2.757441432657070646e-01
2.421569175504456883e-01
1.999495604469774257e-01
2.248510616003146778e-01
2.847011766410282307e-01
2.093699548354099327e-01
2.528019158152988721e-01
2.314260342685171556e-01
2.542178100538613483e-01
1.905481829200526556e-01
1.614385554160569225e-01
1.776871900579013452e-01
1.824620518099928368e-01
1.416024057659192592e-01
1.128963042510967019e-01
1.646846368339882904e-01
1.687362220169466298e-01
1.360593648107324694e-01
1.238969491467837303e-01
1.448447512816929406e-01
1.277706108027384935e-01
9.856436837187029787e-02
1.119399748548331464e-01
1.656760931039246709e-01
1.489389155346694249e-01
1.290740433725132696e-01
7.909101267155244086e-02
1.012780059302906960e-01
1.170104414974219853e-01
7.617622181620201105e-02
7.488335885995078822e-02
1.001940608370270047e-01
4.761411838075280123e-02
1.410192585401072174e-01
1.212560704154018454e-01
1.178723236055173595e-02
4.761590873799704388e-02
7.359715985463025079e-02
3.142420862043990293e-02
4.653473525789808551e-02
8.216518502556359460e-02
5.163674503658183257e-02
6.015799855694781151e-02
-1.689716121458004899e-02
7.362827149920050940e-02
7.499908769328261782e-02
6.277862508107308337e-02
6.864266046183802039e-02
1.908957716807962307e-02
5.573157997549364751e-02
1.783730678211595255e-02
4.639585857858672530e-02
1.013706445176960347e-01
1.962661650140559710e-02
2.885015324852090515e-02
8.454253204057474158e-05
6.741015580492806802e-02
-1.842251803358731232e-02
2.478660484270136383e-02
2.769497804360322377e-02
1.322464183132397372e-02
3.650685694908827050e-02
3.067544317162777812e-02
-2.743497369849342768e-02
4.313436696358494832e-02
4.198408601002048129e-02
6.127197176875296553e-02
3.477925749491067586e-02
2.891160106603687940e-03
4.819557209509661710e-02
3.973131383352259544e-02
1.548146830980579730e-03
5.233010955614995907e-02
1.741618315532782874e-02
4.454464092171916967e-02
3.130020629288943895e-02
1.896464943125161784e-04
-1.683654799622569601e-02
2.678883612392181715e-02
3.478450588753934092e-02
3.465248235124513548e-02
2.741514482408289460e-02
1.488357700332169214e-02
-3.248844965333532592e-03
-6.125217737289259667e-03
2.226442964642826386e-02
2.858713132568924120e-02
1.530549868941202818e-03
1.218610586642217448e-02
3.646370153255636820e-03
6.559768505415765338e-02
2.857843368231281073e-03
3.564466812494838238e-02
4.328873438615559593e-02
5.444151860801924731e-02
3.293640934926801017e-02
5.146961796805751832e-02
6.815974538471350486e-02
6.132216096563856966e-02
4.039773724986540915e-02
9.942340144218662218e-03
8.625876215625405408e-02
7.304273157574961428e-02
8.772212600916123870e-02
4.635247794009532407e-02
7.669576820795492855e-02
8.076501634489921533e-02
1.310251475944570199e-01
1.020736627746890723e-01
9.032905322809939297e-02
7.339082825463998094e-02
1.251144457059548964e-01
1.115868227144559549e-01
1.345051729373175631e-01
1.668281889710914456e-01
1.429438433310889212e-01
1.536132187301034735e-01
1.521280211973616292e-01
1.603847633539099427e-01
1.312762630985146728e-01
1.652146689501039489e-01
1.266702689457011588e-01
1.965756125989633618e-01
1.805524675187619998e-01
1.086554168007502624e-01
1.305808903868399540e-01
1.755004705467692605e-01
1.496566938653905166e-01
1.543903575801973405e-01
1.698618391320090848e-01
7.739954622212336099e-02
1.422883469001143819e-01
1.241661741152714077e-01
1.743448628545472556e-01
1.170585095770245998e-01
1.811067104705644526e-01
1.277510484782236333e-01
1.512376805669674307e-01
1.229066106521264495e-01
1.509095343356947616e-01
1.136728603549226335e-01
9.672345248729144473e-02
1.600696985425436036e-01
1.098236413500357778e-01
1.029525778312911366e-01
9.268328228186098472e-02
1.181980854163783984e-01
8.594605950404449191e-02
1.613595361712365506e-01
2.042608710321746623e-01
1.994363242582895546e-01
3.060048100704200746e-01
3.080996894844901801e-01
3.663189800623221637e-01
4.128177346913529111e-01
5.483731835848355551e-01
6.153017747120155256e-01
6.412838377544282098e-01
7.144519588911381058e-01
8.198939996944786257e-01
9.063580326032039114e-01
9.450001055819476914e-01
1.068938036263950009e+00
9.778929728869250049e-01
1.111533266367269013e+00
1.040976998776996121e+00
1.016455663184999469e+00
9.776394168904851689e-01
8.980563252384149431e-01
8.536291035743742706e-01
7.593432949406647703e-01
6.900683716520820132e-01
6.275127652094372177e-01
5.866160223440671784e-01
4.311603313654184255e-01
3.812520796856243566e-01
3.104244768392344089e-01
2.075913557595213121e-01
2.524458710528233452e-01
1.437037138787900237e-01
1.764292899549643190e-01
1.268501055788541498e-01
7.721647640470549745e-02
8.007226897121766385e-02
7.841588629322053527e-02
8.472999375567932812e-02
9.683401330079607905e-02
1.201128219596562519e-01
9.426925844703626378e-02
2.332236538620657135e-02
7.953087421568072468e-02
8.502702771228698442e-02
1.230082407756294544e-01
1.231943181910621493e-01
3.069395654047691463e-02
7.443518400851069361e-02
4.818108254773315058e-02
7.214010543178003831e-02
8.650558377362778384e-02
9.741794739364210975e-02
1.257272595127286730e-01
1.066813953992369890e-01
5.282894792455334471e-02
1.609105736524864827e-01
1.364433305603156010e-01
1.553278014765082093e-01
1.239616779373526878e-01
1.282946548938997122e-01
1.550486499357599801e-01
1.557729496647288769e-01
1.598605257642268518e-01
1.888018458830259816e-01
2.089522062368595889e-01
1.732932622263786138e-01
2.216840027838250238e-01
2.129701980921568927e-01
2.685969836179824544e-01
2.722322571976769634e-01
2.056728555728719321e-01
2.367757363777678870e-01
2.468013442626717791e-01
1.761228256339540388e-01
1.995820142786013385e-01
2.377558173046869505e-01
1.966007647544111003e-01
2.895276534413505076e-01
2.711181324191415110e-01
2.642505126203795185e-01
2.984394338403779656e-01
2.525493740569745293e-01
2.287678606400840586e-01
2.066759038422417427e-01
1.965717148968212646e-01
2.212839926899307086e-01
1.704123447862702645e-01
2.123568639766104382e-01
2.319379211430224186e-01
2.124534897669936861e-01
2.004442787103318802e-01
2.158434143962488228e-01
1.885513122191584401e-01
1.734994885616903681e-01
1.235655934674671497e-01
1.786534749617104678e-01
1.714693019384272432e-01
1.513718275442617056e-01
1.571863935241419874e-01
1.405619297260563838e-01
1.712199592582808183e-01
1.228562800871977473e-01
1.429869984328500099e-01
1.216895120005201114e-01
1.530940230202969821e-01
6.970546599138083277e-02
9.521333242510945927e-02
1.181871119732608444e-01
8.501802993458570934e-02
6.957811565590443781e-02
6.057105098467834015e-02
7.762490557716636430e-02
-1.575831758607738539e-02
5.962066282813316409e-02
9.419449655807914101e-02
2.399022645156080602e-02
7.321785548569606505e-02
-7.473356701788010092e-03
5.545052290022386976e-02
1.743834113838718322e-02
2.677913013446164836e-02
-6.193926339656367908e-04
3.890034168246160606e-02
1.912996444329504581e-02
8.565011553802175104e-03
1.473430236190995460e-02
4.245847571012231064e-02
-2.556784576432032802e-02
4.222148688598897220e-02
3.050632352884429313e-02
-2.792660572893345544e-02
2.266344252603870457e-02
-2.411866456332330960e-02
5.834740545504145393e-02
-6.934104791868268836e-02
1.016714890964821871e-02
-8.560839465336339549e-03
-3.476072526967813325e-02
4.366289610515215747e-02
-1.160803599606343231e-02
-4.411792217721790393e-02
-4.814699633645502796e-03
2.816035555193748680e-02
-1.464442703932021528e-02
-3.320285553851373694e-03
-2.467279108417947536e-03
-2.797782108119174077e-02
1.942688992923716912e-02
-9.503220393243132225e-03
-1.179443158340309945e-02
-6.385502074951840412e-02
-1.088456282983341419e-02
-1.390127148024183391e-02
3.272119148311516956e-02
-1.107841830048243714e-02
-1.056277925023982878e-01
-5.287197783942197693e-02
9.242644275021631717e-04
-2.025850824484675891e-02
-3.244147663655713026e-02
-3.418901809157133542e-02
1.073237960301405558e-04
-2.465717354887529342e-02
-1.644853697653859276e-02
-8.677990356633514396e-03
-3.450751145949015192e-02
-2.551148461253351096e-02
-2.764343885736908826e-02
-1.510980582922988660e-02
3.152604797479328924e-03
-2.912897621523819272e-02
6.485365249787284486e-03
-1.804380619726488402e-02
-3.913537327233998497e-02
-5.266840654414577105e-02
-2.120833462192433377e-02
1.155284840628076348e-02
-3.187877315653923210e-02
-8.345747775035734783e-02
-7.736643753492832010e-03
-5.745914731674349463e-02
-2.458570197494564305e-02
-2.866816549529546329e-02
-4.452952932545744397e-02
9.501649271311023159e-03
2.525455953269568898e-02
1.677220331742599463e-02
-6.271585433303147883e-02
-4.449841479048587123e-02
-3.364093240389420120e-02
-4.344111137005684381e-02
-3.866968860159150645e-02
7.231708379128043429e-02
-5.755762893122365331e-03
-1.763824375535693809e-02
8.314733873687064902e-03
7.554697825456624383e-02
3.172097286652255516e-02
1.725937719258165831e-02
7.510250260520368037e-02
2.605294107673348375e-02
7.601930878831472671e-02
9.193380170329801260e-02
5.597955318933006685e-02
9.097508688964854595e-02
9.996575607627176951e-02
7.447008432871377037e-02
4.609741003295392964e-02
9.968464120530454164e-02
1.034756154554149488e-01
1.112707225811664646e-01
9.267861415882400200e-02
1.127130171191286501e-01
1.843255437244009642e-01
7.154215450403217380e-02
1.380219218226144406e-01
1.221442876640561059e-01
1.088826588997857669e-01
9.688454708455918052e-02
1.398515673707429186e-01
9.694833234024202717e-02
1.216021773414306117e-01
1.319071513438464793e-01
1.064650928951151598e-01
9.370143465662768290e-02
9.545324957553694145e-02
7.005185409839569111e-02
7.686316352401184604e-02
1.145025438914061833e-01
2.359235036192619539e-02
7.499988723924604084e-02
6.046029437969293457e-02
5.377225143023092041e-02
6.988902324189349979e-02
4.104098094034794308e-02
7.568827585419482529e-02
4.315228218056861575e-02
2.852106876780666211e-02
1.350328208498617066e-01
8.026470011736577814e-02
1.602661071967693696e-01
1.766325045403205340e-01
2.616999511191456795e-01
3.164856229529466880e-01
3.221733759284769461e-01
4.045282057972169887e-01
5.013151814736764855e-01
5.398989973905493622e-01
6.680482698783465345e-01
7.150299078829255306e-01
7.763478751143076950e-01
8.808507978355295531e-01
8.796550334929967851e-01
9.924222672380244026e-01
9.884559815205249400e-01
9.698403738953880193e-01
9.931319246127892075e-01
9.887038261071640077e-01
9.125266624295687024e-01
8.600625715761941459e-01
7.852995033260405933e-01
7.275089029587037404e-01
6.196213820967937380e-01
5.565892070580977791e-01
4.290792368402829293e-01
3.800621568252103288e-01
3.737364540912930244e-01
3.101835718047393220e-01
2.717433120312666150e-01
1.403050781541889391e-01
1.253058748356638552e-01
5.169267623726126609e-02
5.912253098185277222e-02
6.306111145134001006e-02
-5.457536607797181666e-02
5.592474983254643733e-02
-3.429969987031083328e-02
3.889552806608682911e-02
4.405415931389319167e-02
4.364288600237540422e-02
-3.668945259970579631e-03
3.424759918110873574e-02
-1.417974584365057356e-02
6.130586120063272193e-03
1.927287125637514031e-03
6.568304594896851034e-02
8.039422085959381514e-02
1.527671029330039676e-02
5.266473687125083208e-02
7.852349284687024089e-02
9.713071994110328289e-02
7.639311359973668947e-02
1.310285653614096657e-01
1.075926885159672886e-01
1.299209444388954304e-01
8.461677321334329371e-02
9.287776401431299678e-02
1.110571441022170369e-01
1.069864768343277706e-01
1.239263267629927001e-01
1.254340703361354337e-01
1.331271944738044721e-01
1.876111572944552108e-01
1.772443637009404882e-01
1.835485178845316090e-01
1.403809857336217604e-01
2.266108709403164001e-01
1.786871350309171547e-01
2.107271035266526371e-01
2.232990222122396007e-01
2.400189408551665904e-01
1.703660654602442426e-01
1.762897580619935400e-01
2.292432179522335134e-01
2.100236171868426760e-01
1.969908580423060662e-01
1.704812548111083736e-01
1.488589762384431858e-01
2.185067979614731259e-01
2.077343952426640994e-01
2.190540561682917942e-01
1.950211247271746717e-01
2.242189407294131187e-01
1.809146249658807326e-01
2.179654454982773437e-01
2.031880077272063823e-01
2.395027553344292737e-01
1.305970988272531219e-01
2.013533163146271343e-01
1.545425715200776373e-01
1.593403546230537926e-01
1.947210650047828673e-01
2.063880457319771378e-01
2.121127820160607635e-01
1.404006553194735996e-01
1.467506703815701641e-01
1.542060437823333519e-01
1.654926519261782913e-01
1.065757396099074328e-01
8.758019591630708534e-02
1.172206438762792707e-01
9.255626626466142981e-02
8.533749163072569532e-02
1.283427272913487682e-01
3.363590723270418886e-02
8.595209330926592561e-02
7.610292618740753523e-02
6.238278653847725841e-02
1.745586674638677921e-02
1.605587753738561829e-02
-1.663477829235773114e-02
3.919120418589999710e-02
3.189182981636151659e-02
4.132353290872754770e-03
5.466325113787122436e-02
6.526404909300589918e-02
4.064923439937390137e-03
-9.445343673133224649e-03
-4.449403677200000629e-02
6.036459970600663305e-03
4.393962634710507631e-03
-3.052488780927435294e-02
-1.601962057904188913e-02
-2.824300400271995831e-02
-2.989692729143796773e-02
-4.051019500026228903e-02
-5.358483036451533454e-03
-6.532160526709560044e-02
-2.267232022478164744e-02
-2.480359655350387882e-02
-4.050647059379135217e-02
-3.537420629126183935e-02
-4.569771769610377066e-02
-5.263902014820377728e-02
-2.242694089914664540e-02
-5.158007054965610405e-02
-1.703523265218882810e-02
1.051173372359991837e-02
-4.920398982222830980e-02
-5.150209342480347591e-02
-1.010439865196268439e-01
-4.065664384938560971e-02
-7.684627591521865642e-02
-6.021013380436840423e-05
-6.905514935113540864e-02
-3.530044528097028150e-02
-1.086264521181343201e-01
-5.417307036764683337e-02
-5.858345869448841614e-02
-5.408098466013761679e-02
-4.992194889047428530e-02
-5.981954136016613688e-02
-3.004214411621508943e-02
-1.204823602836817692e-01
-5.261319113119514168e-02
-4.558035283943921712e-02
-9.511295898309495012e-02
-1.331612443430602727e-02
-8.081897517604073877e-02
-6.511350477592366126e-02
-4.513632813492268747e-02
-1.809441157581109794e-03
-2.881460221611845118e-02
-4.334264998850284600e-03
-4.530806471039823535e-03
-2.720759402054155271e-02
-5.125078571102134606e-02
-5.474240487376857978e-02
-6.018211637452561269e-02
-9.310045050040940962e-02
-8.038602729502389299e-02
-2.824711140818359986e-02
-9.790280950510432678e-02
-8.410375139282938450e-02
-4.750400738374791626e-02
-4.703959538065958373e-02
-5.652535035355608917e-02
-2.379933906991622827e-02
-7.775550748579974913e-02
-1.549568681815460813e-02
2.833226374567054950e-02
-2.114873735842599106e-02
-2.914339776949927130e-02
-3.235797281713650997e-02
-1.530624443242546706e-02
-3.073591862981437522e-02
-4.186707065494342517e-02
-6.078600993695421062e-04
-4.262433484032029929e-02
5.180142687307764948e-03
-7.394570304862652099e-03
-1.608836974214904875e-02
-1.377021183501781626e-02
-7.120647462079632284e-02
-1.565619447932817959e-02
5.037277620239634379e-02
-3.030284896563400360e-02
2.522264841426530985e-02
2.763037579482571782e-02
5.817782207872544686e-02
2.543961281110312250e-02
6.158926662275898689e-02
3.871983610353825489e-02
5.217854717736627318e-02
1.765011049803030113e-02
2.692299493210892347e-02
4.109986889801649917e-02
7.272250736419136330e-02
-8.178932721579511289e-03
7.834805630049951342e-02
5.163209095754438954e-02
1.302423029092881213e-01
9.748662329313476094e-02
1.186819069335685040e-01
6.130518644385516552e-02
7.876351355853902780e-02
7.373471197331404881e-02
5.928979873224791280e-02
1.205773807520005986e-01
1.546879285743055221e-01
1.003968733557334403e-01
1.116363487227744478e-01
9.417879779392770989e-02
1.126546855662991231e-01
8.041123323644747134e-02
9.022849504149321742e-02
9.690833755087811807e-02
4.952018821953297484e-02
5.301053037138243884e-02
8.670261407672874565e-02
7.440021477871419653e-02
6.061181564279434497e-02
9.863934441958688293e-02
5.106955425343921023e-02
6.607059028346259910e-02
9.098322110153297948e-02
1.245134742224178748e-01
1.217420009877871745e-01
1.501153306410838162e-01
2.044817062207948399e-01
2.049473441134569418e-01
2.494502778867207504e-01
2.710113712901046079e-01
3.486529517914450094e-01
4.232921391450408244e-01
5.138334765150860406e-01
6.195014277121380086e-01
7.121994844344621267e-01
7.706000554957788129e-01
8.507900180381571253e-01
9.319138625908086615e-01
9.299243177267172422e-01
9.695855426938719823e-01
1.026221600490935693e+00
1.005917457220380173e+00
9.769222999881250757e-01
9.473621993735759084e-01
8.910441170564280533e-01
8.607338136167004272e-01
7.466800153021605491e-01
6.729197959139612273e-01
6.201836324226543962e-01
5.364917478570100373e-01
5.245841059392711836e-01
3.323363884393043532e-01
2.930139910817659010e-01
2.329079725826112002e-01
2.094782505401319717e-01
1.594770760471845017e-01
7.163640328789253053e-02
7.364311201145548602e-02
4.898276327779065020e-02
2.467514515506493561e-02
7.796839072386901881e-02
5.568987959520761699e-02
-1.592145752153990151e-02
6.043689828229241445e-02
2.916497308508252118e-02
1.293272517473134653e-02
3.177447579510397219e-02
2.906014487700146753e-02
2.109796031161443458e-02
8.810510458053179283e-03
4.947521037478229411e-02
4.145437248474017483e-02
6.726275406065748697e-02
1.219502388284590677e-02
7.597079606213621994e-02
3.775575052258920566e-02
8.040502946078198487e-02
3.746851013864316987e-02
1.186126491440428476e-01
9.392730295013336506e-02
8.067027726769770979e-02
9.060142132604662168e-02
1.447711803976000078e-01
1.749058566406840598e-01
1.262475684659005171e-01
2.214814033762763368e-01
1.643286641653816105e-01
1.403411995845670890e-01
1.364674594426496523e-01
1.951415893949498548e-01
2.024039800674992950e-01
2.368590723519212182e-01
1.727482634918117710e-01
1.924276335374471014e-01
2.073929672143113301e-01
2.402798276986634063e-01
1.587075515942187320e-01
1.824241321591110188e-01
1.671675296016285617e-01
2.025854668949023663e-01
1.961190538477005363e-01
2.062816119955496463e-01
2.333425514674397350e-01
1.700807806730273430e-01
2.610322121086706693e-01
2.235749400266250630e-01
2.374455462317333065e-01
2.028117380921335977e-01
2.463945989596273423e-01
1.972848722951807132e-01
2.372471815852521537e-01
2.682926889408601689e-01
2.221731424925419973e-01
1.590357155397576494e-01
2.345606154186817560e-01
1.484644857127317141e-01
2.015233352831566904e-01
1.952506313505047719e-01
1.062059548076926263e-01
2.050332657935309000e-01
1.835203675379453447e-01
1.875962463337501884e-01
1.656775383132932655e-01
1.439049632108960475e-01
1.538677530775812152e-01
1.711261484219134821e-01
1.302582813930510952e-01
1.462638653279273726e-01
1.057214657343875791e-01
8.440990369820784711e-02
1.282389759558170139e-01
7.856717273579227889e-02
1.382707928770004757e-01
1.221423975172433590e-01
1.133926148476472051e-01
8.337201691234752410e-04
9.805431442416769061e-02
9.113302946498769153e-02
8.535033517111666190e-02
1.007865374644589251e-01
4.374404587277132272e-02
7.899683686601313704e-02
8.699730953862536142e-02
3.471838045133503192e-02
1.693324296012139671e-02
-3.037325548761706656e-03
-1.232578171885680487e-02
1.965089444216352663e-02
6.296424307109121932e-02
-3.753399077727551103e-05
-4.825639364413599613e-03
-6.026488126847214660e-02
9.315689927016144664e-03
3.813519041293030737e-02
1.006271134076080695e-02
