1.136364658145722073e+00
1.094488445965394074e+00
1.078137508190950555e+00
1.092808125050187762e+00
9.786306564370041983e-01
9.148253486031513448e-01
8.050206377455433326e-01
7.438037980921985426e-01
6.496149395145687233e-01
5.144261275758346130e-01
4.481220709454861728e-01
4.303766749427479499e-01
3.547588879854032817e-01
2.503866592299042182e-01
1.872330656367522383e-01
2.104215457410648638e-01
1.051219223451401036e-01
1.351398869965576011e-01
7.815710980918533224e-02
1.165121329230287134e-01
9.814990839253505406e-02
5.811864902485495976e-02
1.532646008007584708e-02
7.512871904753294638e-02
1.081744115398498574e-01
8.707267318546857426e-02
1.008884845615706655e-01
7.610172223153469084e-02
7.667963859407682381e-02
1.331736842758369788e-01
9.509352433667071780e-02
8.326974575974606385e-02
1.375685658662827160e-01
9.099355529053616831e-02
7.639965429254479135e-02
9.979978421693755375e-02
1.252775682138685676e-01
1.421840078368528659e-01
1.191212741100847461e-01
1.558519295899884471e-01
1.312414579489863953e-01
1.055382352881264196e-01
1.891854870104563713e-01
1.150439111180079493e-01
1.995288341348889771e-01
1.852928171119503642e-01
1.900176639825738867e-01
2.012879386627903777e-01
1.707607593020215309e-01
1.914415307703863089e-01
1.873441470682040422e-01
1.814268496780301887e-01
1.600591583349095515e-01
2.341460206400724220e-01
2.444325056117190587e-01
2.175300748350846025e-01
2.984444043295952365e-01
2.907462078941536743e-01
2.372590647182500345e-01
2.282196214372491649e-01
2.551764450785539151e-01
2.301951833614664655e-01
1.910778639990827754e-01
2.158299554867328662e-01
2.434620151727820148e-01
2.308064130127084890e-01
2.306523761149996687e-01
2.819053423790305324e-01
2.890504532167562091e-01
2.413744212372033182e-01
2.573072712916328331e-01
2.583704174357216443e-01
2.214649404167792490e-01
2.003035837692113408e-01
2.085943788839897950e-01
1.953049614416619284e-01
1.617328965336789492e-01
1.985322063113453828e-01
2.205259987958205770e-01
2.227536927035465575e-01
2.147996500212061011e-01
2.898945272724629540e-01
1.666176051984327999e-01
1.832718613665126062e-01
1.296163233419569683e-01
1.877132572653385234e-01
1.583637292751884362e-01
1.790668002819739424e-01
1.484764556423809057e-01
1.580807386155027305e-01
1.079138855953096221e-01
8.748946477255094278e-02
1.033693442409950314e-01
5.919861671282398985e-02
1.327231976040882666e-01
1.353297510936994352e-01
1.103941505632927422e-01
7.351421073459776800e-02
1.329544729667192504e-01
8.402766717150755849e-02
7.786405707082752481e-02
5.955923535759253401e-02
8.210918096771767372e-02
5.947527815324372968e-02
2.684898241939619179e-03
4.230041801696026588e-02
5.488379361604199536e-04
2.635002731872309115e-02
2.653428126582073679e-02
-1.081936561357103518e-03
9.121984340142367045e-03
6.034940147437628521e-02
-1.209130394536288289e-03
7.718846858257998045e-02
4.656872322455070379e-02
-2.421507021577366803e-02
2.596339583911286969e-03
9.244472981050805283e-02
3.833013808003256362e-02
7.561009080227967805e-02
1.522002617048969463e-02
4.990619813541492117e-02
6.189929129835311516e-02
4.481907843535101743e-02
2.438683634845828854e-02
-1.422350685447667032e-02
3.134979880882937664e-02
9.545634159546633607e-03
7.046160202273349382e-02
8.335670522254326475e-03
2.234189709333498156e-02
1.256141262061801107e-02
9.093614249325428223e-03
1.879280167778537777e-02
3.322510133778444619e-02
-9.157176488194848640e-03
-6.517106923910442884e-03
7.997120365374153772e-02
-2.927029094229942688e-02
-9.873372169043506674e-03
5.906719682551702516e-02
2.673615766242851133e-02
1.977427233730717077e-02
5.966186406111809171e-03
6.607394610677883029e-02
6.095847332087554749e-02
-5.089916302075213339e-02
9.629331014192565180e-03
-1.026263080577111825e-02
1.473994261974091030e-02
5.309197603083914280e-02
-1.628724318674633353e-02
6.248499853075079741e-02
4.838077211655159027e-02
3.945224920316126038e-02
7.837302993904535220e-02
6.927558032029172697e-02
6.754930937901984511e-02
4.326724206083712443e-02
4.245867304315398272e-02
7.394448734590183814e-02
2.496134126228242989e-02
5.105129411710326165e-02
4.167968842277373215e-02
5.937265493606744965e-02
9.963349811456319316e-02
8.625197951724306034e-02
9.272707337433543084e-02
6.974125855033902477e-02
1.324629486410468238e-01
9.054772662106649883e-02
1.161765262984671421e-01
1.532480784905282667e-01
8.814680403857026725e-02
1.396445706579582391e-01
1.839340394343754737e-01
1.762295882468969122e-01
1.624612136949128149e-01
1.342150748737424293e-01
2.017612494486940022e-01
1.828687188424546473e-01
1.846415623796137662e-01
1.652179613251236467e-01
1.809019347665090649e-01
1.777691823773062396e-01
1.797183842652955721e-01
1.835934833765997254e-01
1.676743909894410078e-01
1.668975778556374689e-01
1.842895597850636724e-01
1.512428270568628719e-01
1.580710864492415602e-01
1.316899837502336357e-01
1.730749852937766009e-01
1.659613332197110158e-01
1.815397765946297204e-01
1.592186006525820041e-01
1.516452932097980544e-01
1.692533270635144527e-01
1.273177188649324276e-01
1.598097736326640206e-01
1.147887101224242257e-01
1.137551861000734577e-01
1.212143397123823241e-01
1.272049159840537014e-01
1.519362864789124967e-01
1.381452652633465561e-01
1.679419795976940244e-01
1.953883401886930826e-01
1.717473151348077320e-01
2.488061834449280252e-01
2.841858735060722174e-01
4.076565492763850607e-01
4.142371826797605627e-01
4.871502967760844571e-01
5.923551031361475872e-01
6.446198917719496713e-01
7.636933562112470097e-01
8.209818294169842767e-01
9.516289876281018856e-01
1.013140174671008475e+00
1.106681199826772266e+00
1.153916520101994081e+00
1.182369629390676469e+00
1.156428240520645190e+00
1.222545795858034134e+00
1.127721282186569418e+00
1.075916057435148732e+00
1.035685924378482614e+00
1.048019528028557357e+00
9.129061539677952863e-01
7.310755892957887525e-01
7.097758611076534496e-01
6.371304695923606376e-01
5.907429338241737549e-01
4.327852189165703467e-01
4.094262936093341354e-01
3.028071284661089657e-01
2.814683399661910279e-01
1.995904894522320394e-01
1.969249253544222977e-01
2.030313964934296611e-01
1.156158028145162220e-01
6.202741907348504474e-02
1.019981621899462843e-01
1.191260853259528824e-01
7.062181451217680594e-02
8.357837592102912438e-02
1.627924968736121081e-01
8.581208085961147813e-02
7.120499919528400223e-02
1.083452226085245412e-01
1.394106194134207277e-01
1.533175065701536388e-01
1.399946499121851595e-01
1.527923542660898637e-01
1.128078731510250843e-01
1.489375829920204231e-01
1.667459682908741803e-01
1.446298910111758484e-01
1.983494992727369011e-01
2.062917790579201494e-01
1.646179145967826274e-01
1.538207779709279133e-01
1.891540686666614568e-01
2.402798891717005669e-01
2.164466506604142693e-01
1.897536126482995689e-01
2.245456303709120471e-01
1.755016122184993310e-01
2.419823387190779551e-01
3.004688673644047014e-01
2.874441063637839244e-01
2.525165276259211944e-01
2.597001895139466887e-01
2.953578895402015903e-01
2.858093451861065115e-01
3.328923586310023053e-01
2.393076530028087900e-01
2.216321867098657583e-01
3.088198195418231373e-01
2.521678694558152078e-01
3.342572977382750610e-01
3.412124649390059217e-01
2.876155360608247946e-01
2.995848732939074277e-01
2.919957052717047086e-01
3.204434052010469713e-01
2.749644435875348014e-01
2.787508198045522967e-01
2.868453517090672755e-01
2.822616997300363417e-01
2.498109172319367133e-01
2.702604277295008184e-01
3.006219503076285604e-01
3.045836078144580905e-01
2.799177456252349705e-01
3.057972654761696996e-01
2.844409805962059279e-01
2.599472718587345077e-01
2.270995759824467053e-01
2.203462870895448455e-01
1.874232990434621104e-01
1.926032068256045837e-01
2.829616632377219276e-01
2.397856938673654792e-01
2.364924473992326137e-01
2.070305475754657676e-01
1.621845953739682322e-01
2.339187248597041635e-01
1.995349455757159662e-01
2.037090780163782477e-01
2.534706480403184914e-01
1.895716663603638219e-01
1.661723726756208219e-01
9.665096807239734189e-02
1.224182325282509032e-01
1.255061588126025196e-01
1.564092048573119120e-01
1.450256229928247875e-01
1.766083322523883115e-01
1.718805176621104880e-01
1.409156448930696526e-01
8.100376668970005190e-02
1.129464273639550348e-01
5.525779302808184884e-02
8.124733776292883403e-02
9.883553327402995470e-02
7.999291857046977872e-02
1.161483348701350671e-01
1.198576237523988758e-01
6.438266251064392320e-02
8.290259803245286774e-02
2.863357912191081753e-02
7.379337687372904131e-02
7.981783332844624712e-02
4.347819075932646271e-02
7.647716284414121657e-02
6.039850325164351080e-02
1.263335531262234079e-01
7.997374106868876398e-02
5.097211433068165459e-02
5.389399149878704859e-02
7.086435121353915068e-02
2.468262525907221477e-02
5.494018443039471594e-02
9.607390778531285647e-02
5.648589434648604302e-02
3.157967624390665279e-02
2.062747733361203553e-02
4.101705744242525181e-02
3.196754001906014497e-02
4.582082044089510336e-02
5.491959576252077729e-02
3.964030015868834356e-02
4.892157688991698172e-02
7.104185426122799907e-02
7.873004476440866040e-02
5.467457867465579796e-02
5.077142255602707516e-02
3.644949523065854624e-02
9.416905653118083641e-03
-2.522106316529625081e-03
4.231874591708123523e-02
4.645117347092521387e-02
1.203485655275165350e-02
7.283148698810645860e-02
2.617134872790587846e-02
2.987598239614116039e-02
5.721841590858650628e-02
9.247850825212108883e-02
7.328840883704328124e-02
3.904002786575196116e-02
-2.389385060992170462e-03
7.521085967763004032e-02
6.644764400825886597e-02
1.309404963543900347e-01
6.257019545271920447e-02
3.401800265174306781e-02
6.595200352196438354e-02
3.164614440283360086e-02
3.264656598703642720e-02
6.956760149903820634e-02
1.004938335069626154e-01
6.662972089533561459e-02
5.222060178117763490e-02
8.914523666263790558e-02
9.496325337261565802e-02
6.875055610482197488e-02
1.305030527916921090e-01
9.659285986762647380e-02
9.091241871176716782e-02
8.962341294302615669e-02
1.440942010407307572e-01
9.983175792309462171e-02
2.112135994191195049e-02
1.364793260729532109e-01
1.870461032172612559e-01
1.515716627304688480e-01
1.522890795404930331e-01
1.867206164810375491e-01
1.620481878317487912e-01
1.753818485082569711e-01
1.224513989329687191e-01
1.994977019263420304e-01
2.279954172170843840e-01
1.255170628179728964e-01
1.993352890377193265e-01
1.385223962031787714e-01
1.576164258975973342e-01
2.000802336234611400e-01
2.175590202673173823e-01
1.605017802902670987e-01
1.990407077319075457e-01
1.859761310365636855e-01
2.087535917938044550e-01
1.728272984842791904e-01
2.011062019394156408e-01
1.503676342054800497e-01
1.512757968379502549e-01
2.273951463521961536e-01
1.868085565939862636e-01
1.455466226548825792e-01
1.831596373628106844e-01
1.912206428348925957e-01
1.622098924368194084e-01
1.349580206677949146e-01
1.806891272788030134e-01
1.942388816522211126e-01
1.600068533003709270e-01
1.955331631480267951e-01
2.091645375777974603e-01
1.525665268041896117e-01
2.643164071731700648e-01
2.435694711708264182e-01
3.079537333752066508e-01
3.369216475207212902e-01
3.667295417878385644e-01
5.060135019818068347e-01
5.506678533941682385e-01
5.875222015387886465e-01
7.567806632672228195e-01
8.377803046023712952e-01
9.139637212410425260e-01
9.839685314885421308e-01
1.042650871584456684e+00
1.094064082640809010e+00
1.156954706727383542e+00
1.205685455239674964e+00
1.130869090693955581e+00
1.132377148729500238e+00
1.121058573436175099e+00
1.064174703284202828e+00
9.961306530821048000e-01
9.332948045399528381e-01
8.932256239694831290e-01
7.930401097271555511e-01
5.982246544399820731e-01
5.684418570275893146e-01
5.144898131494780591e-01
4.116607800827475905e-01
3.850436922971627318e-01
2.789032685581417925e-01
2.613891347985854985e-01
2.389701074466077657e-01
1.877544722953531364e-01
1.840930431510798548e-01
1.581124436313497972e-01
5.937435182835384961e-02
1.248000410315303066e-01
1.239693740659576771e-01
1.029875363568571733e-01
4.871875487673406335e-02
1.413970968158805575e-01
9.675355995407748655e-02
1.545219506197488268e-01
1.141563835254050252e-01
1.309791446087578137e-01
1.132108929379705420e-01
6.052971671402994358e-02
1.150937389180295145e-01
1.970490021752354382e-01
8.006568475770742266e-02
1.623295707091686468e-01
1.442937308058308554e-01
1.704409490711287500e-01
1.800632922983411988e-01
1.629965209851873820e-01
2.110618998228975807e-01
1.888961516473774971e-01
1.501557960124983993e-01
1.830549277670662778e-01
2.187038131438037436e-01
1.869075117670481734e-01
2.267965957076019390e-01
1.988692092000832745e-01
2.088108458111667398e-01
2.475856309681727097e-01
2.537358386218424577e-01
2.714431798305562693e-01
2.623661980699630303e-01
2.596924204930903812e-01
2.977392526292508834e-01
2.446814045396260295e-01
2.819779659336942856e-01
2.409195136155857508e-01
2.763887902132518559e-01
2.793265037472200119e-01
2.753164626938227610e-01
2.629867286289497841e-01
2.349035815963442519e-01
3.278282000209530311e-01
2.751817145565031431e-01
2.536130213346580176e-01
2.551435899778562999e-01
3.008183458003381161e-01
2.356351036101724250e-01
2.887437610066210247e-01
2.916275837788591674e-01
2.940347637251307100e-01
2.320133692936768577e-01
2.814039669133736044e-01
2.728681339785775650e-01
2.556085741256768906e-01
2.751704226760105509e-01
2.318077968749593099e-01
2.169541690778072351e-01
2.447090625956734877e-01
2.332506899316895976e-01
2.096080693937898143e-01
1.947939951235714284e-01
2.515648936850279904e-01
1.422752635795262732e-01
1.742704207196946464e-01
1.864826574600206288e-01
1.804065856482697516e-01
1.683816688320151911e-01
1.149371445117928076e-01
1.356373558831739934e-01
1.410505469786683674e-01
1.407799722539984366e-01
1.160128570236140522e-01
1.583638586388013969e-01
1.496180113107277165e-01
1.141005409792394676e-01
1.004023007585207738e-01
1.188270846825510152e-01
1.119477963114760555e-01
1.018302583849003684e-01
1.323795674475250206e-01
1.100137313678151429e-01
7.731674626491219504e-02
1.154294621482508387e-01
1.017122602401153708e-01
9.688275518808994735e-02
1.046304545989660550e-01
8.830473993237929198e-02
3.770716602927019767e-02
2.723068667730553158e-02
4.456117656327963916e-02
6.939056679955825369e-02
6.522197709999842663e-02
5.924118568216821257e-02
1.191428831412804507e-02
-2.351804460242047992e-02
9.039211327947653529e-02
2.562682169307516425e-02
6.277569621863970939e-02
1.648635998892877472e-02
6.798341841747668202e-02
3.864487538298660291e-02
9.508477607595419712e-02
2.526229290545268721e-02
5.175211714716441980e-02
5.886126402268460761e-02
7.367338405712967053e-02
6.014530345279621437e-03
3.894314152586111910e-02
1.260920407234977780e-02
2.768976368176028977e-02
2.434959425075182773e-02
4.200281587444896353e-02
-2.345135492401125357e-02
-3.522989776214367763e-03
3.536712850201971514e-02
6.042140817916871048e-02
4.973236457111055581e-02
5.939786556310210075e-02
6.836716252625216206e-02
3.519619108924219170e-02
5.343181961790364337e-02
1.820619953840301591e-02
-2.800074227527964144e-02
1.693556299612500315e-02
3.772504816574279163e-02
-2.099876680624038205e-02
1.318667490071045133e-02
5.754642889774355674e-03
1.217891329903692844e-02
1.341546310561068239e-02
3.998301623661994209e-02
1.931988940698700641e-02
4.059557110881412134e-02
4.396760996189837817e-02
4.360350323505769732e-02
5.250693267792986424e-03
5.264562301298628816e-02
8.453205521901079045e-02
7.746391914015385294e-02
3.832109936304976122e-02
4.861606992551563422e-02
5.523920503176445174e-02
2.112942870861313563e-02
5.482203047867904855e-02
7.054946384692020733e-02
2.030419464557008460e-02
1.107616792632087066e-01
9.238558015033893067e-02
7.491347849728319241e-02
1.071944996581673804e-01
1.434568908642155360e-01
1.081095419349618336e-01
9.961055873794821824e-02
1.194429266902281850e-01
1.786069583666376748e-01
1.612376420088820761e-01
1.453830791459183314e-01
1.701029412893629023e-01
1.734525966405810471e-01
1.861872510978598294e-01
1.007523212388442835e-01
1.925753085590175273e-01
1.701069736376197850e-01
1.288221539067024579e-01
1.771689348304812395e-01
2.112166059949301677e-01
1.943234299793625275e-01
1.580112095099232838e-01
1.817742186659565273e-01
1.284261888261878648e-01
8.052491406311068634e-02
1.707253030043631992e-01
1.253964186348081877e-01
9.715371350407515927e-02
8.941365314134318287e-02
1.749986290184570303e-01
1.439235526995509273e-01
1.373405095211402693e-01
1.498699009580183594e-01
1.255409557826741851e-01
1.265944975344085732e-01
1.161853739076648406e-01
1.385643927539249032e-01
8.495219619430119384e-02
1.592376550124192380e-01
1.721692635320393738e-01
1.164571174253951763e-01
1.314910402594390015e-01
1.552193780739676288e-01
2.463458538982599699e-01
2.298283000858487579e-01
3.689468455858168627e-01
3.960332120946414847e-01
5.311774319285340606e-01
5.573299791949059001e-01
6.580050243073578553e-01
7.812214383199255208e-01
8.424408646160937986e-01
9.069935608292407636e-01
9.656425810228512763e-01
9.754773486926663351e-01
1.084408253788162080e+00
1.140685535201854783e+00
1.161400264485692002e+00
1.178597784794473080e+00
1.122121563841851577e+00
1.031740687411786483e+00
1.000284629584519358e+00
9.264787874715562088e-01
8.344748944509985389e-01
7.474052746870307740e-01
6.461502234268344802e-01
5.796412297046658058e-01
4.154971419771707475e-01
3.845517987101960133e-01
3.399277740878544618e-01
2.682017334279278575e-01
2.339307155765229795e-01
1.898064438301472756e-01
1.782322315946840707e-01
1.389832206377274171e-01
1.020112786071476069e-01
6.592986877376522115e-02
1.125913115760984184e-01
5.592727962734161951e-02
7.048349990776160701e-02
4.682720478915526618e-02
1.494488938150333526e-02
5.756662450004176868e-02
2.693732288959144183e-02
4.043216097603616332e-02
7.118627163646198963e-02
4.791578657613175529e-02
8.663760569320454186e-02
8.533637525591886153e-02
9.151733402127321115e-02
8.538533972637391001e-02
8.121135553045265298e-02
9.922834954462447787e-02
1.034613589839893932e-01
9.278936379364484399e-02
1.456160231489394830e-01
1.485138557459968756e-01
1.354048669279738493e-01
9.668603368583038316e-02
2.031717835115714188e-01
1.258978100336918260e-01
2.034169724201105312e-01
1.109600268117034993e-01
1.364401540514799949e-01
1.333138908747161233e-01
2.168522273231039688e-01
2.280388173276581276e-01
1.840552407452306083e-01
1.821875884203309204e-01
1.949808784645576110e-01
2.349116580336740867e-01
1.394076393161068350e-01
2.179533611123861958e-01
2.298060627340158257e-01
2.229709268935926025e-01
2.562984079405891680e-01
2.088637272421872970e-01
2.830848577394316501e-01
2.400302432176655565e-01
2.639406061815929294e-01
2.253518623032558510e-01
1.874679561595768984e-01
2.808919254538849164e-01
2.330174598050947232e-01
1.827081087135205284e-01
2.047798308514906240e-01
2.255772693666089623e-01
2.337641181814663904e-01
2.173576673593273778e-01
2.245061488292715290e-01
1.828516020663595032e-01
1.571761763578189142e-01
2.333094333784020979e-01
1.725007791250481315e-01
2.165085265010748827e-01
2.238313310326014438e-01
2.052392073097900616e-01
1.507336414152918580e-01
1.474710767686015500e-01
1.831691280172164094e-01
1.168659474885832550e-01
2.105660149178268659e-01
1.551469300692590592e-01
1.862328399905654741e-01
1.751974059069887901e-01
8.879187294802136365e-02
1.474387286917967499e-01
8.859851312645126986e-02
6.313428500642678798e-02
9.575888367065402140e-02
6.108031954390003015e-02
1.593908828127996169e-02
9.126249878846136310e-02
1.118433840150334646e-01
7.685069660291796168e-02
7.092547218599873360e-02
6.192912566605587865e-02
6.082007981720338741e-02
4.269990351134273637e-02
3.197265679919229775e-02
4.418799405396786617e-02
4.169918126167328210e-02
3.451922012415839514e-02
4.196445842092610262e-02
3.190342308654971204e-02
-3.514991137048510683e-02
-4.162355682351705916e-03
-2.669924851645992525e-02
-2.692138935595542182e-03
1.060640710988493274e-02
-1.266713289024829284e-02
-2.376021378621676061e-02
-5.765261814818598007e-02
3.065718723153140757e-02
-1.898508343309593394e-02
-1.634737647693475932e-02
1.911626771492510452e-02
3.206360293493465408e-02
-6.402924650639466725e-03
-1.084510397929347794e-02
-5.730721430312266107e-03
-2.174753105720386021e-02
-1.161882374682804420e-02
6.875914205272827540e-02
-2.623226998868247867e-03
-4.563678192271096445e-02
-3.051537494552472238e-02
-8.287825529836159721e-03
1.944450149669636058e-02
-2.378481162233327464e-02
-3.415152408216435426e-02
5.211365357740384979e-03
-1.020366968075686609e-02
-4.855173899330400555e-02
-1.081482207070080456e-02
-8.475596212455191458e-02
-1.381310835423606512e-02
-2.572701042279703157e-02
6.496779827232023602e-03
-1.604640960022093998e-03
-2.585734217415808917e-02
-6.835281716312407996e-02
-1.743250977972230290e-02
-5.935748968993057040e-03
-4.098959498685966762e-02
-3.543111834817365413e-02
-2.812441013571964632e-02
-3.339819841246095822e-02
-1.832483854368670978e-02
-1.522041740142723865e-02
2.040432355948688936e-03
-5.276988373541442734e-02
-5.103545339316091500e-02
-8.312432234881900195e-03
7.735064696908967863e-03
8.332354507759022477e-03
1.740423283779456154e-02
-5.848567537585659670e-02
-1.097431809073406636e-02
-2.380372753797311766e-02
-4.842712166274734664e-02
1.894675597083590735e-02
3.598396217569025529e-02
6.379202505823497460e-02
6.416288113351362177e-04
4.781601394855920090e-02
4.628774110773170580e-03
2.621709951564509672e-02
4.782966212446687626e-02
9.290530084218504014e-02
6.208857846968985489e-02
6.324862238340919762e-02
6.435923055950196203e-02
1.263607594699145686e-01
6.429632805798599082e-02
1.236844672534302136e-01
1.427211497117282235e-01
9.200332346033116004e-02
1.029395530836102607e-01
1.051601076940103102e-01
1.451495900951883522e-01
6.854376165282645428e-02
1.110017889160904853e-01
1.309526124309142725e-01
1.718589980591621602e-01
7.713225665687017951e-02
9.972241797112063599e-02
1.096031816279917359e-01
1.539236941955596238e-01
7.092490247945570925e-02
1.076827811094496767e-01
7.412428673786090882e-02
9.397138918623415549e-02
6.143288001754540484e-02
9.242416541566760013e-02
6.586245369751769774e-02
4.322747818476087994e-02
7.652572342690791563e-02
3.792484653939703215e-02
9.668955755859864887e-02
7.223030209582978478e-02
3.143472084295289432e-02
9.048335767378312688e-02
6.151190365477248595e-02
9.326017883538781361e-02
1.223074850567644478e-01
1.162551773389407100e-01
1.541287682433913619e-01
2.008051671027508422e-01
2.578895906327794973e-01
3.819306584359979384e-01
4.055259098497874248e-01
5.175730068432576880e-01
6.194005629849340666e-01
6.495420804461741193e-01
7.462541609711069723e-01
8.568668871123129582e-01
9.285167207115463395e-01
9.745987344385108608e-01
1.075192414315113476e+00
1.104831856069350637e+00
1.035964108942519779e+00
1.107829284345155374e+00
1.057799667579116587e+00
9.836774224049867899e-01
9.611268619579454997e-01
8.839140605366732073e-01
8.454025856954233697e-01
7.442576482761927847e-01
6.738682469730769009e-01
5.143020533206859035e-01
4.082994205464633986e-01
3.743627867782633456e-01
3.131899265219746376e-01
2.063550171854851567e-01
1.827622096045037892e-01
1.596507001810487936e-01
1.319125903917146847e-01
4.142603057775515185e-02
8.556932248764380355e-02
5.808333174642639485e-02
8.069233710184144093e-02
2.369421344975419785e-02
4.404382621553015742e-03
5.458770127349528434e-03
-1.895118553421206581e-02
-3.404407686321228588e-02
4.674760352739421032e-03
1.941800046090581822e-02
3.811044190901925754e-02
3.303739157129119419e-02
6.867163627415066862e-02
2.445896466460908275e-02
6.249372989946395951e-02
4.606713800012431081e-02
6.828726706190618723e-02
5.316623782689935962e-02
1.223344347949169714e-01
9.945303578536238143e-02
2.525093291158869019e-02
1.127443926978168864e-01
7.866265981717919520e-02
1.542720241655534397e-01
1.384384373428781401e-01
1.260413828153010007e-01
1.217350840643029869e-01
1.291391790182171428e-01
1.460657946389492257e-01
1.008318812078956850e-01
1.500588752312471130e-01
1.308569990733899346e-01
1.547928302172085768e-01
1.732983005610083671e-01
1.857990958210654353e-01
1.727959858441315555e-01
1.948529509091949108e-01
1.349869836370947151e-01
1.913682090356269017e-01
1.836968977686416482e-01
2.076355194659018077e-01
1.960146581020820733e-01
2.209955749287457749e-01
1.929441413307702025e-01
1.450970624731038328e-01
1.947873454091005319e-01
1.943370150690754417e-01
2.294686593952393883e-01
2.045772808868099313e-01
1.890355827928514310e-01
1.713156228847184936e-01
2.103593085648666206e-01
1.371147867353613992e-01
1.829194124896755536e-01
1.540037792561966545e-01
1.471758500438172801e-01
2.209498532936309545e-01
1.545682639324684748e-01
1.345409249589542555e-01
1.116019956340237040e-01
1.678483797405766476e-01
1.717260370782994483e-01
1.146254401327836125e-01
1.272881005483734451e-01
1.037761763973359397e-01
1.514889885527428148e-01
1.409282383142483053e-01
1.460658633266903594e-01
7.327003596871956015e-02
8.496299259806394666e-02
7.205217409650316318e-02
6.004957541667498705e-02
6.496152708737504278e-02
-9.791092315093216647e-03
5.432834292641357254e-02
4.053775201521649801e-02
3.451559624946458349e-02
7.634185753340334835e-02
4.962119066463738237e-02
6.328691716558988711e-02
1.861576926390597769e-02
-1.867006167831541247e-02
5.123739572910673834e-02
8.662792463229172790e-03
-2.219480374871115463e-02
-1.925436224618874703e-03
-5.349605979314858706e-02
-1.886955954881616021e-02
-7.303029881750314201e-03
-3.298451807025655491e-02
-4.919863706146549581e-02
2.630236898211291141e-03
-2.075399620085074948e-02
-2.142410997511181095e-02
-4.465864127000032657e-02
-1.631299530314756635e-02
-9.640056162193007261e-02
-9.561851333213966520e-03
-5.722670635587667060e-02
-6.860279856266165988e-02
-1.785280179406794482e-02
-5.630638611173923586e-02
2.605378398267935852e-02
-3.923802787452463497e-02
-1.694627750158498453e-02
-5.033396481366167463e-02
-2.225213097543199403e-03
-2.675235240152742944e-02
-4.206998234459777275e-02
-4.699781898663953073e-02
-1.077944650819407518e-01
-1.550663585361866659e-02
-4.892306019592520400e-02
-1.217573150315934272e-02
-3.310204636287445573e-02
-4.420829505269508602e-02
-7.473561653562704743e-02
-7.560002600185966593e-03
-3.961656977723330975e-02
-7.213859877695018297e-02
-3.827887342098327400e-02
-7.860764724872343345e-02
-6.866465835733165379e-02
-7.508910900510552822e-02
-3.458934337452618246e-02
-4.315795362514361633e-02
-8.013479880827922841e-02
-6.025625680648818983e-02
-7.484403551423073064e-02
-5.308293551310447334e-02
2.096350449815900102e-02
-3.886762888927704218e-02
-8.987150226148730991e-03
-3.447011805231358500e-02
-1.461204815045201444e-02
-3.373066041690624822e-02
-1.945897955351716391e-02
-1.039508379677808736e-02
-1.195261036680514422e-02
-2.893697562911754298e-02
-8.598192445083689683e-03
-1.506895926828809296e-02
-2.852946849658136164e-02
-8.439258654325848541e-03
-1.451543520452719394e-02
-2.488141289199533382e-02
-2.284279880682968042e-02
-2.225978872912245943e-03
-2.796886728342539569e-02
-4.079081013666267796e-03
5.575949021244026860e-02
-2.709170650757504462e-02
1.323228553138677127e-02
3.219432100231718608e-02
5.841262491142436980e-02
3.051119919870026731e-02
4.964658817034052485e-02
6.756390086728550348e-02
3.969391114635743151e-02
7.587820299367360743e-02
9.516673921839069461e-02
4.950640637012916623e-02
6.285077255503956906e-02
6.670265960730673016e-02
4.185759317194629597e-02
9.271942163331717279e-02
4.219984435626084052e-02
1.279419097084595058e-01
-5.576123096881074881e-04
3.376500877195496436e-02
1.038229861975590446e-01
1.040817484072048271e-01
1.029766860500799242e-01
5.258087906549600149e-02
1.239435724653787652e-01
1.083187524329973228e-01
1.331133122819219694e-01
7.862130516770646227e-02
1.320036992435478229e-01
-5.466649438039740405e-03
4.065008417091670739e-02
5.805282068929003281e-02
2.027116989608007680e-02
9.884070200397929162e-02
8.302893167455932533e-02
1.481531366352001888e-01
7.714173579005491332e-02
4.992823518491291968e-02
6.669125470664909183e-02
7.484144310702779690e-02
1.416890710363282735e-01
1.409035286517068553e-01
2.153571427624717816e-01
2.044024529121921119e-01
2.930649388385251353e-01
2.960495060750862883e-01
3.898649518726204910e-01
4.695854749104869108e-01
5.768545570966331359e-01
6.746802612248337105e-01
6.818254561360381771e-01
8.149958062814660620e-01
9.384969873611149760e-01
9.425447528352357551e-01
1.064919161116650193e+00
1.118978635112844122e+00
1.078143175611702143e+00
1.123912159823706514e+00
1.114916946558066169e+00
9.948114228358919675e-01
9.752013669931596240e-01
8.926171195971022154e-01
8.966861482544741246e-01
7.636196852833400106e-01
7.031210807531855789e-01
5.602007490065682438e-01
4.992133812609690913e-01
4.189864511358101229e-01
3.640885313065194140e-01
2.870734369496904526e-01
2.319452959057484998e-01
1.923533117927508362e-01
7.646028835531437640e-02
9.341124717690590940e-02
1.010385330824529748e-01
7.825254230376738063e-02
1.370997645039821050e-02
7.293201259803193393e-02
2.778805099145442714e-02
3.872546518724874487e-02
3.652580143258941231e-02
1.034927425362799913e-02
7.883298699325719250e-02
1.200104344761183939e-02
5.891950681174316223e-02
6.833575039870259937e-02
4.425588689652996260e-02
4.784702010859661486e-02
7.183085660588114929e-02
8.356223235931281579e-02
5.692307434186517218e-02
5.632358078427680825e-02
7.478506097418581577e-02
7.352279625342761360e-02
7.672004556246156404e-02
1.162412598519668994e-01
1.177485904305461684e-01
1.180075879673735118e-01
7.591872887665607195e-02
1.504104378009764875e-01
1.106738758937674538e-01
1.177524248995959477e-01
1.514365457801003234e-01
1.681304080686311653e-01
1.316879341702585915e-01
1.924028882743450963e-01
1.548747871729345138e-01
1.584024484950550260e-01
1.839904248307208112e-01
1.863225951694356120e-01
1.690703949814042761e-01
1.940583665156014048e-01
2.521121193504871072e-01
2.473807975636533873e-01
2.730959533047070953e-01
2.088806442826125764e-01
2.068611750793680482e-01
2.524441619740282472e-01
2.704331215716694325e-01
1.861073135066138029e-01
2.246594043978641375e-01
2.192041220859776984e-01
1.982841930672326336e-01
1.915092157311777399e-01
2.311228818399036211e-01
2.567636555063686488e-01
2.123351687551252032e-01
1.684016867071935764e-01
2.440845727488396566e-01
2.196271446925089355e-01
1.985798585782446724e-01
2.327786306961528440e-01
1.798418392307740143e-01
1.551320959606704575e-01
1.868052366758779226e-01
1.720403408651324240e-01
1.713997704042081460e-01
1.121836801378554016e-01
1.172986399827813664e-01
1.212765880859973666e-01
1.172363724143178632e-01
1.315302662558593405e-01
1.790962161742457870e-01
1.199311981412118505e-01
1.172309438610423665e-01
1.802488837290130985e-01
4.132541961404508080e-02
1.708769150756542787e-01
7.017806119181503599e-02
7.034711869540727358e-02
1.221526694258555923e-01
8.327545278609488344e-02
5.682875290000888313e-03
9.077316045816562207e-02
-9.292389869523052376e-03
6.332951490391931781e-02
7.080715160568065714e-02
2.493726877085699137e-02
7.301210487776020608e-02
8.388637208301467224e-03
6.445479362080110131e-02
2.450901240482070836e-02
4.146456320996464578e-02
5.476827870718017910e-02
1.586985364393385042e-02
-7.947948576698889850e-03
1.022151273975130045e-02
5.617603219101509338e-02
2.446207147321567688e-02
2.817849771625392449e-02
-1.425373151053788839e-02
7.615984026497091969e-03
-2.553375852413605068e-03
-1.010420223857051714e-02
-1.196079376595937487e-02
-1.325484734457372908e-02
1.183721152127841653e-02
1.189726976266093639e-02
-5.826851549451943224e-03
-5.372231154071835380e-02
-1.536696917727286421e-02
8.084782306967404353e-02
3.865953839445484402e-02
-2.443918689458221202e-03
1.579249293720965536e-02
-5.787107350765261643e-02
4.295806215191753930e-02
1.524365944959666340e-02
-3.515692901353163757e-02
-9.949469171728637235e-03
-5.279758146471379143e-02
4.522802996613665971e-02
2.742501359471014033e-02
-2.187130026584172340e-02
-5.030335922578370311e-02
-3.319955862304598687e-03
2.191126779560186727e-02
-1.085815170766939175e-04
-1.944476668380227397e-02
-7.023821708652620843e-02
-9.767966608508973567e-03
-2.053512246663798807e-02
-2.277858119789454711e-02
-5.450551705417243376e-02
7.324198777395211218e-03
4.785904131413622892e-02
-1.814098131929896794e-03
9.450203524256227741e-03
-3.755299750828944294e-02
-1.673979154429679032e-03
-1.876957640726361135e-03
4.449582027527640427e-03
1.336522509653613813e-02
-5.773000583174796134e-03
4.999919707989472495e-02
1.480570864884627434e-02
3.604469478590034692e-02
1.507504464255965404e-02
4.380623996380957064e-02
-3.725800727549657271e-03
-1.661157769341569529e-03
-5.483797486133277360e-02
3.099536924545757272e-02
5.759421062697544363e-02
3.581521153239020788e-02
5.882133136573094306e-02
7.507581989978988346e-02
6.753921484339536763e-02
8.221090154542469441e-02
8.022770500391422643e-02
8.424019961572541682e-02
7.086684878918425579e-02
8.192032610064951814e-02
1.675914576315100102e-01
1.834644654656801543e-01
1.421863964589085705e-01
8.579341717864262529e-02
1.249307933645105867e-01
1.588170307748197618e-01
1.352311801584400730e-01
1.848371451409814015e-01
1.739573577113336100e-01
2.082344382949163908e-01
1.688026649250134736e-01
1.441150317598298425e-01
2.290669053021211210e-01
1.630671800784285475e-01
1.476285863628085115e-01
1.802016459808835624e-01
1.513395494402350050e-01
1.219377210903906522e-01
1.866399887364363352e-01
9.356780026051370047e-02
1.135881721455087173e-01
1.086091358586530053e-01
1.355233468085202952e-01
1.263663093200048104e-01
9.859018742638740729e-02
1.210610914490449774e-01
1.045536994219810750e-01
9.029901511752153054e-02
1.115262605219190517e-01
1.044961248548590127e-01
6.193361758445728449e-02
1.275558442973107887e-01
1.991110781746014691e-01
1.988186716347465077e-01
2.375681772076412013e-01
2.532001013023283953e-01
3.346003703089461823e-01
4.064118109279362678e-01
4.989217255417284225e-01
5.573877773427736715e-01
6.529056449455089561e-01
7.332176774505539951e-01
8.451387646548916832e-01
9.274740666857540505e-01
9.726654265605634286e-01
1.068632040559820862e+00
1.122904355835324441e+00
1.169958774937389645e+00
1.116637779966260791e+00
1.142195368874924011e+00
1.090996521943861541e+00
1.025897472849861769e+00
1.002704704621324439e+00
9.577180352148845222e-01
8.531184136620738601e-01
7.432572128630642316e-01
6.741527705158494310e-01
5.992196040938860824e-01
5.132454722655582779e-01
4.075995237827310658e-01
3.496400196553702266e-01
2.699338634388246949e-01
2.256991163212059004e-01
1.787535324944567461e-01
1.703494509466024764e-01
1.467538780555503464e-01
1.025150934958521942e-01
1.091919252572611104e-01
1.293059849451519694e-01
1.302118742410937891e-01
8.089797400054878074e-02
9.814902753918995637e-02
4.968981025568972032e-02
8.704928410612280953e-02
9.186552306306339233e-02
1.206483475398131139e-01
4.219709417167390175e-02
1.404941779202103780e-01
1.278286095539409306e-01
1.179471158029117978e-01
9.150712843925964957e-02
1.349188914890884494e-01
1.404182346846160057e-01
1.144427967239045885e-01
1.379958833704219845e-01
1.470524777493848745e-01
1.802664120458728481e-01
1.698430506556103947e-01
2.195929943493880321e-01
2.251209549339674987e-01
1.892918759594513778e-01
1.798953320716582260e-01
1.525031473555324701e-01
2.106122464123404703e-01
1.739572076119405564e-01
2.505136098612094631e-01
2.360393935220435613e-01
2.587019341378594683e-01
2.205215264021652688e-01
2.779371016299427843e-01
2.286413860080820371e-01
1.408266486251700256e-01
2.551696575794815680e-01
2.645521533639007550e-01
2.538138027601873903e-01
3.112668819867931980e-01
1.902231200594741711e-01
2.651894768828175208e-01
2.981778123115333967e-01
2.276020015297460786e-01
2.277625406856938484e-01
2.266219092379355982e-01
2.953534723644325455e-01
2.158831571167627306e-01
2.227811606767505503e-01
2.531124860733762194e-01
2.357918187350672157e-01
2.945920574191059349e-01
2.365304073275932562e-01
2.659538061502531026e-01
2.927671218733443048e-01
2.234714719088671253e-01
2.546753737274190521e-01
2.475715918597676812e-01
2.409479622037314639e-01
2.283117158366959609e-01
2.307119119851610556e-01
2.367900756563673936e-01
1.971962782380445034e-01
1.694966329372997182e-01
2.105793351605443897e-01
2.517180937118943529e-01
1.573757537690854691e-01
1.903586243172640524e-01
2.213576755985402489e-01
1.793152327316827332e-01
1.429459800830852889e-01
1.501803088904305472e-01
1.418605689125765901e-01
1.785014745323000307e-01
1.708931990152094127e-01
1.282169041262660458e-01
1.851647650613235108e-01
9.782395053464970625e-02
1.238882684840767467e-01
8.706334126853304545e-02
4.090770558570674259e-02
9.744785632539433584e-02
8.082604431614281992e-02
7.885369909295697477e-02
9.998415472530677861e-02
1.038065923900165777e-01
1.049106933427750299e-01
5.039429647597055972e-02
1.072702951759024331e-01
7.822309544634409306e-02
1.138846459269936690e-01
5.952482422379030969e-02
1.076117624766743108e-01
4.850203516356577788e-02
-2.930009944802892952e-03
9.490957623536133703e-02
6.915825229064762047e-02
1.515555723776901981e-02
-3.000272289262022329e-03
4.233540824928408441e-02
2.979500589505537644e-02
2.007479185674294203e-02
5.250699785424250282e-02
6.673709588757785471e-02
7.491234995928519602e-02
3.862381370362646948e-02
6.029960549188853602e-02
4.656099277878225640e-02
2.845385934946337986e-02
9.572095443129241543e-02
8.912983598993762246e-02
8.766582809468401183e-02
5.288924248819061591e-02
5.879035308347681926e-02
3.905202725685728155e-02
5.013888196269121467e-02
5.621418770321912756e-02
4.402019065776073548e-02
-5.783140514706262836e-03
3.751253230488899720e-02
4.541966423079270287e-02
8.163447332675179136e-02
-8.183168802105796058e-03
7.209804757778411066e-02
2.246953256443089131e-02
8.646622724749381678e-03
-4.305715176409011941e-02
6.755818311177630431e-02
-7.758947487119326192e-03
5.453338675678399972e-02
3.177559596504878070e-02
7.132999765406480841e-02
1.072067862796391435e-01
-1.758395837254671246e-03
6.946539706229651334e-02
7.062185652064471852e-02
6.733925444458871423e-02
1.022214477741445748e-01
9.080222874420880441e-02
5.214996675198009524e-02
1.196842131955227692e-02
1.164958014411980602e-01
4.284980952614184102e-02
9.706967737547193831e-02
7.963671303789637834e-02
1.104529456241498953e-01
5.803069695655026228e-02
1.124985945331196391e-01
6.641164465828872099e-02
1.030534370555637180e-01
1.264401254675656949e-01
1.086135475171743220e-01
1.401576828766085137e-01
1.491260970793843454e-01
1.288869861895630409e-01
1.488209608342399293e-01
1.355271493139436068e-01
1.804428256299261402e-01
1.621739918585572149e-01
1.729246068387867430e-01
1.368354030254527176e-01
1.914596450878023326e-01
1.612423787363620464e-01
1.717241820650303730e-01
1.538945600525442881e-01
1.732496777769753082e-01
2.209056403358490295e-01
2.355243705826445266e-01
1.555638835538758480e-01
1.903579202543793369e-01
2.033658146913767673e-01
1.942398440471035659e-01
2.263041176919013131e-01
2.036031651566736489e-01
1.612737619204815676e-01
1.758192803268808224e-01
1.492184082681536350e-01
1.923731628716965902e-01
1.924426775425855385e-01
1.195635606773239878e-01
1.835292248492709499e-01
1.568427510437774008e-01
1.225076046949036129e-01
1.728246631890514307e-01
1.784158884507426324e-01
1.460557738647868531e-01
1.597347594846773300e-01
1.524400654477447159e-01
1.984990710473977793e-01
1.553317386719767768e-01
2.415655906533513142e-01
2.304950464024826950e-01
3.056525568037889440e-01
3.256226130828939747e-01
3.565807144729321587e-01
4.538334695628672977e-01
4.721461815994707489e-01
5.217434328696515244e-01
6.878193417589536507e-01
7.617267618978050825e-01
8.504785814694771906e-01
9.432433090124201502e-01
1.002879999135434685e+00
1.061075131443052211e+00
1.126535622348444621e+00
1.153989791583269753e+00
1.193529715038044170e+00
1.183882294776847033e+00
1.127498992069605910e+00
1.104219173737677862e+00
1.061615437190654543e+00
1.009243791827528547e+00
9.162537605282418118e-01
8.579939071398160477e-01
7.530824490388542403e-01
6.372974928513341908e-01
5.566894445539656289e-01
5.367003709700687297e-01
4.034243056281558437e-01
3.140601629560291208e-01
3.181595453039525179e-01
2.405854545148824741e-01
1.965079773084144055e-01
1.863513468914332061e-01
1.649382950437975892e-01
1.222771305789899510e-01
1.178788572762299869e-01
1.097829141937944203e-01
7.873601542563560263e-02
1.605685406304639407e-01
1.054386683288645599e-01
1.172103031313695282e-01
1.537833782239205194e-01
1.132635630118526554e-01
6.763414357684019440e-02
1.332544584477680927e-01
1.351717717911552485e-01
1.638901528454866641e-01
1.668826023350015175e-01
2.035986990147034548e-01
1.408796508682608473e-01
1.404543550707767485e-01
1.723810096431418470e-01
1.194982944686876769e-01
1.538789005647221431e-01
2.015031383885878546e-01
1.460625666148717139e-01
1.961547252142340214e-01
1.892406717179869746e-01
2.588530586064672900e-01
2.368766086039175156e-01
2.130633161933224440e-01
2.078743637527981636e-01
2.421933599256817504e-01
2.575040872916924406e-01
2.804673727222904978e-01
2.388612145526694819e-01
2.766831546259105323e-01
2.770318288567299447e-01
3.230535625798500177e-01
2.875380772568793541e-01
3.031886103794521059e-01
2.170707220491839839e-01
2.900939933810637861e-01
2.648050034620772486e-01
2.883810325509678640e-01
2.863403856839854544e-01
2.882796889292171816e-01
3.189559236301640066e-01
3.625121265631041090e-01
3.024304428535521394e-01
2.787506733322837604e-01
3.222612923104576366e-01
3.393462531131475335e-01
2.992500701185484280e-01
3.113026709193571495e-01
3.067690896608290529e-01
2.666509198364143129e-01
3.195709724203156799e-01
2.502449823061202450e-01
2.908775637871427455e-01
2.291383110047464089e-01
2.712110460248092769e-01
1.965817180756168903e-01
2.682989709182090898e-01
2.639578352030003128e-01
2.495469895695128226e-01
2.365210092298296041e-01
2.070254692168585486e-01
2.577992092607121477e-01
2.063452036161402547e-01
2.173910647175581745e-01
2.348064043543578450e-01
1.569057176952575738e-01
2.068976503824006274e-01
2.276524528263553226e-01
1.595036956076184564e-01
1.822875687690874158e-01
1.459622906864999070e-01
1.016809868690732171e-01
1.565678514613398353e-01
1.195834057574554909e-01
1.961907041338728785e-01
1.005822544267485352e-01
1.453008631762252312e-01
1.022592065122849697e-01
1.157963800830310863e-01
5.500025573332035372e-02
1.159557163528679713e-01
1.023403403967235309e-01
8.710828770942058430e-02
1.440235059670368356e-01
8.911174575217892246e-02
1.258691687259194669e-01
7.726148226534583496e-02
4.491976804913841437e-02
3.706658686183818968e-02
9.092456254343571354e-02
7.482341250649673925e-02
-4.944028338509862119e-04
5.932283934380645080e-02
6.906794846562465395e-02
5.761144779322512066e-02
6.251142972129133946e-02
6.356432818923360428e-02
9.092781391045479111e-02
6.661112757258534633e-02
8.173937429855737680e-02
7.411433866595522335e-02
6.443407906790869777e-02
9.012146921504005093e-02
7.176091105529749936e-02
7.012146760272905399e-02
3.368061546043922549e-02
5.123649489278750413e-02
5.797883974570534199e-02
9.106075587265685667e-02
-2.123650437140044145e-03
1.006992776631569081e-01
7.606485358324324708e-02
2.407981900893980259e-02
3.866338605341078372e-02
6.925493374548777337e-02
1.267030522091846384e-02
3.266835209957668490e-02
2.190185102140763604e-02
4.491873145071931944e-02
-2.208586275606167632e-02
4.747611905648774222e-02
5.170792452620937701e-02
4.171345423986203699e-02
1.835634310307316525e-02
2.944313490008210882e-02
4.559514600396553929e-02
2.463064374423816483e-02
3.385081398633522226e-02
3.617432756077348932e-02
6.594787174542360297e-02
5.517226504832482142e-02
8.918960006887181879e-03
2.256353528767421346e-03
7.222603205014813121e-02
5.407463763023168113e-02
2.677311711127620952e-02
7.989008702122954442e-02
3.483773185765672020e-02
5.616265113466355902e-02
8.580522673736272476e-02
1.148312593334441800e-01
4.098822362883635523e-02
6.811570466520512623e-02
8.499517094186381794e-02
1.010882034040342381e-01
6.478885526891431379e-02
9.280669802269603252e-02
1.016424414446819580e-01
1.641282212336019897e-01
1.274604530854194784e-01
1.436868080381923929e-01
1.003775397150435539e-01
1.460408353902625800e-01
1.467767287805752108e-01
2.372581524725965729e-01
1.226245801782189782e-01
1.670184056599754441e-01
1.368026015989249333e-01
1.782388609066962171e-01
2.367357779719402033e-01
2.104958141419305817e-01
1.488996818267090960e-01
2.148045375391053613e-01
1.768569796365985214e-01
1.932840862385973579e-01
1.719402716085017824e-01
1.696468436782620215e-01
1.581235309297737146e-01
1.992565279262923372e-01
1.877360140738595362e-01
2.030742975773015824e-01
2.101931527482177875e-01
1.509708821584810901e-01
1.515838864109693707e-01
1.083024519962792476e-01
2.091633370948679238e-01
1.489444265734363448e-01
1.613269807135765121e-01
8.434210971713040905e-02
1.019947147700054901e-01
9.355089970094961072e-02
1.154411751750795967e-01
1.756192553057889238e-01
1.610207362146220955e-01
8.821388462576221223e-02
1.458854372287475276e-01
1.962541007716136487e-01
1.693202699166832526e-01
2.850081460354018104e-01
2.807133180001549766e-01
3.403626706258505719e-01
4.147045349767434774e-01
4.978270646146311651e-01
5.395450536064175795e-01
6.101958096517395846e-01
6.855160130505554283e-01
7.791946791972825803e-01
8.935660076872095070e-01
9.253244668737330425e-01
1.034214531759388489e+00
1.095539192650510030e+00
1.189824214370166278e+00
1.173191186098218930e+00
1.161497548457934847e+00
1.130924122555837963e+00
1.121895542887238362e+00
1.074226220512525254e+00
1.014585767850804121e+00
8.631861746567297544e-01
8.315816255106338595e-01
7.102983449809892047e-01
7.210493468828158559e-01
5.752818213724583130e-01
4.596429993788062052e-01
3.755620506583034479e-01
3.452126059309812978e-01
2.951782346788838773e-01
2.265195881515620346e-01
1.916797306655506072e-01
1.487067180116374843e-01
1.949290248311078277e-01
1.258641058885802688e-01
5.883464240396586720e-02
5.063214565827948987e-02
8.028586600875609047e-02
9.166581136541641917e-02
1.284450966818651563e-01
9.567928332725021690e-02
6.258932881916490221e-02
9.009463793607334903e-02
1.438781395717661782e-01
1.022401733070589513e-01
6.399220324183163555e-02
1.394932463960086300e-01
8.473657938126799571e-02
1.525821096283209166e-01
1.566081419037247957e-01
1.621675566853979511e-01
9.123516591558186728e-02
1.367305232089750244e-01
1.769043810799935112e-01
1.927563376043022192e-01
2.290515014054977372e-01
1.735246229569286092e-01
2.154629069310973755e-01
1.947085142670109403e-01
1.710847137577399257e-01
1.643748991516291169e-01
1.743745361600966826e-01
1.959673115909583985e-01
1.811049195670960399e-01
2.284539870862168920e-01
2.208189606024920648e-01
2.336418035623957223e-01
2.614472271569810990e-01
2.605218551635145041e-01
2.402146679696816889e-01
2.052400321835970987e-01
2.338101657097694241e-01
2.413473545743854698e-01
2.507227816505646079e-01
2.782904028604585300e-01
2.442451435133519422e-01
2.441958870309345608e-01
2.157914739675525495e-01
2.463170976428218917e-01
2.459701897925586911e-01
3.023984610244300208e-01
2.364615876882239232e-01
3.265830661359645504e-01
2.360287022045232108e-01
2.734331953498261303e-01
2.428370061223073528e-01
2.116754306438134725e-01
1.968477512949348418e-01
2.281743671883108282e-01
2.341247540699093466e-01
1.986166831280060108e-01
2.083884274907714662e-01
1.803982797840220365e-01
2.277342849339201725e-01
2.320945405434981790e-01
1.859090222953392046e-01
1.855739097508490587e-01
2.207248019520650917e-01
1.655036908975764942e-01
1.715329118661962915e-01
1.331575558583950603e-01
2.255616126551863443e-01
1.386228788219225072e-01
9.231562261840001171e-02
1.412259648130138046e-01
1.321634498600846030e-01
1.532944294511985883e-01
1.884174459980982874e-01
9.948592091786442881e-02
7.150230771219509562e-02
6.667147116018617981e-02
1.347556396781272869e-01
1.112568084621766151e-01
9.742061714874748757e-02
4.694771510714185192e-02
5.090866486802408247e-02
9.197999522882925605e-02
9.493047433820209213e-02
5.696491257470354119e-02
5.402838891143111472e-02
3.389244481498976391e-02
1.790527936000252396e-02
6.899464826985646226e-02
3.368777227583762829e-02
1.906423171738790695e-02
2.170032589092612055e-02
-3.824336540840190569e-03
1.832659962878316687e-02
5.210807740521332387e-02
4.156536694146857613e-02
3.927911271626803591e-02
-4.857357375233876604e-03
-4.627309876724665372e-02
-9.494921282509706517e-03
-1.212659027276945418e-02
-6.041328935164520797e-03
5.231113111220064144e-02
2.470223047453915313e-02
1.744564080167501641e-02
3.629044506345344839e-02
2.205614031858067758e-02
-2.390815343730011595e-03
4.177448272173496513e-02
4.137938739151728051e-02
-4.203178651140337084e-03
-4.765566616323126808e-03
-3.951235524832933180e-03
3.381187651514034470e-02
-5.481014394326460572e-03
2.477970011473777656e-02
7.543071754095791170e-03
4.250451339238108667e-02
-1.699173351705598675e-02
4.111988526342141154e-02
-1.925113118957201205e-02
1.464603948588119771e-02
-1.514642451637854791e-02
-1.082858245797258499e-02
4.387216476849818692e-02
4.350723176888754429e-02
1.383697684072029196e-03
-5.027549207810739357e-02
2.190556275684085123e-03
4.142408579695250337e-02
2.164915584750910088e-02
1.587071326404680335e-02
-7.215680997846023181e-03
3.302714547822300367e-02
-3.817742890133080103e-02
3.187652269712604874e-02
-7.160798547780197407e-04
1.641765316954414342e-02
-2.980136488266435166e-02
1.843747493371835147e-02
8.918626203508859748e-03
2.505143485752988827e-02
2.577378052975289047e-02
-1.450865967055453044e-02
1.782382429994684714e-02
-1.455618479379702963e-02
6.367445906554390633e-02
1.009986564944998222e-01
4.196086010756595180e-02
6.899895741456245346e-02
5.914761484561045085e-02
6.115650227066453393e-02
8.148506054207302340e-02
4.934099219600447672e-02
4.844902419351377471e-02
8.924577661764192260e-02
1.261853748338068182e-01
1.201640003003090068e-01
1.492851503314881201e-01
6.596336808333244650e-02
1.035184647318379558e-01
1.206091326953739745e-01
8.933716765346595701e-02
1.910298588196054637e-01
8.435604860672089866e-02
1.600149014959581506e-01
6.779507431158098008e-02
1.446478379789952196e-01
1.522181224811895439e-01
1.557030403048677847e-01
1.133103241758473129e-01
1.450581312983105498e-01
9.358138582762678959e-02
1.361930093796086816e-01
1.600820345607013306e-01
1.085835720135269328e-01
1.103704630251483854e-01
1.031171169326614151e-01
1.266998609821140542e-01
5.169532260983611405e-02
1.419052233988650213e-01
1.342296207213539150e-01
7.618728741073596544e-02
9.451712233155719345e-02
8.706123865242272608e-02
9.647858114593137191e-02
7.672771476768369681e-02
8.866696436424915950e-02
8.902179741047304418e-02
8.357133570508444576e-02
1.603182235926978449e-01
1.659942102212805248e-01
1.645939808900220291e-01
2.667021215223093766e-01
2.694316305282870583e-01
3.858861437721884391e-01
4.528287561370014647e-01
5.374612792409432238e-01
6.552163684347424022e-01
7.048779216413428861e-01
7.729642429036589490e-01
9.355493709063243957e-01
9.891832020393866998e-01
9.984822148360302796e-01
1.078767983541661923e+00
1.122740391108368208e+00
1.144099380777981123e+00
1.081171409416259221e+00
1.134147346656692035e+00
1.029329051547700047e+00
1.014601038220651397e+00
8.967404816782197363e-01
8.388889831810768527e-01
7.713632915063998174e-01
6.620115835860467257e-01
5.298991480186674430e-01
4.264891769277945888e-01
3.553281992227751429e-01
3.519058661668659771e-01
2.299494457753634979e-01
1.620809285563285518e-01
1.262367475313005971e-01
1.012117457423664380e-01
9.777504566301230271e-02
6.367417151760772220e-02
5.450405196956736864e-02
3.611647688009611556e-02
3.153200320445596894e-02
7.522384912594010098e-02
2.627787240681635911e-02
6.499610383204335040e-02
7.942481886957737658e-03
1.090304952777302119e-02
5.739660998890168397e-02
1.596862685020374040e-02
3.686996593084473223e-02
8.331251178631188248e-02
2.773510673948955535e-02
1.057764233277872085e-01
1.235692671636904327e-01
1.092848154358989493e-01
8.832537110001366376e-02
9.541808226779144309e-02
6.105335357954634612e-02
5.634704187160637784e-02
1.552066412232064596e-01
1.246902935973423499e-01
9.071814573615902266e-02
1.515545779593019671e-01
1.575152866279498631e-01
1.722046501402940133e-01
1.122903308241526149e-01
1.884203717213036311e-01
2.023972832523258658e-01
1.611712561434647251e-01
1.678211059020251472e-01
1.933521279154379324e-01
1.773633477411686865e-01
1.918127829308328702e-01
1.882824180241029488e-01
1.736581268006145429e-01
1.957442926741932709e-01
2.099619295537353547e-01
2.327413059597596978e-01
2.045011156374014205e-01
1.996224582666430436e-01
2.108246557412622735e-01
2.592908610030505434e-01
2.910603023600104033e-01
2.425506031144767649e-01
2.871571770269483181e-01
1.929538524535974187e-01
1.981102412124840506e-01
2.446406727857649843e-01
2.133250039805005271e-01
2.114515200793343763e-01
2.264935248191287664e-01
2.271679037632954035e-01
1.587291271664252323e-01
2.120191691069243656e-01
1.962785579324023422e-01
2.224860485759045381e-01
1.780515191716304235e-01
1.504186334272910042e-01
1.407623020319100915e-01
1.503379711195070578e-01
1.455870647025984121e-01
1.272080941820976641e-01
1.952801313651794934e-01
9.114563329750965948e-02
1.027351712518454196e-01
8.692625139951312696e-02
9.123730063661705803e-02
9.435543000157892157e-02
5.431555260360951959e-02
9.644925791841410523e-02
1.206951714992331448e-01
5.008282529044622705e-02
6.158113985843807758e-02
6.587577744829944959e-02
5.973610444371808131e-02
4.224918980789962170e-02
1.776158547131172216e-02
9.813376785464776597e-02
2.332114268859337286e-02
-1.886891364857307823e-02
2.424848659770794529e-02
4.543763461924595765e-02
3.244122642007657431e-03
3.273349774057683625e-02
-9.710433892618636209e-04
5.363459024401174419e-02
4.077725647890474703e-02
-8.820331976583543898e-03
-4.020510309936298210e-02
2.710779702909388300e-02
1.969856543268880961e-02
-1.987439704841445151e-02
-1.966634811503983893e-03
-8.382173452350349940e-02
-4.420872533690246853e-02
-6.721922869841238934e-03
-7.251159946017195213e-03
-2.521710326063709984e-02
4.282402846137262076e-03
-1.142687063160334471e-02
-1.188755213500426733e-01
-2.235691495806690909e-02
-8.843295520838534429e-02
6.208823949554256871e-04
-4.233772182572539261e-02
8.192196222126545135e-03
8.276842314532288636e-03
-5.896826910814285255e-02
-6.687500582977791430e-02
-4.273362835665542314e-02
-4.627748501627839545e-02
-3.267429611422861813e-02
-8.021287949927388694e-02
-9.081235694685502180e-02
-2.664518379919880026e-02
-6.967354116187685076e-02
-2.560246638099904909e-02
1.422128573665359247e-02
-2.176155322307550197e-02
-3.229423271729756073e-02
-6.424230692451514402e-02
-8.592851573465370985e-03
-6.433809965866214842e-02
-6.472855625049583894e-02
-7.460552607062653774e-02
-2.722692958636928340e-02
-1.646086409594625308e-02
-3.629048870782981828e-02
-1.026017004448798176e-02
-3.131077859740116071e-02
-5.632996107966772165e-02
-4.795161080502362283e-02
-7.516565970584719591e-03
-8.387166301008480707e-02
-4.247129078210657577e-02
-5.910175768123533679e-03
4.538188415584308577e-03
-2.958161623835331086e-02
-9.447884291098496146e-03
-3.090998440178199802e-02
1.664329263923092217e-02
-4.636039104131563227e-02
-2.705766230467494121e-02
2.296764095157185354e-02
2.241131101796729752e-02
-4.411340531274600407e-03
7.860104005824117279e-02
7.888178489398769977e-02
7.086870582106208349e-02
-1.493467612701492031e-02
6.078419687688958045e-02
5.258438360858030264e-02
5.042106341948134063e-03
-4.246230263388051096e-04
9.217410274959170202e-02
8.221854760630685488e-02
4.773535473912608046e-02
5.538134034944849210e-02
5.692131765259016152e-02
8.061756490145860488e-02
3.775461938108634619e-02
1.088667684980839101e-01
9.965630035199130043e-02
1.162407383982292097e-01
1.423907428626711158e-01
1.183211117164061632e-01
1.316538974838363796e-01
5.656136781259483298e-02
8.108830988492321534e-02
1.331644557702791609e-01
5.274707068742624794e-02
6.776339631063588165e-02
7.572525840432420274e-02
1.112021140455513313e-01
6.654811714363645381e-02
7.584765501335978544e-02
3.949317456649140134e-02
9.411653560389510176e-02
2.137282329756901716e-02
9.657288275553299606e-02
9.678819790111536925e-04
8.794194216839981704e-02
1.544514430359718998e-02
6.610867083889514217e-02
2.459365104093175214e-02
5.938075659790929134e-02
4.066464711134334942e-02
1.005761171342585414e-01
9.993933277161035078e-02
1.548270724748776750e-01
1.934086735232943277e-01
2.110648807971020890e-01
2.542306951469859300e-01
3.297882435042167049e-01
4.444694827888353017e-01
4.349377154460074557e-01
5.984624705581781390e-01
6.600989841824204118e-01
7.962811077220950384e-01
8.167084292774274834e-01
9.071488985498649127e-01
1.012669204881205598e+00
9.761001200238220710e-01
1.079376823649430328e+00
1.101226174460226970e+00
1.086547650362538198e+00
1.046842896589041949e+00
1.026987959790582217e+00
9.727173892032232594e-01
9.359121951725730693e-01
7.918909519977059830e-01
7.843917962645527986e-01
6.265292436432230438e-01
5.447666328747580167e-01
4.902052330355980425e-01
3.297707680480057024e-01
2.894077707396093269e-01
2.637722679355404276e-01
1.737894240353592967e-01
1.236544770594510401e-01
1.183351202139682479e-01
7.157781102814823881e-02
6.171602404211359860e-02
5.842352066055517268e-02
1.996135780891500344e-02
-4.310860336233909851e-02
4.952801037643415893e-03
-2.335466716674997750e-02
-1.469542569772938623e-02
1.219405167409942647e-02
3.166763317923534243e-02
1.156832299392222818e-02
-4.748922125188771715e-03
2.734411557098059137e-02
4.742440469078662568e-02
6.486986909536668344e-02
1.074567557080411684e-01
1.122067643154120858e-01
1.050164646298368254e-01
7.686245596250454448e-02
8.637211120749643811e-02
6.074231272666025250e-02
8.437586006203946776e-02
8.142684861074414582e-02
1.137803789224026974e-01
1.108377392575985165e-01
9.167957623375119769e-02
9.174291421339407504e-02
1.063231979811900541e-01
1.308272025883072398e-01
1.822128999937831784e-01
1.354659129937930695e-01
1.422869086710797093e-01
1.359448548892057407e-01
1.487216904866761058e-01
1.307786127360956174e-01
1.647448889893172452e-01
2.041033004987803934e-01
1.668711158886264923e-01
1.810733932891614439e-01
1.491883837968883686e-01
1.981662772844982601e-01
2.030713669499133456e-01
1.687104340398408731e-01
2.713611508203089273e-01
1.531717622842937443e-01
1.602987771753652813e-01
2.309080223550609434e-01
2.321846053793118481e-01
1.542746058483007721e-01
2.442689948884018414e-01
2.129562895348146578e-01
1.921967991507751716e-01
2.170267398476024012e-01
1.711060985868383955e-01
2.189949646424121377e-01
2.270964350465418669e-01
1.834627699211559271e-01
1.542182368655486691e-01
2.077084859835827690e-01
1.676492157359337209e-01
1.157016618996699053e-01
1.310239989464004884e-01
1.804788829817031148e-01
1.812346989372248807e-01
1.526882292753561632e-01
1.118034127167012726e-01
8.635136351533190258e-02
9.568204784318984357e-02
3.302692968457485861e-02
1.544527979343869317e-01
1.264673296013854586e-01
1.003264631578962007e-01
1.133680930359502181e-01
5.783322291182099728e-02
6.228881593308700781e-02
4.123050064675128773e-02
4.105611776421276560e-03
4.192039502896528769e-02
4.730455750027692113e-02
1.280285738656903455e-02
9.585809230662135916e-03
1.104213180966062691e-02
2.554480259541804660e-02
5.697597067393488784e-02
8.724977936914318777e-03
-2.502812669467277540e-02
-2.183419276315236648e-02
-3.760616985886422459e-04
7.836804671247900311e-03
-3.658070526475335621e-02
7.636469194457380649e-03
1.548871415702179899e-02
-4.356608389160883388e-02
-3.707862278357190039e-02
-4.090046137221570871e-02
4.433155292208890846e-02
-8.097644734168858716e-03
-1.524858195194052357e-02
-1.872532002192896228e-02
1.562666238767826399e-02
-2.412765521314916284e-02
-5.033464017861338791e-04
-6.481025682281056632e-02
-3.943859463507808083e-02
-3.899701949305461879e-02
-9.250417458006196525e-02
-5.535735019165809179e-02
-3.309295798449644194e-02
-9.618893809504570902e-03
2.314738837703102931e-02
-4.963508053089026040e-02
-5.686298233732445945e-02
-3.058989527159258759e-04
-4.049887839688383340e-02
-4.596702630367435760e-02
-1.851567885012871811e-02
4.965471658942899325e-03
-6.603424015361046562e-02
-4.137173037995336977e-03
-4.014625153941041996e-02
-6.546657258106561295e-02
-3.332832049819749176e-02
-5.597308977790693002e-02
3.909344381508107757e-02
-3.524888891266320795e-02
-8.581598491546590934e-02
-6.226090255689908926e-02
-1.242017932657404206e-02
-4.886276703727826520e-02
-3.694634855123114098e-02
-3.322316333575671410e-02
-1.126669604964686267e-03
2.576210864160821679e-03
-9.146067872274668553e-02
-2.002877313459136555e-02
-1.535730260605826930e-02
-7.024637299455814554e-02
-1.398376017430855156e-03
-3.443666410470479916e-02
7.947080467930370262e-03
-1.165317654739238262e-02
-3.093522258507607967e-02
-2.222440880562585180e-02
-2.744674097680071742e-02
6.697893780470497160e-03
-3.060370407904484252e-02
1.878822300995798555e-02
-3.987946132436845370e-03
1.850328004123411030e-02
7.182347313291453927e-03
1.649602849174758995e-02
5.359979596815857977e-02
6.240561420149390304e-02
2.091790171918311847e-02
1.013027707670385441e-01
7.812475480658616356e-03
5.304490316354518870e-02
3.252290593019902670e-02
1.039934241320799729e-01
2.886639836083865207e-02
5.496758352505062145e-02
5.338298722026470905e-02
7.171385297948001947e-02
9.238604248621497261e-02
1.367303976048550584e-01
1.154909729643312788e-01
1.371758131813837767e-01
1.430655906480911010e-01
1.233076263246174753e-01
1.612901546892773763e-01
1.391309821442920647e-01
8.457186711918858457e-02
1.515963813175385533e-01
9.663284359154024339e-02
1.121443382305230829e-01
8.779952562369985891e-02
1.093810798333792050e-01
1.084076272951583625e-01
1.126758404720776124e-01
1.232325212420483929e-01
1.597031251195974444e-01
1.087164817390902233e-01
1.007435750614643216e-01
9.133581908978077868e-02
1.131002163665387750e-01
8.993973933822867195e-02
9.786719774809207739e-02
2.384642508335891448e-02
1.489706922524878241e-01
6.202531488702919815e-02
5.847636126132740864e-02
1.469518653773903005e-01
1.574397299979660159e-01
1.434604003906436720e-01
2.123699837644429933e-01
3.104078769688615735e-01
3.092632744607857753e-01
3.774955412376951314e-01
5.317892916289159722e-01
5.852381900243720514e-01
6.947874036018225619e-01
7.258611361580934451e-01
7.948134835429330192e-01
8.915911291580904674e-01
1.034593709951964424e+00
1.095648353985834156e+00
1.040386190424970048e+00
1.113261381689491625e+00
1.095428645214203911e+00
1.113697842715854369e+00
1.109533078643506032e+00
9.864612875644905854e-01
9.964058896973672086e-01
8.818708924098506152e-01
7.441938995143578817e-01
7.526251866718182137e-01
6.091119379914031740e-01
5.122123344551893220e-01
4.608208745761926961e-01
3.607801013726412709e-01
2.862693535924966670e-01
2.758979551748624859e-01
2.015451707316697205e-01
1.089766992732079248e-01
1.868300009809350237e-01
1.158099334037126921e-01
8.009574052643819719e-02
5.977438765399514797e-02
1.099289096252516751e-01
6.145933442969045424e-02
6.527372894774216561e-02
6.411618289727118170e-02
3.445707749945868537e-02
6.313852601103903117e-02
7.800636148244245727e-02
5.620911421603595748e-02
5.234972762279452990e-02
4.073488435008740943e-02
1.152882848597118759e-01
6.133714859437888745e-02
