1.017080306988015881e+00
1.046011931931579486e+00
9.979904605371450188e-01
9.806926748999342802e-01
9.409106139186190765e-01
9.060600569429165807e-01
8.244019155636115315e-01
8.297794148750472498e-01
7.816780051900420467e-01
6.906270948562829304e-01
6.241570349878767798e-01
5.704385944322036828e-01
4.898165462108461377e-01
4.259250017551292067e-01
3.864811445584474536e-01
3.330064890689399815e-01
3.167327357807130372e-01
2.950166892452515954e-01
2.405526834382651913e-01
1.822966277123301282e-01
1.803180238789742207e-01
1.696869798357126813e-01
1.392366218639829734e-01
1.338810064260440302e-01
1.089212194698243041e-01
1.228279776299248949e-01
1.386197372324766697e-01
1.432584772160620801e-01
9.831516444469129423e-02
6.718396450717589730e-02
1.515766204512704329e-01
1.191186064370581832e-01
8.838852803895028143e-02
9.238136595484018609e-02
1.209086894824602521e-01
9.939135354836610425e-02
1.315612638727414740e-01
1.221026755984184475e-01
1.299591747895041116e-01
1.253259495703271387e-01
1.712458875791350310e-01
1.317185225907225032e-01
1.434014507021197926e-01
1.269464058134396611e-01
1.619475458418346281e-01
1.097215748598825147e-01
1.731599117485556338e-01
2.415857679257628621e-01
1.990315496007160900e-01
1.606183430313579685e-01
1.608625042935600824e-01
2.032596144189817988e-01
1.520100959272048524e-01
2.603297761775664743e-01
2.183830108935109759e-01
1.667578949339690031e-01
1.623012333434528942e-01
2.332946651714542796e-01
2.510974976630899747e-01
1.957537546698826236e-01
2.121662185233158804e-01
2.359037097915919201e-01
1.499581305679827392e-01
1.772643803403724239e-01
1.962892722040878168e-01
2.105240923495054484e-01
2.004534259111360739e-01
2.570239436383759402e-01
1.813146521724165461e-01
1.684124879954989884e-01
2.261241594966232338e-01
2.099281146356571648e-01
2.229964400277770209e-01
1.726793781265039962e-01
1.996035937577017583e-01
2.071815469278879551e-01
2.235666543626647074e-01
1.786072079452483419e-01
1.313571060585858874e-01
1.734637844074290725e-01
1.815556846803259294e-01
1.927457631114454228e-01
1.390303103782099814e-01
1.335976504025634948e-01
1.779922220810438993e-01
1.571730025076728265e-01
1.645063420894024020e-01
1.451601364102385050e-01
9.198625932747990508e-02
1.616608029683848646e-01
9.687897341479685676e-02
1.101889103438469519e-01
7.575850540013122358e-02
9.748878886046084824e-02
9.915100078878161249e-02
1.181355053729681304e-01
-6.061588688656152635e-03
7.709304629124849595e-02
8.535828336878245604e-02
9.523042952215539370e-02
6.321739733401300632e-02
7.859234197750633588e-02
2.689239747835842076e-02
7.931674678509822995e-02
9.063186007472837091e-02
6.151313438284026353e-02
8.942104004624143454e-02
1.005142748718418910e-01
1.033453649321018075e-01
5.396744249558342588e-02
4.282796511065083828e-02
7.808674829816408813e-02
5.001817266105502285e-02
8.312253543399511502e-02
-6.172173589267457294e-04
5.093078941126833598e-02
5.635470418475766602e-02
1.898765037988916354e-02
7.704909158272814362e-03
2.345295630191160385e-03
2.519712015613248535e-02
1.296599209138183523e-02
-2.410403918926604799e-02
-4.638310165408605218e-02
-7.867962368749335800e-03
-1.009044357096601854e-02
1.629360216888359886e-02
-1.602730627020308718e-02
3.122122223246326378e-02
-3.326004000224686008e-02
-5.152195643541482295e-03
3.050988740760636822e-02
-4.448814973321676969e-02
3.352845273512598812e-02
1.200477670860804549e-02
3.820071377315155392e-02
1.367169859278332539e-02
1.525361746249718348e-02
1.007534090550626926e-03
-5.106023342540545740e-02
-5.567243096408575759e-02
-3.518823745605391407e-02
-2.931976949259970308e-02
-1.181290946962859113e-02
-2.687379263891489720e-02
3.411505871731732031e-02
-1.504070501373630867e-02
-1.343335207613332791e-02
2.176452719339894148e-02
6.102308487726106762e-03
3.406136975902697428e-02
3.858484146444686458e-02
-2.209424687571008572e-04
7.355714896670997871e-02
2.559021152613115413e-02
3.653543448357406132e-02
1.993858473012249249e-02
4.466896955229859856e-02
-4.221562138529887098e-03
7.416776910798583700e-02
2.016186285391202010e-02
5.066993245905918736e-02
3.230020606825330376e-02
9.914998901095523065e-02
4.831300647734229625e-02
7.044262454790037320e-02
7.157284441980768519e-02
9.972911224887646975e-02
6.632957955061315192e-02
1.038919059395400080e-01
8.438362054850992444e-02
1.142450662224579194e-01
8.607590164453232662e-02
1.050950196913825324e-01
1.058354782801715632e-01
1.245052329024229076e-01
8.950237063796463721e-02
1.353201025815543024e-01
6.741245598619163837e-02
9.421353995881447119e-02
1.180397377471450737e-01
1.078670286684564605e-01
1.433817170822151432e-01
1.958527532244137281e-01
1.473862799464011331e-01
1.486315241058744907e-01
1.114619534598438738e-01
1.632358213222740995e-01
9.926418242331265518e-02
1.318264706416472365e-01
1.190682909604390133e-01
8.908506194890543350e-02
1.804950299980465911e-01
1.325257921172665887e-01
1.294276300735831553e-01
9.706341698199351387e-02
1.219919453835068696e-01
1.800997991010225563e-01
1.546984264370222240e-01
2.182621441532011375e-01
1.559231917097424480e-01
3.045774504355257539e-01
2.002342874136351647e-01
2.588803036711669892e-01
2.135401569637067343e-01
2.917988813535267179e-01
3.546266142803647381e-01
4.201741437545121749e-01
4.060196626728702074e-01
5.138167276267041617e-01
5.569924304991419328e-01
5.950712658882362227e-01
6.228431343062320602e-01
6.707288081027963367e-01
8.212889668817314748e-01
8.353881717100534177e-01
8.786951613936788696e-01
9.629237262916974238e-01
1.004029941725903097e+00
9.948915704883047884e-01
1.008949563170732810e+00
1.077459617251227408e+00
1.053094989407269422e+00
1.137920460063881034e+00
1.028443070647211854e+00
1.079178497848365392e+00
1.077080275794277231e+00
1.001953011419314699e+00
8.946097155745293961e-01
8.230088952508255451e-01
8.271805226016730739e-01
8.166790952083239352e-01
7.512056598581663414e-01
6.745946771611329718e-01
6.335915396483356998e-01
5.347165055884245399e-01
4.464629632814564042e-01
4.747687025815545692e-01
3.985876110391792237e-01
3.305323338724636129e-01
3.401311166696043831e-01
3.024487040962413054e-01
2.574184738348977985e-01
2.518766416396327479e-01
2.476870283668864692e-01
2.377039138312553590e-01
2.121718650712285104e-01
2.008829732540562685e-01
1.274993922810687408e-01
1.392855422345464778e-01
1.655340617313904583e-01
1.579115473190950969e-01
1.897057869353734327e-01
1.541793618107868968e-01
1.514923938257683178e-01
1.396458433750623063e-01
1.707180626890577591e-01
1.658894378159204985e-01
1.874980035801739331e-01
2.015441254955581962e-01
1.928708885344561363e-01
1.602294452165316796e-01
1.967461817874656127e-01
1.769652919043380179e-01
2.228278639772830472e-01
2.221597823819608242e-01
2.146523122182930343e-01
1.351916212094836089e-01
2.404698879521225130e-01
2.367506907617475953e-01
2.577651886452290708e-01
2.466505847163052156e-01
2.218991386215263262e-01
2.131827531234924411e-01
2.774179999896254079e-01
2.709540119719141549e-01
2.662986321824759584e-01
2.595274829525574534e-01
1.995556016574824842e-01
2.226936803285684829e-01
2.622430728721245052e-01
1.995966817629309942e-01
2.500335992967711585e-01
2.002178420820952265e-01
1.946020342066533682e-01
2.846737060209016956e-01
2.553451775217840947e-01
2.700226079324288819e-01
2.646839169034277961e-01
2.797611776112063353e-01
2.775275799210383254e-01
2.497803653734557983e-01
2.963050632665681916e-01
2.652055713122511427e-01
2.337770767370480063e-01
2.631103287578366312e-01
2.922842508485857249e-01
2.863681830230915826e-01
1.905538087051687479e-01
2.582425069410981822e-01
2.560298502445755853e-01
2.967418144119679524e-01
2.208096843825687605e-01
2.229516838720036753e-01
1.994201359998422629e-01
2.496454454594119743e-01
2.210851265245180330e-01
1.993420531592484390e-01
1.868712434866928729e-01
1.424183926699842118e-01
2.020381786053928874e-01
1.686831796980865494e-01
1.828959997189829045e-01
1.587147550577768240e-01
2.249348346084185934e-01
9.821543302838371681e-02
2.029032184109354486e-01
1.533535319086866133e-01
1.548284791561224116e-01
1.086146772800993809e-01
1.089611896682562003e-01
1.104939834849118369e-01
1.668901631068442082e-01
1.311533822953046546e-01
1.502613344234355608e-01
1.060506530231958289e-01
8.034673739694811467e-02
1.564044033048383742e-01
1.369644736500498505e-01
1.083918850067741579e-01
1.091007928014491313e-01
1.274566921992460744e-01
4.091109959182061273e-02
7.986806374627471172e-02
9.493447899712852134e-02
1.024984394337291049e-01
6.233266974885744161e-02
5.591036792581229042e-02
2.764686832173911951e-02
5.362535052301305172e-02
8.137608653588780661e-02
3.827445816846697380e-02
5.970116365461160257e-02
8.867793545648472442e-02
9.044927190313563348e-02
7.560504813045827721e-02
2.872794440895203028e-02
6.747711440403145189e-02
8.237435028484207944e-02
6.189373686473211011e-02
1.909003779362800773e-02
7.073120455278894547e-02
8.839993984310548503e-02
8.716333291087599577e-02
6.958506421022923882e-02
6.340687683644742612e-04
1.348787616072087345e-02
6.107078529702722469e-02
2.605020272812888157e-02
5.998320307942844876e-02
1.077080274192345616e-02
1.057478794194303615e-02
2.737450214159942163e-03
-1.641191083532753114e-02
4.773656574482733339e-02
5.693799655067657839e-02
2.275435480682874018e-02
6.354710845643180006e-02
9.399429092997119151e-02
6.963252377057865816e-02
3.717025751446507986e-02
3.276238073227632358e-02
8.643730964524892757e-02
4.106216365906208143e-02
6.352056139884512675e-02
3.007911822458161910e-02
9.135186474461479134e-02
8.657101139248164767e-02
8.809394431038969353e-02
2.076805545981749018e-02
1.616679611803309990e-01
1.176584625649026300e-01
9.298022580490092337e-02
1.143407399840368488e-01
9.267775199813262088e-02
9.672176280693507711e-02
1.224733943562503896e-01
1.257501241567066108e-01
1.187990178070089664e-01
1.379133243104938567e-01
1.296921981829656234e-01
1.025473127419673780e-01
9.785028232558498629e-02
1.599018031733330236e-01
1.250832313978367250e-01
1.423035028527351031e-01
1.321033156209027171e-01
1.591013845591583709e-01
1.980601664649221105e-01
1.449908852263908643e-01
1.650603867343688469e-01
2.015313166215200458e-01
1.966912659371143901e-01
2.435499818662460458e-01
2.089005168951357239e-01
1.692690903406775249e-01
1.568684044356063456e-01
1.796160223629074959e-01
2.153950374248523869e-01
1.904441601037325515e-01
2.073066633515208146e-01
1.603168584983850065e-01
2.288839896708784183e-01
2.006495054366230490e-01
1.795756620229948530e-01
2.197488862001733267e-01
1.854955082593752191e-01
2.067203063143120689e-01
2.256916789177897120e-01
1.982575251109431891e-01
2.515660860819304290e-01
1.702777407984029379e-01
1.976153361054879820e-01
2.458459823431669855e-01
2.287578678985722203e-01
2.962349590800110732e-01
3.026121380761693791e-01
2.972023128493662680e-01
3.756850214102089858e-01
4.275293847227592536e-01
5.050668288482764723e-01
4.378376372230066149e-01
5.832164024933191859e-01
5.876128815162219299e-01
7.113559226488476162e-01
7.472208834276875544e-01
8.470078455790004401e-01
8.360366873865042736e-01
9.356489574959045985e-01
9.503697907595707317e-01
1.020652917287627082e+00
1.036288271379525616e+00
1.069093328098118745e+00
1.099611072914717935e+00
1.139484765783868703e+00
1.155227935375481962e+00
1.152259951086822998e+00
1.144388760677779837e+00
1.096984929390122820e+00
1.064474150973343525e+00
9.964660250622136006e-01
9.755825581812530567e-01
9.032667643243723621e-01
8.934240373746535901e-01
7.660307736896385666e-01
7.297055309564843828e-01
6.764845111841381042e-01
6.101370498126047481e-01
6.084914090369319961e-01
5.531621202257502867e-01
4.684801645692589500e-01
4.090000253452797940e-01
4.058697591271363536e-01
3.402724296626780109e-01
3.144871196287497006e-01
3.143029522204525139e-01
2.629670235311429294e-01
2.719863717976844231e-01
2.187043131204055024e-01
1.882124193613627372e-01
1.892260372308468275e-01
2.268166281441358345e-01
2.660067358790234593e-01
1.361269915018077370e-01
1.781497493128000043e-01
1.939533282144039472e-01
2.059383844913506567e-01
1.960233971579157242e-01
2.662814831265073456e-01
1.772244783123019807e-01
2.084491278822935001e-01
1.957195069764103568e-01
2.235347768436273530e-01
1.454729236480534205e-01
2.726723205540123596e-01
2.414248493602665080e-01
2.326597081322244187e-01
2.558695060921140074e-01
2.715818939873060889e-01
2.847131365965104299e-01
2.500228454286513857e-01
2.563872975470981030e-01
2.109957664996550686e-01
2.074238544036258736e-01
3.147547759779523169e-01
2.721371262639769029e-01
2.479646004033580486e-01
2.939511361184932170e-01
2.787555201338465238e-01
3.063921896850457793e-01
2.816543359283027459e-01
3.158680158320354425e-01
2.728162848062540835e-01
2.883756342373299808e-01
3.074999053550637185e-01
3.023795616032284861e-01
3.122051448985513344e-01
2.806173404298100693e-01
2.765194613951633129e-01
3.083983432131990332e-01
2.980526569915547541e-01
2.863719294564487372e-01
3.048937320493192993e-01
2.796835492728900197e-01
2.588246904421970251e-01
2.376985975111813587e-01
2.962462200677999924e-01
2.928833095293802424e-01
2.805461693884878094e-01
2.581164894736825421e-01
3.263548316453080411e-01
2.880298691932308142e-01
2.877208561499378647e-01
2.302223393960076137e-01
2.528938891717910642e-01
2.911124256951716505e-01
2.519194016411084869e-01
2.329973347193466660e-01
2.044849858824975830e-01
2.651683103233231087e-01
2.396210467621089357e-01
2.499226829109114090e-01
2.410392919688416624e-01
2.286029177827892944e-01
2.758668286052987639e-01
1.808327313986732021e-01
2.141427243941861625e-01
2.224067073422905105e-01
1.915131861447156580e-01
2.384258175697240578e-01
1.748919306452054456e-01
1.797235438328071977e-01
1.467033035293627274e-01
1.309958222146163642e-01
1.686079954896424205e-01
1.619326778752444851e-01
1.601128045781687881e-01
1.408750086117605271e-01
1.722530041992580974e-01
1.649701513415627596e-01
1.741347394594511266e-01
1.658563847008392433e-01
1.399879871086736338e-01
1.087145863947764080e-01
1.069072103215375075e-01
1.304819238267457271e-01
1.064983015476334283e-01
8.142892579424762522e-02
1.055905123265508672e-01
1.364732963740453164e-01
8.256435194793199095e-02
1.065448411485246383e-01
1.157188843858521499e-01
8.949297802422259696e-02
7.615979195242557342e-02
1.252014341024021149e-01
7.943445951861996535e-02
8.719964017245612764e-02
7.881025149189146983e-02
1.112157355025689132e-01
8.719576374544887876e-02
1.172524089825768279e-01
6.452000070437885482e-02
5.739722941868628109e-02
1.229187435719484300e-01
5.797644029305754759e-02
5.753739279008029256e-02
7.367640013537325727e-02
8.106463899483450086e-02
4.636245344705480775e-02
1.166965451263649589e-01
6.505769269176987779e-02
8.255648514093320844e-02
6.300253274473663345e-02
7.500466353785370521e-02
1.166663122636560912e-01
3.236041239926339130e-02
6.713318449684256561e-02
-7.758242843836547775e-03
6.741596752852024865e-02
4.684247765418855791e-02
5.563445765872407356e-02
8.205785745277167920e-02
3.959848157653599737e-02
8.686151669628447425e-02
9.516467518503154976e-02
7.797349739137979241e-02
6.185732709805932816e-02
1.049765223778108686e-01
1.256045013162999102e-01
9.712413666970874659e-02
9.680115440685962969e-02
1.121250472373432339e-01
1.157039911344414362e-01
1.316225943559319878e-01
7.067517279086002469e-02
1.183127991532347267e-01
1.301902773285065762e-01
8.319237619960073715e-02
8.875928939058856659e-02
9.651591288797814472e-02
2.147381057564770601e-01
1.437952131548845269e-01
1.302645769448861901e-01
1.527680987003315338e-01
1.689801971635351285e-01
1.959002036684319159e-01
2.080568861694803429e-01
1.723610259392290567e-01
1.832385800239033635e-01
1.893196817797874187e-01
1.462503921905990989e-01
2.040601995054796003e-01
1.819189323659397006e-01
1.461695171436621088e-01
2.562968200780101902e-01
2.133838851334378117e-01
2.244771711877966147e-01
1.824156655555341233e-01
1.540173370903942796e-01
1.940555493488417826e-01
1.673888002640348538e-01
1.600820753286339715e-01
1.591191506720000537e-01
2.016603807949113314e-01
2.271627444267628471e-01
2.119648480522638434e-01
1.914628983417998032e-01
2.255294659477688479e-01
1.701350728597395279e-01
2.220185785533375367e-01
2.162005127343598898e-01
2.355973368867590456e-01
2.124947382399182683e-01
2.298688478718552697e-01
1.899293225971268040e-01
2.707988389364224813e-01
3.114514960341603911e-01
2.746885029967582326e-01
3.136453971830901466e-01
3.469723545681096533e-01
3.280464951053502776e-01
4.035892222479278146e-01
4.323623981715736253e-01
5.662403019310446872e-01
5.219490831742398251e-01
5.697599783169607912e-01
7.294628109940446414e-01
7.128254663098223531e-01
8.455335881641875551e-01
9.052213241841455815e-01
9.227354021418699981e-01
9.769632282579689964e-01
1.030982634835914125e+00
1.069691722974823733e+00
1.079579104744671225e+00
1.096337439667129265e+00
1.167149916469888415e+00
1.090425529440369967e+00
1.072793163124053262e+00
1.091604466828643982e+00
1.086213213478164130e+00
1.048694181143561499e+00
9.767545715422711883e-01
9.207102573206819018e-01
9.413001153664815046e-01
8.404106792435176443e-01
8.046238082165564354e-01
7.105148754882221196e-01
6.260453677570350095e-01
6.007541448796397399e-01
5.553463978180195326e-01
5.031439948401602580e-01
4.339237106168418179e-01
4.135557874153344415e-01
3.503975869162038737e-01
3.456031279659259603e-01
3.295593115359122249e-01
2.994068565452628894e-01
2.268789488469076798e-01
2.184074873106266468e-01
1.989757647367408899e-01
2.182761346987043549e-01
2.202224815509879197e-01
2.053067054120331081e-01
2.013470370310161406e-01
1.699188031280653988e-01
9.882987953140764947e-02
2.489460698807716699e-01
1.903127147693552956e-01
2.115624892919666655e-01
1.775123929171871506e-01
1.628500154897055685e-01
2.442611702334834822e-01
2.216138179600764535e-01
1.828464641499137344e-01
1.896698085766445885e-01
2.174702352313682974e-01
2.230597381092369602e-01
2.002214985671451897e-01
2.754735361226756662e-01
2.839288995095141654e-01
2.181228320773041518e-01
2.824163031583609706e-01
2.364059409515465171e-01
2.199270054969186816e-01
2.639472830748940679e-01
2.566880401303287540e-01
2.565880164202172797e-01
2.574845697841290360e-01
2.584415050363614297e-01
2.500183154050903411e-01
3.026163390667973019e-01
3.269497460127285815e-01
3.296916881168418523e-01
2.852255098616581219e-01
2.802810697169039744e-01
2.864775262381067389e-01
3.058923485231377359e-01
3.287687159446788243e-01
2.651320803587585151e-01
2.767975058612892614e-01
3.080813525483282467e-01
2.848575249370244311e-01
3.425566554182938872e-01
2.732123545008464660e-01
2.431394921372619644e-01
2.578613079871514557e-01
2.583051402787622242e-01
2.620798102939284613e-01
2.208934460240837838e-01
2.293141878374376774e-01
2.470403555259329254e-01
2.766457914725559686e-01
2.657008942045102073e-01
2.484720956208825160e-01
2.319884745488042244e-01
2.433810428349706401e-01
2.501349697299060093e-01
2.021995550155770982e-01
2.019937499408193671e-01
1.988548850038457660e-01
1.938071037763675342e-01
2.632600180381333144e-01
1.967534643823161677e-01
2.056323159012632407e-01
2.359935226581340861e-01
2.090743559093256043e-01
1.409313615024828104e-01
1.610198751691580554e-01
1.703295102443092846e-01
1.874906929923965127e-01
1.665808490345365434e-01
1.690845369767687290e-01
1.983206676537727642e-01
1.500770260460758954e-01
1.242400804349306082e-01
1.998919114857912183e-01
9.156092019659606285e-02
1.621376845702079961e-01
1.145548989385528349e-01
1.739133716371574490e-01
1.271548591434216446e-01
1.409288116620687759e-01
1.244836441753184308e-01
8.720287639854423789e-02
7.665081811061649764e-02
1.141087291927571634e-01
6.313316064929527793e-02
6.121691863222938901e-02
9.668702243632024129e-02
4.722523468396756796e-02
8.900969014911573607e-02
8.537281084060752145e-02
7.636235253563887493e-02
4.688208872964671342e-02
7.449651579338610607e-02
5.170228335239263756e-02
5.646878348562713035e-02
7.298571136399317760e-02
3.975819046226618247e-03
7.238012623545626856e-02
3.869912472036691337e-02
5.337206397788425011e-02
9.919606658002383393e-02
3.190242770789718935e-02
3.371692987038886480e-02
1.628360406455791470e-02
6.021824068122807322e-02
6.334207321400454893e-02
9.588098475595313586e-02
5.655122062333398092e-02
4.646190998976240660e-02
1.926809711898161068e-02
4.704159152656711695e-02
3.486372186793748607e-02
3.075030129995674072e-02
3.113918460787235346e-02
6.541980526201217339e-02
5.637639178730642631e-02
6.928500305559261163e-02
4.214088248911514872e-02
4.384109280386775526e-02
4.601385909135048691e-02
6.714741293711680437e-02
2.337289573382721891e-02
3.653350807631335073e-02
5.287150533129554575e-02
4.263878953190231719e-02
3.127884514958365059e-03
2.810597875402981449e-02
6.081293821173200387e-02
9.091640398348017904e-02
1.231259575614867229e-02
9.103413469874323261e-02
9.371649925422183280e-02
5.896641694783182064e-02
9.978680021480466900e-02
1.090616389426991434e-01
1.070291763744052743e-01
1.874840864532731702e-02
1.221587114749877190e-01
9.714977913097572193e-02
1.218913495178949313e-01
7.295595770608238884e-02
9.908899573595944532e-02
1.328230650529232115e-01
1.095526631768683062e-01
1.688930791170445700e-01
1.212140545800645952e-01
1.246851533175538790e-01
1.775790513483435085e-01
1.636405080416771796e-01
1.871773530229813576e-01
1.234284889797218898e-01
1.274568913914896628e-01
1.635147362057939868e-01
1.192525629032610002e-01
1.789119327033124873e-01
1.549475820014685756e-01
2.015505095488981935e-01
1.620341491607673323e-01
1.703067904307213054e-01
1.753579263076227301e-01
1.590049650757121291e-01
1.481693377633674369e-01
8.596874103825999369e-02
1.505507775505366408e-01
1.800663548725799645e-01
1.559930990589655508e-01
1.864212081155984246e-01
1.331548391377989915e-01
1.203757633141847028e-01
1.497691994013700678e-01
1.666775077536565564e-01
2.481482493344439322e-01
2.120365856267369953e-01
1.925660937036482445e-01
1.710538965949957302e-01
1.788557544569506497e-01
2.275860858058478264e-01
2.503980464339203849e-01
2.545144568267517227e-01
3.711347798236817597e-01
3.693245291417718845e-01
4.308748644725040045e-01
4.927641531037875167e-01
4.651383291107479279e-01
5.680930137600108676e-01
6.293328996031947176e-01
6.756200340383179404e-01
6.968220325370012569e-01
8.139617118672887175e-01
8.600714210941657889e-01
9.429953527711165684e-01
9.317697998580894980e-01
9.738576953274771242e-01
9.960153509665249372e-01
1.028855155316833248e+00
1.041829840725707168e+00
1.076162365906278895e+00
1.098245004986869944e+00
1.057603125270832667e+00
1.068497616114836957e+00
1.021262122498322711e+00
9.303325751884439221e-01
8.645606755910097974e-01
9.087479382588138366e-01
8.365589192434375043e-01
8.436620930979901178e-01
6.839652399320239606e-01
6.356760790068516354e-01
5.749504593699907851e-01
5.161325298888644886e-01
4.408517685411031950e-01
4.417092647660548210e-01
3.806379397323956248e-01
3.110387663223834753e-01
3.324993193684782633e-01
2.421228446914796828e-01
2.469990777438970941e-01
2.060643074529820706e-01
1.689320575184540818e-01
1.896048029707386451e-01
2.218818130080843221e-01
1.589137955934587232e-01
1.388201980071041564e-01
2.100976022137857890e-01
1.595626649455047785e-01
1.375198285914392970e-01
1.522342837280210581e-01
1.663554119821622768e-01
1.305030687153868052e-01
1.029495027758568354e-01
2.042691109489250256e-01
1.488603243762091077e-01
2.129539930034216599e-01
1.715742119941930377e-01
2.134697557942095147e-01
1.661551592311316106e-01
1.463250155588796952e-01
2.019360303174555504e-01
1.660434957776200371e-01
2.041054335650196727e-01
2.372780027132259384e-01
2.425607438708452801e-01
1.528453280180986917e-01
2.654848609631191292e-01
2.010307643036822189e-01
2.152551002284819603e-01
3.101736466681076498e-01
2.183638467679799300e-01
2.066151480463132295e-01
2.064642632809928491e-01
2.363561650435100359e-01
2.158292062335592509e-01
2.332369323538044936e-01
1.416454713542775745e-01
2.319391207337577476e-01
2.276369997932154998e-01
2.686112871928030832e-01
2.629710304019661771e-01
2.159155812275000696e-01
2.531652046105211662e-01
2.725174459940484240e-01
1.959015290007229682e-01
1.656552349398151824e-01
1.978041671664049206e-01
2.202189003087942076e-01
2.671077016406900873e-01
2.215616824415913566e-01
1.676142856751671462e-01
2.323658968405458713e-01
1.797066635005559465e-01
2.103754551035625364e-01
2.267610974017065517e-01
2.164003837064832070e-01
2.001657525158695439e-01
1.871245613527873775e-01
1.615585457666441904e-01
1.543287029919519215e-01
2.254269861422450449e-01
1.527075615812272802e-01
2.047898455242623261e-01
1.620500999015123123e-01
1.956651106235284543e-01
1.330683559207921085e-01
1.722249512969883101e-01
1.509321949097277571e-01
1.359507705541223022e-01
1.222819797305893519e-01
1.096788706350743520e-01
1.128585270852432432e-01
1.555257007860316731e-01
1.690926174917039559e-01
1.208231858382046858e-01
1.086290007283643444e-01
7.254935818876276366e-02
1.088912760622270381e-01
-1.159248647862407000e-02
7.916361614565539662e-02
9.601418175495746166e-02
1.365612293321720738e-01
8.551178605597435645e-02
7.712307533447411434e-02
5.916203400673272078e-02
7.688317508688748136e-02
3.924501337653009403e-02
2.524056664454508297e-02
2.444101533898806328e-02
7.113637522674506886e-02
-2.275696591443168715e-02
8.067320837031960457e-02
3.518620409872524890e-02
7.619630929029459765e-02
2.784555491330815286e-02
3.505100517565085116e-03
1.717922614874947337e-02
2.928336307313142428e-02
2.445013470802616384e-02
1.492260076631734059e-02
-1.834148995600514559e-02
2.158654415013890049e-02
2.867400890333921676e-02
-1.997465170492256081e-03
-4.745845824301042626e-02
5.288307441240515383e-03
-1.752292440360495723e-02
-5.655766018615828589e-02
-2.211038924601314154e-02
-8.595372953741220456e-02
-3.511427504095724489e-03
-4.785119896995299049e-02
-1.689544513236023587e-02
-9.022828186611993317e-03
-5.480835007775121392e-02
-3.707350391507302501e-02
-5.157873228728421938e-03
5.946064245423945960e-03
2.857754090250586715e-02
3.760916717262904885e-03
-3.149064551607119733e-02
-1.173789121874939737e-02
5.093592867312386752e-02
-4.616666817150852364e-02
-8.601867398652436603e-03
-2.964845287341633454e-02
-8.373128077838581929e-02
8.297406321882562497e-03
-2.895940192125574450e-02
4.891731673606937447e-03
-2.235384074815235933e-02
-1.458208746170298192e-02
1.899140339964633384e-02
2.865283166439498708e-02
-1.354763536709012103e-02
4.830555747620737111e-02
-4.442313962445645914e-02
4.918351364380860874e-02
8.787596117210286217e-02
4.677901399310078340e-02
-6.570250462588557439e-03
4.993827359413749445e-02
7.910734430209198642e-02
8.621905558632544930e-02
8.862389318265086191e-03
5.604903391524360817e-02
3.717120345644660956e-02
9.886181923390788273e-02
4.108965079528179021e-02
4.470426166319762390e-02
9.757349609297186199e-02
2.907644475699500131e-02
1.006771103412810592e-01
1.042429025093955797e-01
1.273997857549674095e-01
2.970479569072291548e-02
1.081414744174390846e-01
6.138799164052714807e-02
9.665450228697103352e-02
4.594188655755458012e-02
1.106820219797053084e-01
9.102587899497474599e-02
8.751107556258347353e-02
8.770066351854541309e-02
9.275699277573254409e-02
1.605237136503253059e-01
1.436771936649831605e-01
1.667201526234266817e-01
1.123371429616015355e-01
1.543333406838983402e-01
9.426212651648546714e-02
6.601138948939448692e-02
1.660080386436194322e-01
6.801954888857678072e-02
1.181060444909269869e-01
1.572516384820513702e-01
4.971416818784209213e-02
1.328668532160523219e-01
1.611471143332277589e-01
1.300444955161838556e-01
1.692361138983956570e-01
1.676248439055201822e-01
2.474690907184868838e-01
3.040750907249999968e-01
3.086284369377113590e-01
2.718131386695847307e-01
3.491940494758180025e-01
3.974817748608646673e-01
3.639923898717659090e-01
4.357540119439902715e-01
5.442205954565197956e-01
5.410706027628662262e-01
6.562980471391584025e-01
7.124139692417275072e-01
7.422121729996570272e-01
8.780789346322794842e-01
8.814563603431071481e-01
9.436428023253652375e-01
9.419037327392414394e-01
9.624211028708188342e-01
1.011126670292917806e+00
1.070496606519102611e+00
1.046339649144055528e+00
1.038160666363799223e+00
1.060068568913715925e+00
9.804025637620213951e-01
9.971006244737435908e-01
9.228419629968782623e-01
8.327673628911398396e-01
8.001736670192582945e-01
7.607654225319491204e-01
7.281071137395689341e-01
6.896336044325717118e-01
5.843775067784676702e-01
5.115315447423361972e-01
5.016443485661068458e-01
4.346474978337476758e-01
3.656329750008335822e-01
3.016268827385809592e-01
3.148106387833359832e-01
2.882570098422553295e-01
1.814485194341906582e-01
1.747809307012713753e-01
1.297795919549293298e-01
1.994343963996641766e-01
1.606253108453524481e-01
1.308282846776967767e-01
1.000182221130637983e-01
6.510683268087337494e-02
1.528137199719337147e-01
2.831116057136334047e-02
1.089487335858204398e-01
1.139028861778580148e-01
1.409174132485237485e-01
1.091583123903939745e-01
1.363252717934104463e-01
1.117727780668102411e-01
9.167979648704246975e-02
1.000184539801255990e-01
1.451808311442712440e-01
1.324883914112778838e-01
1.524953175496298052e-01
1.393691899582168159e-01
1.278851229968482606e-01
1.094232762352529836e-01
1.692612869911768458e-01
1.846841410788102045e-01
1.560189765597745082e-01
2.003816842830680178e-01
2.002640161984589051e-01
1.979767636551854060e-01
2.236731955735100086e-01
2.014638840951150367e-01
1.587270013386981315e-01
1.853488495716128226e-01
1.503421386876112320e-01
1.852579192165057509e-01
1.351363288288003894e-01
1.588026036180363310e-01
1.793562002281490209e-01
2.097404603677608947e-01
1.989830500950835468e-01
1.890256391429319949e-01
2.286393559631741124e-01
1.894261939900321878e-01
1.558762053013606208e-01
2.471990302462676869e-01
2.058560849615848343e-01
1.905506551466257525e-01
2.380267909850777297e-01
2.106731006641143766e-01
1.868177187859030586e-01
1.747355140147571484e-01
1.526662173573244408e-01
1.631873297012134683e-01
1.896628382448085348e-01
2.272409343334487741e-01
2.282547027964798025e-01
1.735729321506940259e-01
1.535689055752281762e-01
2.079952951854432963e-01
1.678624786502576904e-01
1.428532908611449270e-01
1.253927617962122265e-01
1.408997962951348271e-01
8.028029581194351394e-02
1.427308716439463776e-01
1.186791328884318486e-01
1.021031771129735366e-01
1.161600977526615897e-01
1.254285091713059075e-01
1.380368833039853360e-01
1.317377808943870354e-01
1.160551911323227658e-01
1.081118043810046364e-01
1.480113652623418208e-01
1.085544141047623812e-01
7.583936335609080259e-02
9.731775790264812764e-02
3.894354832308780101e-02
8.063902958811079713e-02
9.328545825494730104e-02
3.074858330247775412e-02
6.910641749042154003e-02
2.787692996524027134e-02
5.606299332959943649e-02
4.001516876174136123e-02
6.758796108666961788e-02
3.092353965598243493e-02
-3.065556725985210673e-02
6.838945546511790430e-02
4.463113628083197060e-02
2.163282594532009440e-02
1.963740460267585086e-02
9.511541950393345712e-03
2.629250161717780476e-02
2.799275283432527822e-02
3.400506897519504218e-02
-8.973255328562725064e-03
-6.338502928734413011e-02
8.474786047498628072e-03
-3.215985788763678355e-02
-7.457321571022634821e-02
1.912243744403054058e-03
1.039178794666227590e-02
4.252161284127590340e-02
-6.159755386299405056e-02
-5.085829119988895253e-02
-2.627482442152355088e-02
-2.447325448601482545e-02
-3.307884622672265656e-02
-1.348990502887142950e-03
-7.260232681840635138e-02
-4.369864825221103644e-02
5.230891315356589466e-03
-3.292846826752696132e-02
2.406727091790147877e-02
-5.835955507882858995e-02
1.845633554019225631e-03
-1.004872921493993321e-02
-5.465376233355929286e-02
-2.405646263707341553e-02
-3.626619537158301543e-03
-1.036467845605092142e-03
-1.746273606356426450e-02
-6.396122701374092057e-02
-6.844169633228880389e-02
1.504173714415389662e-02
-3.512655463167385639e-02
-8.812359247278092611e-03
-8.852355536003497782e-03
-1.847802854937909828e-02
2.205442079275373585e-02
-6.231756964322487935e-04
-5.938843349382244563e-03
2.698031863922904089e-02
-2.838569836080218761e-02
2.045016227030474476e-02
7.491079255162250150e-02
-1.211719729224284420e-02
4.551330696538692655e-02
1.565875984959786554e-02
5.721166179358948972e-02
7.379999829468165962e-03
-1.203853798693602095e-03
2.755324898903491887e-02
1.847751019564415620e-02
7.745756933120738486e-02
4.683386993163513035e-02
1.196271582514035758e-02
1.719376853865973304e-02
1.647009722641081669e-02
1.053326592180527932e-01
3.391612063913335140e-02
8.179449852594919412e-02
6.527148366147944580e-02
5.717802426888413114e-02
9.116215946972874851e-02
9.194061207728410068e-02
9.386025167397610280e-02
1.501237498984328012e-01
1.321001245176268712e-01
9.235074623430286622e-02
8.182542942723629309e-02
9.006299696943663446e-02
7.075428355636767530e-02
1.122335470011755765e-01
5.631111676122504961e-02
8.940763165815190927e-02
6.758822496743879804e-02
8.925455885442096227e-02
1.001281924399177181e-01
7.441496862434744675e-02
1.078396549233169993e-01
1.516458808618126042e-01
1.658861684055384922e-01
9.755405695019275791e-02
9.398443693671382215e-02
1.428064112164136312e-01
9.445636981677255073e-02
1.077361257390139770e-01
1.593480792090634368e-01
1.570137949526101973e-01
1.967835480545288562e-01
1.979587655381440658e-01
2.517613230303785143e-01
2.388216354577104572e-01
3.022122517323044821e-01
3.407192026872926660e-01
3.859263850742538082e-01
3.934534116979431229e-01
4.534405811268056863e-01
4.779930486927994049e-01
5.889849854937598828e-01
6.267031727784386774e-01
6.742307149140319700e-01
7.197395045092280785e-01
8.610437169856454132e-01
8.826165754595729496e-01
8.931672817044078450e-01
9.831162606746339794e-01
1.005519126425366228e+00
1.040222687118426581e+00
1.024630296954337716e+00
1.050459275652327218e+00
1.043338294627182083e+00
9.725234146745179720e-01
1.052406485988749640e+00
1.000830273294040396e+00
9.778266349104807187e-01
8.909749911625584051e-01
8.609803869017691458e-01
7.619919818608801299e-01
7.959336483514748428e-01
6.997491750395468113e-01
6.147211984938367735e-01
5.932345533523257775e-01
4.861123862315402944e-01
5.134791890096769285e-01
3.930739153646409245e-01
3.287834234084800467e-01
3.312171178605169963e-01
2.784613752700444422e-01
2.383738048722393865e-01
2.066476115921776213e-01
2.294130526690097982e-01
1.667262534011058339e-01
1.648437260018791595e-01
1.060490405082542831e-01
1.296069355269221512e-01
1.519821903510917005e-01
1.388158318350837250e-01
1.338899634235031499e-01
1.177499180257587930e-01
1.324264288397941913e-01
1.344872078871206800e-01
1.691351826445230688e-01
1.393924237877399164e-01
1.160339263653254738e-01
1.711597089152535056e-01
1.209252594421069277e-01
1.268869578180779056e-01
1.407721545619246006e-01
1.585002159550237821e-01
1.724291767434456835e-01
1.516531027720908753e-01
1.076343519273708360e-01
1.747975185349395777e-01
2.088357501599468202e-01
1.165198691923885477e-01
1.422683214616545233e-01
2.007080138042209860e-01
1.808604477949260492e-01
1.917459235115888949e-01
1.637216355244626442e-01
1.254250357677138827e-01
1.765069408992730460e-01
1.851964530266247966e-01
1.790334114576342672e-01
2.672798684294183102e-01
2.420394450571462519e-01
2.427012006197815652e-01
1.899653161808629309e-01
2.351395405716926457e-01
2.494800849702878687e-01
2.058032363203896598e-01
2.139172991700867277e-01
2.766148874037154815e-01
2.070378631536251013e-01
2.165600099508166732e-01
2.607025181330878683e-01
2.166087939879120516e-01
1.812770844469563658e-01
2.111122263063571203e-01
2.273049690830747371e-01
1.700816252928151473e-01
2.149152438071939009e-01
1.783102666524426505e-01
2.225249376133283663e-01
1.395217898665396528e-01
1.930837131908630100e-01
1.875786227157271724e-01
1.926869858957496462e-01
1.982135987904078134e-01
1.805777804885586590e-01
2.449006475026579421e-01
1.838732406426511479e-01
2.104389819954637642e-01
1.865309034466108851e-01
2.000992629853499960e-01
1.666612610622230928e-01
1.420593378257452855e-01
7.899255079582459538e-02
1.343592229340835886e-01
1.683080030027204188e-01
1.329675725966982802e-01
1.423007428070054703e-01
1.801638005065844261e-01
1.074157240144859027e-01
1.461705865739694188e-01
1.630613213691976815e-01
1.316870164904763718e-01
8.045189438123864778e-02
1.274739692360820076e-01
8.638257845012507763e-02
6.309318725733159550e-02
-1.245994349298538278e-03
1.191951372078124821e-01
3.271170960597585831e-02
8.004713597055597429e-02
7.013457618277352257e-02
4.587960680616384734e-02
8.378498914660710561e-02
6.169804142353760984e-02
5.955838668296413452e-02
5.519770553778272776e-02
8.774247398321027847e-02
1.054182423114869011e-01
8.081252851241274571e-02
5.329842433508406863e-02
6.387187557572757135e-02
8.761793448492047331e-02
2.414610478612460448e-02
4.551709607023118886e-02
6.556914279150354019e-02
9.362712968769679525e-03
-2.328835509521905156e-03
2.495599637206426247e-02
-4.292066404462033247e-02
-2.110119649504702682e-02
-3.216942986524093384e-02
-6.189902367110164047e-03
1.029559236000394257e-02
4.588875097836016270e-02
-5.923843692256704901e-03
5.549978993982235265e-02
-2.530156246918762245e-02
2.434776863650014306e-02
2.253615436990001261e-02
-1.622997469339960974e-02
3.222697973974988223e-02
1.031722328488842433e-01
-2.359801041877281069e-04
2.825374032210501915e-02
1.591098871291158137e-02
7.113883836731538235e-02
4.281854497057883437e-03
2.934155375424873577e-02
-1.112954875476387592e-02
-4.285086300270613512e-03
2.963099489648970616e-02
1.233177904868698604e-02
-1.796629120224243863e-03
3.099132930074778580e-03
4.568315390024228762e-02
4.618130325715678192e-02
2.219209777016097757e-02
5.807792102072808355e-02
3.387789326529013628e-02
8.487974218661056836e-02
4.358161480685705802e-02
5.843989178573571336e-02
-2.407114223791771007e-02
3.351686855461928627e-02
6.715851825071667003e-02
6.657115736103706716e-02
5.951224301306214104e-02
9.240907468809952952e-02
7.619932638437725003e-02
7.266830371219684670e-02
1.112893956820870806e-01
9.609025928128207827e-02
8.743553249576634101e-02
1.401961573733075117e-01
1.292732976007988366e-01
1.549014803982379507e-01
5.155123740830529211e-02
1.719916507446385689e-01
1.196191562522898183e-01
1.437111233611348682e-01
1.199457953539480592e-01
1.246743241998306273e-01
1.296015945487143384e-01
1.247533270461619742e-01
1.528483497856933104e-01
1.522006399483444294e-01
1.180211768787132742e-01
1.148273137545758188e-01
1.201382722559599936e-01
1.348433610522167536e-01
1.545814901665672758e-01
1.662477523706915317e-01
1.577899194809621874e-01
1.312299659724294743e-01
1.887626286619347726e-01
1.101728095430788978e-01
1.641858209079066766e-01
1.414833034054113203e-01
1.534607132423004283e-01
1.706044467526108555e-01
1.793000233691442180e-01
2.083433081970456069e-01
1.975214212037158801e-01
1.905635173309676300e-01
1.965087608665516961e-01
2.147124976655165607e-01
2.662479813156418684e-01
2.877875295531098221e-01
2.698691068578675245e-01
2.545062217157068041e-01
2.797084784024309045e-01
3.807852189944974652e-01
4.098444678250737772e-01
4.983587289718285906e-01
5.176860583173904518e-01
5.602002482109815773e-01
6.295605725233244243e-01
6.716790100022403953e-01
7.475756270417086569e-01
8.757077405972233386e-01
8.770564560686747724e-01
9.643870935760530116e-01
1.008999675532236795e+00
9.997197782084522588e-01
1.096014199766826902e+00
1.141893527230743777e+00
1.108383564248458075e+00
1.071223154571679936e+00
1.117909566089243967e+00
1.111560310364583914e+00
1.120271225407361682e+00
1.045415119043539454e+00
1.007718835564388460e+00
9.277675343185365353e-01
8.986842209594250175e-01
8.077002535538124750e-01
7.638780637510105276e-01
7.560106829015001972e-01
6.693237705546909444e-01
5.971255231581082956e-01
5.378107304976612602e-01
4.655274788611837300e-01
4.659347390086510665e-01
4.430518950832451064e-01
3.222458062057620976e-01
3.504637391760181964e-01
2.943829890377996916e-01
3.183846205975341959e-01
2.430526989645347968e-01
2.652938709882031176e-01
1.923435166139360608e-01
1.818992120418674030e-01
1.439135470073948375e-01
1.882129440233259177e-01
1.312952325732632541e-01
2.182415679583761814e-01
1.204513305944462376e-01
1.727684772807685232e-01
1.519561762641767622e-01
1.437701847517912634e-01
1.815860261015588284e-01
2.395151180712926930e-01
1.989733766906679469e-01
1.794102888861922318e-01
1.325040207032104345e-01
1.851930181815433785e-01
1.560118223284806260e-01
2.668211101338761049e-01
2.226223603439501930e-01
2.814525132799173823e-01
2.515577951731270412e-01
1.851395773730581951e-01
2.005304441979098296e-01
2.154667730086796684e-01
2.487810352926573820e-01
1.977333172992640775e-01
2.625738203496821854e-01
2.629417688885621329e-01
2.206930495163422212e-01
2.172862938494932727e-01
2.641029848404473079e-01
2.370033804924656651e-01
2.896570646432941598e-01
2.934570755789455698e-01
2.885570429332023901e-01
3.006855426077611471e-01
2.804704550252106743e-01
2.915731578935549795e-01
2.562440259065019155e-01
2.803889921976210342e-01
2.798724608803207503e-01
3.167314028724004804e-01
2.949545912023489036e-01
3.291687735349794752e-01
2.439361641614359588e-01
2.436152684500344501e-01
2.951520147253383630e-01
1.956357939207046814e-01
2.856011003554490557e-01
3.219659745574376952e-01
2.694711824575886094e-01
2.806078949287985624e-01
2.982449727183876242e-01
2.610652255564224200e-01
2.141790943436088224e-01
3.449284763855620661e-01
2.653642102986459306e-01
2.360736084600733586e-01
2.655240242887207947e-01
2.887471275764414980e-01
2.344609980611697120e-01
2.334755583564286918e-01
2.261301997419667975e-01
2.359189221407556603e-01
1.560788617668418254e-01
2.271350408342975580e-01
1.916703706051478828e-01
1.630200761393418019e-01
2.119353710691701254e-01
1.634575470530409691e-01
1.695675213254546621e-01
1.736249082129631971e-01
1.684017634895980942e-01
1.528919151352909622e-01
1.278093991655668282e-01
1.093567623150781265e-01
1.413334144478168852e-01
1.712526740552580140e-01
1.431262599408804626e-01
1.540308351632813377e-01
1.203203480934579017e-01
1.740168453278229665e-01
1.142470890829679064e-01
6.115619415807069942e-02
9.205435278526233334e-02
1.407291876717645662e-01
1.176940638997944211e-01
1.445681609343972551e-01
1.250073245844774972e-01
9.700888666643897595e-02
6.316575133440663348e-02
9.257118988248555502e-02
8.113116582292573264e-02
5.514061068406896082e-02
9.724144629484737790e-02
7.229267711969297738e-02
1.086339243451287795e-01
1.284235276452254104e-01
5.022399000468158459e-02
8.949603643581990897e-02
6.033452486699112521e-02
2.228375054110955794e-02
7.087347677336033880e-02
2.226247323220890278e-02
6.536643184763447911e-02
8.055816068474655478e-02
1.291490148016963824e-01
5.843370372094500165e-02
6.830811651662821449e-02
4.086077781158723582e-02
1.183051625352421476e-01
9.628106867825661497e-02
1.084467230208082181e-02
1.298805073259572465e-02
9.911233418100180714e-02
3.755320514278120969e-02
4.727439128553508757e-02
4.363236694970002577e-02
2.659877834338084460e-02
7.727462892205719247e-02
4.597707812336424005e-02
6.748780556611486126e-02
2.904050670361760580e-02
1.171428439374729014e-02
1.056128038481443238e-01
9.422938379703695022e-02
8.034677418850960651e-02
5.617533556567045477e-02
1.109841263602562023e-01
1.166801108273506915e-01
3.672034866160385491e-02
6.571504928001409285e-02
1.159874808490447551e-01
1.035401388345044971e-01
1.420960093933648638e-01
6.486324982347954626e-02
1.239653077003531334e-01
1.134586180478303202e-01
9.395735863604690041e-02
9.878733203251854889e-02
1.245765589552748354e-01
9.893582520417204540e-02
1.283556195686837986e-01
1.329426206444913328e-01
1.846811442963599004e-01
1.876720433612575067e-01
1.862660757242730059e-01
1.763251528978848903e-01
1.446017763305025294e-01
1.774994957705402776e-01
1.557284941277649049e-01
1.797320874650655820e-01
1.712345235838301227e-01
1.762804215549055864e-01
1.640440879973130150e-01
2.024390362640316465e-01
1.786385714766968169e-01
2.576656991769438187e-01
2.184503488409556826e-01
2.049151399405172158e-01
2.257351204997091187e-01
2.641585581003594307e-01
1.998359417450843167e-01
2.131651322242604230e-01
2.081144684857430538e-01
2.035246602686046624e-01
2.121929262862617960e-01
2.000799172066492770e-01
2.079236109463123428e-01
1.655128021861934640e-01
1.791852862754911568e-01
2.000051887649242632e-01
1.505531224339780039e-01
1.767490478929544528e-01
2.013132876290356088e-01
1.926265356738814660e-01
2.365751396736872625e-01
2.737164074263462865e-01
2.174551367163687354e-01
2.462735289216136658e-01
2.916648826256473814e-01
2.983305848448561393e-01
3.339078617802282434e-01
3.881199989967319963e-01
5.018916809785911592e-01
4.352106057259486627e-01
5.454411702703380049e-01
5.666732779990613089e-01
6.243519653416762516e-01
6.632072354468108166e-01
7.561032503018675355e-01
8.045165265079526895e-01
8.551410298197121840e-01
9.681451027635252782e-01
9.467273511821742149e-01
1.003800111652516369e+00
1.034570741334533750e+00
1.058258181716679402e+00
1.089768746598062998e+00
1.111956880007573201e+00
1.117747817879892747e+00
1.146158447792376522e+00
1.070575356568671310e+00
1.071370192998583937e+00
1.075097755089952090e+00
1.063623155433365719e+00
9.724636532001476041e-01
9.626177473336354762e-01
8.770275844446171476e-01
7.991964020027532145e-01
7.362396658931210647e-01
6.547332510807207795e-01
5.946823574663135936e-01
5.372609523903499884e-01
5.277688145155651211e-01
4.447175317406402706e-01
4.135195751820547883e-01
4.173751256202924420e-01
3.402290137953414284e-01
3.315729442173827590e-01
2.735330752049844327e-01
2.596998069869888570e-01
2.162822874855803990e-01
2.499758609538092202e-01
2.097713618770525590e-01
2.445621210845122517e-01
2.200541568894543998e-01
2.075092240666246701e-01
2.302868766100308051e-01
1.914473993899495075e-01
1.604412588025802555e-01
2.518849926883983126e-01
2.178017779801871279e-01
1.892610667442170547e-01
2.082669645494788502e-01
2.166592790159769244e-01
2.252945902840864378e-01
2.538744941955204948e-01
2.094002106487817816e-01
2.046193010947987556e-01
2.292514537993579626e-01
2.584797155880427244e-01
2.398486005348990369e-01
2.914799929396662548e-01
2.553577087149134783e-01
2.041420863354044546e-01
2.741617670501579895e-01
1.907513366102997210e-01
2.698298820928147213e-01
2.298260029877889909e-01
2.622766524693350698e-01
2.715667665772020789e-01
3.165445319123855739e-01
2.225251584363948099e-01
3.173526906865125619e-01
2.869644245082275669e-01
3.201544822191775275e-01
3.035796550668382610e-01
2.632286285020930539e-01
2.867755085128196324e-01
2.777992734617470982e-01
2.866826925260255177e-01
3.460533772032896582e-01
2.629301014284517457e-01
3.519595600012588310e-01
3.280449426823790482e-01
3.340556625167301341e-01
2.331195913590874413e-01
2.590895511305358889e-01
2.666908646935568505e-01
2.995667783991444733e-01
2.812598987317826982e-01
2.797993631795837599e-01
2.544858899910707462e-01
2.822622963504299864e-01
2.667794531012812609e-01
2.841433630179579506e-01
1.990667532324627564e-01
2.627692194950144722e-01
2.715502988977602228e-01
3.071930558865992866e-01
2.068220464404224579e-01
2.397731892733151182e-01
2.497277669833085634e-01
2.543232965264194401e-01
2.909688211547924452e-01
2.072352030897058328e-01
2.178589625406110175e-01
2.621854622856221728e-01
2.038261204696196760e-01
2.624495320985882341e-01
1.338431061101970077e-01
1.988278970401781975e-01
1.823020340058227884e-01
1.539130009825135093e-01
2.286936175716951236e-01
1.655901061312849698e-01
1.689133650291911870e-01
2.023726425714075794e-01
1.435377604768696969e-01
1.547885685929182298e-01
1.986554264060063080e-01
1.203557965116546224e-01
1.546400753271715556e-01
1.540154637006029559e-01
1.612028704358698661e-01
1.977988147056879975e-01
1.209039009979980261e-01
1.422891640041812344e-01
1.857400450576278117e-01
1.381671922745902614e-01
1.108536773612964904e-01
1.504181464137646640e-01
5.490227190725514156e-02
1.070010545046024275e-01
9.329417233150971711e-02
1.525853321962158948e-01
6.071900885391675468e-02
7.528396034295328776e-02
7.857551283911697049e-02
1.012065879664745399e-01
1.200190230067068459e-01
1.030427833391163173e-01
9.828287242680863733e-02
7.114118472810354588e-02
9.167733370155925487e-02
6.564477477346611356e-02
1.021882587974485695e-01
1.017553769968132515e-01
1.113641284567690737e-01
6.411475039021596878e-02
6.390869422833962699e-02
7.488198351942823572e-02
2.499638652730110447e-02
5.210110546236423890e-02
8.240104794660721432e-02
1.075787476457553959e-01
7.600695842815685666e-02
9.520741260142374929e-02
7.338318566019055855e-02
1.117314931231801201e-01
6.779217607496229592e-02
2.762395212228744429e-02
4.859616120729461780e-02
8.592642718318803385e-02
4.554716284215980238e-02
3.084725398636843988e-02
8.314242240728471345e-02
7.235341437175614454e-02
5.061829344406251763e-02
1.138353743321091072e-01
5.102411011783133943e-02
1.134995321997027823e-01
8.947013788081573105e-02
4.993561624723009962e-02
1.209796812903781299e-01
8.180302323049196134e-02
1.005813379393044882e-01
1.668275990357558358e-01
1.360819184886224442e-01
5.469607681329379661e-02
1.082316690219786159e-01
1.134803242372269538e-01
1.197458680501500006e-01
8.764867662638464729e-02
1.240570024643247171e-01
1.154625307764673425e-01
1.387452622589392115e-01
7.643705941498030176e-02
1.423547581605056067e-01
1.595287473150073521e-01
9.477318319379687828e-02
1.625931736257687499e-01
1.623315116695014659e-01
1.638067227990141761e-01
2.193729383848097014e-01
1.513115750346770427e-01
1.930019920575067049e-01
1.538737269486573911e-01
1.609360516149855036e-01
1.709261511221947250e-01
1.994960403806325666e-01
1.951215693990995259e-01
1.874029821985408184e-01
2.300276543540809848e-01
1.838002606314874943e-01
2.079979109396111747e-01
1.190176087321089538e-01
2.108531568143131585e-01
2.261072006653350175e-01
2.149687726155081746e-01
2.031697543375619863e-01
2.102841294261686145e-01
1.839258262868397886e-01
1.782777771428230573e-01
2.430301927866704570e-01
1.611711184973239896e-01
1.799170449424131735e-01
2.055677420676859657e-01
2.293154310692815112e-01
2.304918184929009295e-01
2.239174394081626662e-01
2.742592445851232963e-01
3.228222205482392804e-01
3.346546471102733733e-01
3.145206624088820457e-01
3.851481414016104665e-01
4.045377375092398253e-01
4.849863758310958839e-01
5.155004511367222708e-01
5.424020273288857608e-01
6.111006156636187292e-01
6.895725951684382737e-01
7.404161384795625578e-01
7.866082366342485033e-01
8.735612579903860864e-01
9.167688127237301199e-01
9.322028307558452020e-01
1.041377607134349681e+00
1.109793588652552954e+00
1.145025899415887283e+00
1.105658493305910151e+00
1.129924034962528800e+00
1.088358860940899620e+00
1.099722440525466638e+00
1.082252447730461142e+00
1.056671218435911497e+00
1.038147157163247680e+00
9.931136148548013187e-01
9.404160907629631749e-01
9.099183034829789740e-01
8.352025271383359817e-01
8.286960773959283211e-01
6.585545056719246393e-01
6.577055186548665944e-01
6.054226475119086626e-01
4.784804567738407677e-01
4.761115614955163666e-01
4.403091306353144607e-01
3.524467508092520296e-01
3.023787993113074002e-01
3.084981538011006275e-01
2.470572194998655602e-01
2.509532425134960443e-01
2.499779015836013640e-01
2.166996076935323312e-01
1.920418115447710961e-01
1.852174066754841142e-01
1.593497858361811736e-01
1.831732719218605032e-01
1.704506138960282802e-01
1.686783246055592322e-01
1.745743216626578775e-01
1.697570230373523503e-01
1.577633122803421828e-01
2.333993529777816378e-01
1.663142770619258914e-01
2.107978891640480967e-01
2.047463768913328208e-01
1.969079792707534304e-01
1.821993381041731863e-01
2.407758015979783728e-01
1.719423285698953863e-01
2.878889822528427067e-01
2.215214175083249915e-01
2.459900426790631034e-01
3.020273017948501559e-01
2.414504058131012321e-01
2.668736347946054632e-01
2.915560276958837349e-01
2.700883404620834094e-01
2.762811532214584642e-01
2.717314917488620751e-01
2.987180625553905733e-01
2.662961787255271884e-01
2.750987498669769105e-01
2.311469787699752532e-01
3.181290616952246464e-01
3.082440970448207529e-01
2.962269973050764560e-01
2.726081852830183894e-01
2.405637043931508900e-01
2.417383803162763689e-01
2.341160751834022169e-01
2.831199636831581712e-01
2.191783581161728944e-01
2.848722450489609148e-01
2.946720543407836956e-01
2.305193382237268884e-01
2.615221455619726743e-01
2.940742924083120657e-01
2.323299867385788531e-01
2.051596478426239156e-01
2.271528648510842407e-01
2.797573381819166149e-01
2.493762067587258491e-01
2.086311511344397795e-01
2.736517374487067999e-01
2.722614405402629112e-01
2.635735889106301522e-01
1.736264721690625179e-01
1.823210562081571395e-01
2.379171656176139737e-01
2.137792120589050437e-01
2.121335580451930158e-01
1.885820450254485914e-01
1.814327107043910425e-01
2.198305107551098980e-01
1.868119700115884740e-01
2.025098043710154283e-01
1.897203260525495427e-01
1.648842927317099027e-01
2.357355785706120865e-01
1.323379315151596014e-01
1.453421191068894613e-01
1.588413701818868762e-01
1.228953624946350770e-01
1.461623244151486478e-01
1.750465912585591477e-01
1.390878144113691928e-01
1.007803316147471567e-01
1.188699232159304703e-01
1.168311594551584565e-01
1.099849557817439150e-01
1.076054906937333050e-01
1.120904148060220262e-01
1.606778431302678389e-01
1.066472027174956011e-01
1.182047479752656727e-01
9.028864885296837561e-02
1.048533036419164871e-01
5.868339921375437251e-02
1.109341427775310251e-01
5.018704547830220991e-02
1.546355399466261549e-01
5.638715030409716805e-02
6.684068367120127308e-02
3.152149246864308085e-02
9.894859248435042276e-02
4.259402692344402275e-02
-1.957533075762748001e-02
6.945098868152362048e-02
1.019728961280467611e-01
2.518823720781700887e-02
4.837847478166344001e-02
1.781191278962816066e-02
2.109405605859417804e-02
5.626110866207781336e-02
6.108223540366274074e-02
5.820934489006826529e-02
1.026888221309723952e-02
1.084702571239401156e-02
6.259462304761099528e-03
3.666016598056381914e-02
2.541082858788154542e-02
2.579364426304004212e-02
7.119412708897801534e-02
3.696248402147780856e-03
3.755873619688935433e-02
6.017618276286389178e-02
-8.798881491101442215e-03
4.302581421002390702e-03
3.728233864965260769e-02
3.746111700242223813e-02
1.119186379107646283e-02
4.459449756955479946e-04
6.623557862169727507e-03
4.738744931464913823e-02
-1.549269404572987952e-02
-2.617447941924302621e-02
2.799534884467575271e-02
-3.773915838457151881e-04
3.205328996630921190e-02
3.619537242686338835e-02
6.500124064543011393e-02
-1.091386141939653873e-02
4.667816720365253885e-02
4.875396696102107102e-02
-1.142067861118634814e-02
5.016430094643248294e-02
6.577883665455118434e-02
-1.282595762257868720e-02
2.715170268644008164e-02
5.112267055281510125e-02
3.375872371157728757e-02
8.650695512542591614e-02
7.175428273743257590e-02
7.514555187387561563e-02
5.529782682452917542e-02
1.051720251709070131e-01
1.225051790483500519e-01
9.452033296158804387e-02
9.520868048939366834e-02
6.573969026470323496e-02
9.243931557725683368e-02
7.946059363609010717e-02
1.351627526903880772e-01
8.119912105385931889e-02
8.460927741244202160e-02
1.068817231724782796e-01
1.438372161626190748e-01
1.480447488388517141e-01
9.321873796291446634e-02
1.452946550918392532e-01
1.176862832988605639e-01
1.646444203622093871e-01
1.655892318353115733e-01
1.195652647593810347e-01
1.778234872351634743e-01
1.844973823207200492e-01
1.135307777850436961e-01
1.362719847202409351e-01
1.910843900528540473e-01
1.550459802776676943e-01
7.397194975801316130e-02
1.344831074576049723e-01
9.911155397702685332e-02
1.342921289750197145e-01
9.412673390139875140e-02
1.669719318373262540e-01
1.926700091131631210e-01
1.240255360571133475e-01
1.241347259555729138e-01
2.083632023823986379e-01
1.678112957932969551e-01
2.221149095513575977e-01
2.487154761730109298e-01
2.835757412518523646e-01
3.026112452932478436e-01
3.388758785871087698e-01
3.586172673548138623e-01
4.015648292617827186e-01
4.855304284277530691e-01
5.168141002931564421e-01
5.847046999613427776e-01
6.005830426712744918e-01
7.160342882998663727e-01
7.621746849335002683e-01
8.717072733466326717e-01
8.428093155884402998e-01
9.238777914757719811e-01
9.810223447468967573e-01
1.035984905753410290e+00
1.061664191380278233e+00
1.022167782562685368e+00
1.044253571833505090e+00
1.070613673577373914e+00
1.048034328103492285e+00
9.907589885776915128e-01
9.558092467981341711e-01
9.685851170572895574e-01
9.124136234943632795e-01
8.657103391210680954e-01
7.773837988652284592e-01
7.469984258439833491e-01
6.490807145983380488e-01
6.289854785321372654e-01
5.349386733030500052e-01
4.756829379777844924e-01
4.460210733542000483e-01
3.950578987446422552e-01
3.896992963283796851e-01
2.793684621536917101e-01
2.044210115914686654e-01
2.556083343490619386e-01
1.804256697134808407e-01
2.019512186632327344e-01
2.522809747818020032e-01
1.488257010342469988e-01
1.047959503874117959e-01
1.701364727234934149e-01
1.060176793177591281e-01
1.141453424034056252e-01
1.025868646188566602e-01
1.079825974101808056e-01
9.049379605683943728e-02
1.545774473235856927e-01
1.017375985375787717e-01
1.379011695479637478e-01
1.255262050542596541e-01
1.453902681014682119e-01
1.437743331484474529e-01
1.478627202731011003e-01
8.660745582046862345e-02
1.859680333495854765e-01
2.109095851968365576e-01
1.668136917194329438e-01
1.624727510350847948e-01
1.008960477382961074e-01
1.477236670420171705e-01
1.497491208449445443e-01
1.986226784182463234e-01
1.827106642921620672e-01
1.864879111102097087e-01
1.969023174329610770e-01
2.028625110589065417e-01
1.966022849055083233e-01
2.107225467989044254e-01
1.868538676463169512e-01
2.010940134157193637e-01
2.036469788600420716e-01
1.817792440056542336e-01
1.890256992249375045e-01
2.349073938416641472e-01
2.264994133899683737e-01
2.447116055139904045e-01
1.794256052180424332e-01
2.353192178018534697e-01
1.985484903586344496e-01
2.304711775404640894e-01
2.291861045376784312e-01
1.879527692553863705e-01
1.867996203211560458e-01
1.997353729586610338e-01
1.992255319435598804e-01
2.040432405663459015e-01
1.947635057320336038e-01
1.321444123128203418e-01
2.123689269790871581e-01
2.075647737460052100e-01
1.892908695737417768e-01
2.280885135754065485e-01
2.360552229086805842e-01
1.562469196816211880e-01
1.790989250075281647e-01
1.280076115636212264e-01
1.310269002833222562e-01
2.247553197310025730e-01
1.444072054482919976e-01
1.581122677363177298e-01
2.152006232379734818e-01
8.286140547027942560e-02
1.887460459384080469e-01
9.732040187108838281e-02
1.135971437372462756e-01
1.470471758471565693e-01
1.326372944895803374e-01
1.209523346075374595e-01
1.098278448166788990e-01
1.176637315516834564e-01
7.568232190242012158e-02
1.060079186632029297e-01
9.713153623371814649e-02
6.386338106591429864e-02
7.126235451763852924e-02
6.265814223979904174e-02
1.089807835263428559e-01
2.241720278739571526e-02
5.085815809836435192e-02
6.511806157597609113e-02
2.848448145776199397e-02
8.171342651612026331e-02
9.486101629817529635e-02
2.695734117204639374e-02
-2.131557226680556860e-02
7.377524532923493417e-04
4.458160644334419748e-02
8.821069324024732872e-02
5.045372752572169217e-02
8.882859093888272051e-03
8.904741066407012573e-03
4.326078324930205526e-02
-1.751630921326798387e-02
-2.255895349297799488e-02
1.226535600811810844e-02
-1.078347101537663333e-02
-2.045965387507441002e-02
1.577722126090332772e-02
-4.697255485441084732e-02
-1.280212661580770045e-02
2.904145443716282110e-02
1.020777116533991280e-03
-4.720681255718976732e-02
-2.673948207717986858e-02
2.706471141351168841e-03
-4.286801478880192251e-02
-5.117515724742868755e-02
-4.593589911188912522e-02
-3.984300655235249733e-02
-5.892494656311948742e-02
-4.224958872044366071e-02
2.098758175227416478e-02
-8.161282521187722405e-02
-3.524810918615588901e-02
-1.169374368825579213e-01
-4.865712342188346223e-02
-5.669688918399659605e-02
3.596662094451917591e-02
-1.869024562938491688e-02
-1.927112534267172439e-02
-6.675695563708876346e-02
1.196576915216489290e-02
-3.745310000770454839e-03
5.075182317023890777e-03
4.179369663046256234e-02
-4.714907665980425100e-02
3.577826739336771589e-03
-8.960630610360689752e-02
-2.978022005289285290e-02
-3.497771838888989737e-03
5.002810411631603005e-02
3.980250380339245275e-02
5.105931663404505993e-03
1.208962270893431529e-02
4.598554354280225825e-02
2.662134855585276960e-02
4.323392875266400537e-02
6.125730919727132018e-02
-3.746050620724944435e-03
7.528797759366856468e-02
6.334535120816589537e-02
-4.895035981763905253e-03
1.096662822872700171e-01
6.631775233384404333e-02
3.449765468717930217e-02
4.289674969354222850e-02
7.385478923865999856e-02
1.224608714364032458e-01
8.302476843362935344e-02
6.532513613632538740e-02
7.093528819733235791e-02
8.614469600271240646e-02
7.020474990995842490e-02
8.253578459603341799e-02
1.200737341586813334e-01
1.218532017638247200e-01
1.365150753733071209e-01
7.801348833977000963e-02
9.069954659056647661e-02
1.156453540891406728e-01
7.689430435716357315e-02
6.808075562524586177e-02
1.178552406458179269e-01
1.165793961823066160e-01
1.497287902593401610e-01
8.088676012690548811e-02
8.369617271421385396e-02
7.009727503706272844e-02
1.005668396621975380e-01
7.783470443072781908e-02
1.593094282499767922e-01
1.163515994551483496e-01
5.429593692024023421e-02
1.071127633710411836e-01
1.161891990609421887e-01
1.423901463258924749e-01
1.220102128997787860e-01
2.119887919650751684e-01
2.238870195628422932e-01
2.552316601705617582e-01
2.834901615196128155e-01
2.137690348224278170e-01
3.384789203831479742e-01
3.701916481424952221e-01
3.846510783121184218e-01
4.716599376573021862e-01
5.041461390862662650e-01
5.854001252469378525e-01
6.207297299808129942e-01
7.115591276073337523e-01
8.033983058533714638e-01
8.390229735505819741e-01
8.211319985859424353e-01
9.623119858018877038e-01
9.798163723151783744e-01
1.023603393782617221e+00
1.044066440136456109e+00
1.037819728580920975e+00
1.038778568984471518e+00
9.971175079073748559e-01
1.000217913919021262e+00
9.940342169224217761e-01
9.738664165850049459e-01
9.467216166945726652e-01
8.453964906064738161e-01
7.153019978596075745e-01
8.093281600373233298e-01
7.212679536867808716e-01
6.700386645172793365e-01
5.805676801687453814e-01
5.233252194204878194e-01
4.279766326006433363e-01
4.207306322799686527e-01
3.201346021018651733e-01
2.747179648640345473e-01
2.337507593717496612e-01
2.271634533910807940e-01
2.645235943246443400e-01
2.353620900040119257e-01
1.987489208881825231e-01
1.712072278349038301e-01
1.262516960430153934e-01
9.035404099491572971e-02
1.004600668947204234e-01
7.830000430178490900e-02
9.761024113621172282e-02
1.203727305634561678e-01
7.950372503997452100e-02
9.200334860996249586e-02
5.948780921324083037e-02
1.394632902390768869e-01
8.830259543624616181e-02
1.167822782976706691e-01
1.079803654295382331e-01
1.466433613263695979e-01
1.555115470689215906e-01
1.048447989852773626e-01
1.057292726161317420e-01
1.775185945171379731e-01
1.872569062548656571e-01
1.567730392855496147e-01
1.847845262157660207e-01
1.308197043560084261e-01
1.888384243315084920e-01
1.641604919542161700e-01
2.115716176618942512e-01
1.351084889346807205e-01
1.765254815439627478e-01
1.826483380424740455e-01
