9.789825919380964470e-01
1.056775793590221779e+00
9.534053798558099757e-01
9.677999677042612436e-01
9.134221953009592498e-01
9.012885056542512263e-01
7.812099643122063508e-01
7.646057956784391152e-01
7.175001507901057618e-01
6.021950172551150393e-01
5.975310548485688322e-01
5.632608259994346112e-01
4.703196904092359354e-01
4.323829278271507648e-01
4.321565533250895097e-01
3.179625095105693133e-01
2.541775837783702974e-01
2.581989419883056192e-01
1.947148924613212317e-01
1.964279149378074796e-01
2.205390358351937974e-01
2.133291718691739114e-01
1.330528916003183570e-01
1.414172883608697251e-01
1.548935496690274638e-01
1.426599898434785796e-01
7.619495363049555436e-02
8.997408681520044360e-02
1.221999427848070030e-01
5.382358065926083623e-02
1.074303700122758720e-01
1.503036464637961811e-01
8.727929187795896437e-02
1.266159465503803316e-01
1.900675629142601630e-01
1.214301569643036344e-01
1.473162453675019301e-01
1.339162688874616647e-01
1.767400711689958159e-01
1.777628870451605780e-01
1.341846761697116364e-01
1.582247929159605049e-01
1.338005501651936546e-01
1.596991395004782321e-01
1.389590536176493751e-01
1.773982673002272858e-01
1.379109467301664060e-01
2.273866776341306739e-01
1.378378503890868856e-01
1.725465459314822758e-01
2.170573793757459291e-01
1.697205270667037080e-01
1.672316138514261252e-01
2.030084444803097465e-01
1.670057448864211702e-01
1.933247602881460747e-01
1.778443313040170837e-01
2.083006340991041261e-01
1.314799645473681555e-01
2.153539254255273372e-01
2.188340301253913489e-01
2.139069656974965650e-01
1.874216214833150929e-01
1.705165276763018489e-01
2.180363492351954924e-01
2.341863213613524508e-01
2.070120509357929461e-01
2.262984045327676719e-01
2.182834748800772107e-01
1.712135929674788726e-01
2.110968661201924057e-01
1.436277294851324715e-01
1.738463433597220442e-01
2.356478500054415559e-01
2.149242987482344880e-01
2.076841666922204788e-01
2.085262359215571404e-01
1.369483234048874398e-01
1.327533265176930044e-01
1.457742557118858473e-01
1.779398342952624168e-01
1.228621851902533257e-01
2.026444186533556679e-01
1.520596124295281182e-01
1.849723372586605796e-01
1.319294992716380788e-01
1.479291247840327228e-01
1.288889220150740977e-01
1.519639823732628625e-01
1.294230773731455675e-01
2.000123529791336674e-01
9.592893332930665928e-02
1.764953891630705873e-01
8.658866487795351119e-02
1.327723762280026976e-01
9.170082516730024280e-02
9.469774032856539958e-02
7.737625353999780242e-02
1.025056085848117943e-01
7.799315978346792189e-02
1.117832815854323536e-01
8.762318511636471574e-02
9.702385873277817596e-02
4.214280429958651430e-02
1.045967609969861434e-01
1.182744157984176037e-01
4.659199315793905588e-02
6.045048292378233518e-02
7.428612473324186505e-02
6.685675838418274342e-02
3.963432244228081575e-02
6.681579114594601854e-02
1.942001237784574813e-02
7.068120726398167963e-03
5.620704688772064361e-03
-3.017089580364501478e-02
3.557121844399433602e-02
3.337426982267269193e-02
-9.222593599990631247e-03
1.332199837060202979e-02
1.632434913800905746e-02
-2.049511708321958420e-02
-1.708812296803991632e-03
-3.971933773958082059e-03
-3.785602451575856287e-02
7.679723448954696441e-02
6.385412263252079890e-03
1.944737945527972786e-02
5.216087931616433804e-02
3.563354557938441802e-02
7.054781207984105185e-03
-2.670923195985392892e-02
1.465961842761660805e-04
-2.733771733023593678e-02
2.908713229882956344e-02
-1.963178248480240001e-02
-8.081340179614808494e-02
5.765664695001684187e-02
-1.624552883979705695e-02
-1.575600898737660599e-03
-6.279377966556136392e-02
3.407764449149558450e-02
-3.048563109316086706e-02
-6.328077741503145004e-03
-2.455925462574821624e-02
-3.878620385930857395e-02
2.881340156579412226e-03
3.463599204372693613e-03
2.774053099430244529e-02
-2.506030254528730794e-02
7.272211627090706398e-03
1.009516880747471368e-02
4.120666574902534518e-02
2.459469071105836735e-02
-2.618625363086687224e-02
-2.867678329644364824e-02
-5.951446212341775233e-04
-5.118022932623055021e-04
5.745302903012795143e-02
6.123566107847323164e-02
4.025041219414144528e-02
5.986723887103825165e-02
3.769210900405941395e-02
-3.416204232590346057e-02
5.197889763546190145e-02
1.290654493611050058e-04
4.827397470121337630e-02
5.139526882903501515e-02
6.028197324513971667e-02
5.662853886134112946e-02
1.203834014950890541e-01
8.240709058659700936e-02
4.447368732266039626e-02
4.424234277034666540e-02
5.046586103209274587e-02
7.133436114066328548e-02
4.489099308562014001e-02
7.352907409034978303e-02
1.753495259393293981e-01
9.593138121414537811e-02
8.206574431384019985e-02
1.743841205645450254e-01
1.034264838914785573e-01
1.413958101244499332e-01
1.161330401325917638e-01
1.317739565863678686e-01
1.280886986873856770e-01
1.374222563522551621e-01
9.648487234086862430e-02
1.027152146848589048e-01
1.188418209527151020e-01
1.309531458759699840e-01
1.454094127636377798e-01
1.337172712521383366e-01
1.676596668093894293e-01
1.488701458392506505e-01
1.329313367478424379e-01
1.233722726946915593e-01
1.196541510297548239e-01
2.066542770681916719e-01
2.042637458437743803e-01
1.690505818272890759e-01
1.697211778119727676e-01
1.818215572593341323e-01
1.946068535851955827e-01
1.961767750876413918e-01
2.341591125644090776e-01
3.194520316843342811e-01
2.705229176010156555e-01
3.679456651265514688e-01
3.590529262584234993e-01
4.860837791508078598e-01
5.091346201372960456e-01
5.789272952834775277e-01
5.968566373286569027e-01
6.109110023505325282e-01
6.708201416228420921e-01
7.258876398307920752e-01
8.282547305032548213e-01
9.040022372932431383e-01
9.223188228088898821e-01
9.102305139578098503e-01
9.685614909975728271e-01
1.041202436407932863e+00
1.026916804520025428e+00
1.044089359673340045e+00
1.039367140543376644e+00
9.989549287911179132e-01
9.556218782221130859e-01
9.515555524330296944e-01
9.073435420001496610e-01
8.363241535492623724e-01
7.797169638505891953e-01
8.347250182276563235e-01
7.218064094956307963e-01
6.581449544055235634e-01
5.401870151010924603e-01
5.074700921177213164e-01
4.658188124781345585e-01
4.009136509986824248e-01
3.607434573951255885e-01
3.183473786144822570e-01
3.142617663988301335e-01
2.730450707054719039e-01
2.804183627304899784e-01
2.289494399568893779e-01
2.006182102663514877e-01
1.727975382439393137e-01
1.148752286802176836e-01
1.896365205951012489e-01
1.890604437302137175e-01
1.104646361169165786e-01
1.647428036933760165e-01
1.495811536413297060e-01
1.724138654292305672e-01
1.341510803596461243e-01
1.834180949444713660e-01
1.345004313780945315e-01
1.810743224304295906e-01
1.134194907412210407e-01
1.759192802782719722e-01
1.393341250422712729e-01
1.856504197816165325e-01
2.034721305518679968e-01
1.697321377917977714e-01
1.780229486439642850e-01
1.570235917764831179e-01
2.222418486576527297e-01
1.465389465251024925e-01
2.254206811644504926e-01
2.340696886912273234e-01
1.797322849894874286e-01
2.188273444210924179e-01
2.108716313460207714e-01
1.846627218994772168e-01
2.488760363783026897e-01
2.868962536940654062e-01
2.497195189299089291e-01
2.528034132442201209e-01
1.834655826415669544e-01
2.428359323233517109e-01
2.410997633030939613e-01
2.581895135478060044e-01
2.454452945360575677e-01
2.770307524689018530e-01
3.066637226935008953e-01
2.319859991932404220e-01
2.142166778738114341e-01
3.352407201180248042e-01
2.406462483745955561e-01
2.107106007554841731e-01
2.647317835498356198e-01
2.810763286022172625e-01
2.552694883530687853e-01
2.605130941167352887e-01
2.396261740598042422e-01
2.495737344626243193e-01
2.203400620850024527e-01
2.777849878914009363e-01
2.339120315265689753e-01
2.647472454039110912e-01
2.665559754149598448e-01
2.861437347133559683e-01
1.977723768478367450e-01
2.004426032932042634e-01
2.305546193090859675e-01
1.885444946476119710e-01
1.714820519885945915e-01
2.085707524396853141e-01
2.186678762180424562e-01
1.945146185498678459e-01
2.250334514003045627e-01
1.709499262810518228e-01
2.177260065975205050e-01
1.443487856807766367e-01
1.600958394272879171e-01
1.557669406897637387e-01
1.761452986677916888e-01
2.190115450022544208e-01
1.523758777541737719e-01
1.767749762197126373e-01
1.091184065390409658e-01
1.760304043137314867e-01
1.491445758673272115e-01
2.174978476367602775e-01
9.883266511846511282e-02
1.425810688463589326e-01
7.517771556806232547e-02
1.322320025543788080e-01
9.306882920772131806e-02
8.526922236919844134e-02
8.057623584252186777e-02
1.460790244425417064e-02
8.335786082977768296e-02
8.391686079418685107e-02
6.176716488537366267e-02
6.946642740967758078e-02
8.487508971212975872e-02
8.223836256109601228e-02
1.153719536403929324e-01
8.788652179619274585e-02
3.989147507797384529e-02
3.856188232230469554e-02
1.148131640771805489e-01
9.326631912767104071e-02
7.875818167976859907e-02
-5.299167921365314365e-03
5.766788667621293440e-02
6.633486480259553897e-02
2.647959841432925843e-02
7.202851039042121317e-02
7.224784999294087129e-02
6.729275816931172549e-02
7.220307485936122704e-02
4.730164680322045123e-02
3.613111494349048602e-02
3.793990320533104088e-02
8.707276649554937520e-02
1.086801520221006706e-01
8.214043307706815622e-02
2.869896698144242669e-02
4.754968672119995465e-02
-5.723257817042300827e-03
7.322782240813778543e-02
4.632157638776791819e-02
7.010052210126625771e-02
5.648532913465168642e-02
3.529538682605119770e-02
3.803578976714885179e-02
3.888928507484040037e-02
9.367024726984325700e-02
1.016661515078073549e-02
-2.106134243192718872e-02
4.886316149080544013e-02
1.057347248841933318e-01
5.848062907769978336e-02
8.142048157919540285e-02
5.769420064089450517e-02
3.848862278760925570e-02
7.785417534697455788e-02
3.341904142808781175e-02
4.941966802469965891e-02
5.059769471305139432e-02
1.459577597774388003e-01
1.333774188062569754e-01
9.150617117354167829e-02
1.392500499734027064e-01
1.283697007890281516e-01
9.621214479041922951e-02
1.340356427802990302e-01
1.195172320881890127e-01
1.094486416556198910e-01
9.291589095443775204e-02
1.520035140435089249e-01
9.289996559739832627e-02
1.537423527579828419e-01
1.028729312357774123e-01
1.261040042267007055e-01
1.890166479696384072e-01
1.727513534686823671e-01
1.367783307311967733e-01
1.900807823647222561e-01
9.415583909031602361e-02
1.700543522010481978e-01
1.955809230775319152e-01
1.997514430398243390e-01
1.776948292635789906e-01
1.878175282831951176e-01
2.126958465341552973e-01
1.680586082642623880e-01
1.657646502997782434e-01
2.504444845334310998e-01
1.957858798038475678e-01
1.847730527584432736e-01
1.601929465170659483e-01
1.828235871502630616e-01
1.692510671580796933e-01
1.750911972615557533e-01
1.993404051012932499e-01
1.628703148926987088e-01
1.699916969716126491e-01
1.569310665274450123e-01
2.104175056166917024e-01
2.444297020332870940e-01
2.110684580666324361e-01
2.104035066665687626e-01
2.310503778922777529e-01
2.223193536061335018e-01
2.791194382682107289e-01
2.151180053262547465e-01
1.952447867056492925e-01
3.269293059717193750e-01
3.340525683580320981e-01
3.725154644648106528e-01
3.725353668047977074e-01
4.421289139778554755e-01
5.554383988081941226e-01
5.450651893823290628e-01
6.351331621025825269e-01
6.499147078245984810e-01
7.299963985687915047e-01
7.807485250653949382e-01
8.440785693266956713e-01
8.962498513559663538e-01
9.640024871881236468e-01
9.809757369578063768e-01
9.935347516841367410e-01
9.732444121706345097e-01
1.060623952885318300e+00
1.054387571035020565e+00
1.121517275796929392e+00
1.095527134762883437e+00
1.016633079447657462e+00
1.033397634631358697e+00
9.829020907142731467e-01
9.814458936406074141e-01
9.317099689261686413e-01
8.402557790034785867e-01
7.870791470425015923e-01
7.685352732532089171e-01
7.405135846159650592e-01
6.340601769902546314e-01
5.892448248181134662e-01
4.951308561681868059e-01
4.619069418731953092e-01
4.740061966887968992e-01
3.963874203123244899e-01
4.305198092072667349e-01
3.606380470239590186e-01
2.524148106369590305e-01
2.462190430734731428e-01
2.492084624306831753e-01
2.761279315568502257e-01
2.368156633811450140e-01
2.040177980954145653e-01
2.451182979367537706e-01
1.987808695957627436e-01
1.189676073695482839e-01
2.279394960798993286e-01
2.047543324983522317e-01
1.635418492852645511e-01
1.572579022698271378e-01
2.148269479273030858e-01
2.149994521969786632e-01
1.705060334308104719e-01
2.271224714684443591e-01
2.036058950661402689e-01
2.235508443358150132e-01
2.887296111966194956e-01
2.038139835857187554e-01
2.650112844858860672e-01
2.020993868695094287e-01
2.668333804983588631e-01
2.735851158918655157e-01
2.905624789663346919e-01
2.975547607104654380e-01
2.609040258156176684e-01
2.731414961215463122e-01
2.945297540785162260e-01
3.068565107977230255e-01
2.796196940232524297e-01
3.076854845652353121e-01
2.951437295781674242e-01
2.417557447051746355e-01
3.230458950340023838e-01
2.747714407801103986e-01
2.490601111596310036e-01
3.135898726206019504e-01
2.310243699632197889e-01
3.211938205216725573e-01
2.260908063499589282e-01
3.111695493089815523e-01
2.948478217471597884e-01
2.738250260698436578e-01
2.794209896229997714e-01
2.635705758044726843e-01
3.034663192542011445e-01
2.836059877633357318e-01
2.950117897141941170e-01
2.916296992685996625e-01
2.942624235011110367e-01
2.664880100456111234e-01
2.758000779854200002e-01
2.825086032384490631e-01
2.911104049457231557e-01
3.016215557998568886e-01
2.636221106400075120e-01
2.381925614801124469e-01
3.056415882604521239e-01
2.776894433011500296e-01
2.063177136312531468e-01
2.382727220409286972e-01
3.026275956166568637e-01
3.053918518091229828e-01
2.246132748756171083e-01
2.164117600594412660e-01
2.597269499702071771e-01
1.872067987556385316e-01
2.225244192715316038e-01
2.103232872960338062e-01
2.195769369451074926e-01
1.832937664636314912e-01
1.892990524007241437e-01
1.848103566183706969e-01
1.528562699353591126e-01
2.091269305911091225e-01
1.729792715904402145e-01
1.690910441139203968e-01
1.977696877217413052e-01
1.214410381427914742e-01
2.070830573378674155e-01
1.344022310422511857e-01
1.732884946510620527e-01
1.584026909602820610e-01
1.929354558676775466e-01
1.516979900382316726e-01
1.610172294662675918e-01
6.234377188655219892e-02
1.291311746358371204e-01
1.136640889222053502e-01
9.084671998895622880e-02
8.200636698191871021e-02
6.081597288791022737e-02
1.022894908123078705e-01
6.947807025933833147e-02
1.293597123432384532e-01
1.223998581317446988e-01
1.380006787693368042e-01
6.801273129591853261e-02
3.723020985656042697e-02
7.868961709755284417e-02
7.161082118455568135e-02
7.808318990366036605e-02
9.603008331303136691e-02
5.087489974383495317e-02
1.084284030772718205e-01
4.638203823079836002e-02
4.056023237598066489e-02
5.308716712890849260e-02
7.509183136810576586e-02
1.239178795761371327e-01
1.199407443496167125e-01
6.844101539795655054e-02
4.680674030750857362e-02
7.637206916882652297e-02
5.698821937865169995e-02
2.555159427771420966e-02
7.947534173804712831e-02
3.985428911367432797e-02
8.739842449694687487e-02
1.477980161448794877e-02
3.069760068002465661e-02
5.403925399166437105e-02
7.031899461885132707e-02
7.553942376670055858e-02
8.862906538973439052e-02
8.629524669974394935e-02
7.401291501572854203e-02
6.106640479633656388e-02
6.069734853390984508e-02
6.577205761341886614e-02
7.883131849163908800e-02
8.657069824120172674e-02
8.984976299259186949e-02
1.258417538054487361e-01
9.641534718328292897e-02
1.276003841187199339e-01
9.466231192910300185e-02
1.662163212790833400e-01
1.017100522604918456e-01
1.509562223626356170e-01
1.301254925968294285e-01
9.877216607197722431e-02
9.575339335114790851e-02
1.171252262520875997e-01
1.231058174100986141e-01
7.965866615582506416e-02
1.525803113647327958e-01
1.328917164112213278e-01
1.443413342712414893e-01
1.224564106297016675e-01
1.795236278510758399e-01
1.720143029413714331e-01
1.765913795151038690e-01
1.408081621873659151e-01
1.557165407779492750e-01
2.001669136188730380e-01
1.667125840793532987e-01
1.657246607543831074e-01
1.605160941522667806e-01
1.791130234594295045e-01
2.167772032304411955e-01
2.477354082455334450e-01
1.795341008269852323e-01
2.388379665777829730e-01
2.197169843061266559e-01
1.952717144154529905e-01
2.290961085872485481e-01
2.117189411143395317e-01
1.912132325624096296e-01
1.422171402150740616e-01
2.453183315980156654e-01
1.413999830888201525e-01
2.335449475255687579e-01
2.089024857955933956e-01
2.451891094372667668e-01
2.014444737719472689e-01
2.007108008402005150e-01
2.036769920614805163e-01
1.979035933826333860e-01
2.336717597699379534e-01
1.880554350184512613e-01
1.807163527520831980e-01
2.455692911712752391e-01
3.234614588614934672e-01
3.590125406162827937e-01
3.462653632589354213e-01
3.724609888869119811e-01
3.773423060529531026e-01
4.405105279488718550e-01
4.616784689315975299e-01
5.303027590251815360e-01
5.717257690453551033e-01
6.456922567808389690e-01
6.673431718988916961e-01
7.055701120220003730e-01
9.121877411928913659e-01
8.307147226773811122e-01
9.110339688960747973e-01
8.886169791320502886e-01
1.001216466554830875e+00
1.026027600160104969e+00
1.005106403978272667e+00
1.067402322499971357e+00
1.107957394302083065e+00
1.080627842313540476e+00
1.095815216573157169e+00
1.087246900390903326e+00
1.067515551654413697e+00
1.012524621372934419e+00
9.125219534153048428e-01
8.860098928824526876e-01
8.665221502836862877e-01
8.330700790837021197e-01
7.169872817594322711e-01
6.536148370989625089e-01
6.559550436118319894e-01
5.645324144469370253e-01
5.049790934480619109e-01
4.724717045259346215e-01
4.551069832467875553e-01
4.170160491838911243e-01
3.232959680389342338e-01
2.897881712459355330e-01
2.513015992537739884e-01
2.885466569127753678e-01
2.874513105113473688e-01
2.422848932254154652e-01
2.541628009586179848e-01
2.006895615595077620e-01
2.255554745062387789e-01
1.658653319327446918e-01
2.105209863364931322e-01
2.199890422411154289e-01
2.272122325166084644e-01
2.280492444991901457e-01
1.804994119549903353e-01
2.443672608820985637e-01
2.331263031159145904e-01
1.705945087697424423e-01
2.220498446272713700e-01
2.689737074138702777e-01
2.625863792109994210e-01
1.966665558827551397e-01
2.098143778680319760e-01
2.424707602655953587e-01
1.916403794072105149e-01
1.935514663321522555e-01
2.347572568403560878e-01
2.929468224305765700e-01
2.404430912751994442e-01
2.582724675523826452e-01
2.861785551743860623e-01
2.768230659462304066e-01
2.853744835350640607e-01
2.879190648565829180e-01
2.272845161955996396e-01
2.264869058107658872e-01
2.128568884413468143e-01
3.397437362271286121e-01
3.037452063174068684e-01
2.700435491544782574e-01
2.902335007829927038e-01
2.959415488446879849e-01
3.386915013516074158e-01
2.831755158927061200e-01
2.402638739276061197e-01
2.975530107118491419e-01
2.813835079314872534e-01
3.311019217739802345e-01
2.539150394137432709e-01
2.373857227376346968e-01
3.185330917051278909e-01
2.646076896141232870e-01
2.937668256545900580e-01
2.740150354774712471e-01
2.901259898538799398e-01
3.019981914651629906e-01
2.907916014506207181e-01
2.073052336449494604e-01
2.285295725363753472e-01
2.979961177393711802e-01
2.743130335742965387e-01
2.329410738870998920e-01
2.409232432504183896e-01
2.138699153653085272e-01
2.568052045333656386e-01
2.214567449835056490e-01
2.014977143657325498e-01
2.036250714133316930e-01
2.068192482611200533e-01
1.857004547373347636e-01
1.962158228359756895e-01
1.950668729198234974e-01
1.480233596541416230e-01
1.617884864475123141e-01
2.172164790479046981e-01
1.762624936483442595e-01
2.114308354044261429e-01
1.959704792857118183e-01
2.151787266318492819e-01
1.315850230205841132e-01
1.712315823385038294e-01
1.605506815008621857e-01
1.228710097139297935e-01
1.275272022339268563e-01
1.288269057583796284e-01
1.176065329691501904e-01
1.671963279487738152e-01
1.067509561638476101e-01
1.649434670260098990e-01
1.190064372629679457e-01
1.386176931358673869e-01
1.190177791291978093e-01
6.858489433413847425e-02
1.184192890244626095e-01
8.653571737985484014e-02
9.698070253854021439e-02
6.613692938782428365e-02
3.560514962952567725e-02
7.476781151622145793e-02
1.080804040168285296e-01
1.924054271371992281e-02
1.002610628427277328e-01
3.491481845303508885e-02
1.903344660136557093e-02
9.631212119247652137e-02
3.937194389022875135e-02
8.338491782739199110e-02
4.063196096899740484e-02
1.027542873737284923e-01
2.581408674069464448e-02
6.050077105371681752e-02
1.956436266113249084e-02
6.471214580414186290e-02
7.204167525450301535e-02
4.579414208542076370e-02
6.729723004664213415e-02
2.999522031397539729e-02
4.526334771868108231e-02
4.227546379866423121e-02
-1.689950675785901676e-02
2.778614080647530404e-02
4.175755680442290452e-02
8.384341091032110338e-02
1.571016089823518494e-02
2.989830268734473481e-02
-1.434984459761865991e-02
1.228360119983840266e-02
3.750365657252417717e-02
4.341927194965098519e-03
2.420556340120189748e-03
-2.391440712815851022e-02
-3.049118193012163511e-03
6.510544817624144831e-02
1.182986910763209921e-02
1.408190628790232345e-02
-4.576120102466801898e-03
4.154914692439710955e-02
3.547374765210943581e-02
5.359849949218681298e-02
9.688295152149567491e-02
9.376573015827649460e-02
9.086984979232885784e-02
2.763242250936566446e-02
8.798246508476462169e-02
7.166904156185566199e-02
3.972748166351205978e-02
8.388259932523350892e-02
8.728982881393812510e-02
9.223730467105908937e-02
9.584764843619519858e-02
1.186756028704895050e-01
1.022440893237631099e-01
1.371840931332714564e-01
1.170040778444765284e-01
1.553643587582217434e-01
6.564929346558194545e-02
1.430135803962428453e-01
1.656014622613154741e-01
1.457924361970391602e-01
1.949883990481360574e-01
1.054349670158832297e-01
1.074713267735326189e-01
2.038270748189636994e-01
1.562051329498832519e-01
1.608473207047154407e-01
1.763942054546952243e-01
1.668227261698237152e-01
2.075823569898510856e-01
1.485231599358970700e-01
1.828170020733251300e-01
1.142091382399820082e-01
7.204261014585448819e-02
1.530552847962305674e-01
1.555403733958198031e-01
2.026286387135363409e-01
1.830378762336173082e-01
2.082601522811742822e-01
2.216685219685072816e-01
1.971780027363167487e-01
1.468290949773720933e-01
1.282580889105373045e-01
1.850794475187130528e-01
1.451678735195405245e-01
1.846395945786180603e-01
1.915295149349677262e-01
1.636105103780425840e-01
2.434711221389758984e-01
2.505169545950136634e-01
2.479673825345551086e-01
3.514968036834415499e-01
3.449367509658821662e-01
2.970851436396438339e-01
4.148008389128642892e-01
4.169180650761294959e-01
4.319289612389167754e-01
5.101113516513399171e-01
5.954366517950842042e-01
6.381337562759070714e-01
6.610811420384365977e-01
7.393655468804345432e-01
8.074299120731747159e-01
8.534452825951264199e-01
9.227748791333566514e-01
8.897130629087901532e-01
9.545839009291183785e-01
9.791113462433156389e-01
1.004017911389597950e+00
1.000325344147989126e+00
1.042624335361102439e+00
1.042230828842497292e+00
1.011258510807595989e+00
9.645577081104136363e-01
9.703148586164586087e-01
9.262675470339217787e-01
8.675066718412122180e-01
8.657694405976278373e-01
7.713774535416941802e-01
6.173124485438382658e-01
6.406547040933290305e-01
6.047341805650987556e-01
5.326188673694559617e-01
4.473805221054679149e-01
4.602848118475805772e-01
3.278195338615463861e-01
2.992758633572450977e-01
2.647794750486323623e-01
2.229940971760003554e-01
2.562621512026813098e-01
2.554078878240209627e-01
1.737673270697454864e-01
1.700184644218479812e-01
1.154134546557876312e-01
1.160597324091540705e-01
1.502361356810417159e-01
1.562479892773345758e-01
1.856845252053925810e-01
1.201594389185057510e-01
1.267308934140544963e-01
1.304821332581483639e-01
9.931043790801986904e-02
1.422837576232259260e-01
1.564060619087097037e-01
1.314916116988238126e-01
1.417786584102918856e-01
2.045245136487363891e-01
1.437202917743989616e-01
1.482104297230163459e-01
1.479662784445552326e-01
1.820957924629151292e-01
1.965291745586234540e-01
1.663817445184292421e-01
1.851543779710969340e-01
1.274164945916352043e-01
2.333017312207328331e-01
2.340533997731466254e-01
2.343132186899126723e-01
2.284579597954050911e-01
1.800980213625596460e-01
2.124187881249182119e-01
2.568420464734838538e-01
1.680720446857928430e-01
2.615521949192952111e-01
2.339181853502909914e-01
2.344966373464014708e-01
2.362572101740268160e-01
1.779259945596518011e-01
2.545253204350832466e-01
2.337490224035072839e-01
2.431414559917837726e-01
2.721872750070343239e-01
2.426227962618884848e-01
2.441500800363952117e-01
2.328382386863736830e-01
2.064485178654708319e-01
2.440924351591109986e-01
2.502163491734843426e-01
2.553235799136883144e-01
2.791601256139630283e-01
1.800435374969493185e-01
1.793156830585994344e-01
3.008338057497121354e-01
1.813194803650312603e-01
2.160603439746892618e-01
2.252124249799437039e-01
2.178773139505477130e-01
2.065181873948972457e-01
2.577411162963739177e-01
1.896131177036482485e-01
2.092268828840400385e-01
1.686580614466869910e-01
1.586416227001727075e-01
1.981660198449498589e-01
1.605863712289638534e-01
1.366861665732341247e-01
9.934482537697333915e-02
1.290273444455381502e-01
1.918779661397818914e-01
1.110826259221653206e-01
1.574932048884920555e-01
1.318412429811732511e-01
1.485701555138673746e-01
6.827039983446467342e-02
1.158493973407720701e-01
1.351816713432517636e-01
1.779819088706901531e-01
1.543869963608373863e-01
8.416498239689751415e-02
7.905269937129924540e-02
6.789841029402229888e-02
7.188878222595489198e-02
7.410975780531577073e-02
6.317666379618488981e-02
1.211870618086552803e-01
1.427672696935594621e-02
8.378646813811935212e-02
4.715418077630413596e-02
4.687505053265525468e-02
5.177533278821846996e-02
3.943368864735433132e-02
4.999340036839691054e-02
5.267675830978132967e-03
-8.101243720890778655e-03
1.458840929493827182e-02
1.219316471747421138e-02
-4.399384089018333610e-04
2.251051170703511489e-02
3.884068728034915929e-02
9.656099827613229269e-03
5.612709477204836511e-02
4.429632780058215952e-02
3.454565630371323609e-02
-3.223723549928277088e-02
3.490353315784108790e-03
-3.951488847492869161e-02
-1.929939686898182044e-02
2.584209042884602625e-03
-5.277964060747665498e-02
-7.743757517082588970e-04
-2.242385672815388337e-02
-1.568967293396613880e-02
4.481233333521281864e-02
-3.849791050896550493e-02
-3.095561695341075836e-02
-5.017739445342545013e-02
-1.995082857515437930e-02
3.938733837108363695e-02
-4.214209009589608979e-02
3.348351840053613582e-02
-4.858596808173366172e-02
-2.045163419495645354e-02
-2.083650359085692516e-02
5.125644222360448143e-03
1.269070796143276225e-02
-3.138505649235692752e-03
-5.464312256144438634e-02
-1.046157661301879427e-01
5.353406143904754916e-02
1.443938133707834554e-02
-2.367871965542552373e-02
-6.427810508431541781e-02
-1.166996152092412975e-02
2.324856420624250852e-03
1.716354611913219891e-02
1.417909641398810289e-02
1.229532285187780183e-02
-2.302136073344934752e-02
-1.880675912666118776e-02
4.485995763288658233e-02
1.116098034770204167e-02
-1.563020647949955877e-03
5.819204647371549466e-02
4.747981083487590181e-03
9.500628344091979760e-02
4.477160327405892148e-02
2.888036152115040778e-02
3.143048408700852003e-02
-4.683143447144072491e-04
4.741499701836531661e-02
5.946153922625244809e-02
6.865193725877702380e-02
7.140972388857499964e-02
1.741299046422398744e-01
6.998652452474560248e-02
7.437221221522578862e-03
7.919547615089261861e-02
1.540755571372920685e-01
3.547900458525502648e-02
8.218845918979593435e-02
8.332667008997285407e-02
1.378593712219985390e-01
1.315333638092945345e-01
7.527214787730487910e-02
9.555256892831009985e-02
1.127583320471406414e-01
4.758624842617195649e-02
1.362972479439972240e-01
9.421245282016985079e-02
1.434204591784304095e-01
1.253151696130568316e-01
1.162323038976396244e-01
1.661715733274155560e-01
1.090661786137241823e-01
1.045163400101626755e-01
1.310610899998354839e-01
1.504818448684728804e-01
1.436575011600561558e-01
1.345301864697760197e-01
1.370843898517296044e-01
1.300413255184068306e-01
1.310233230442408858e-01
1.000560115864734950e-01
1.893244808894257725e-01
1.658152368894611484e-01
1.529512631201630779e-01
1.903735908229221008e-01
2.061988443312843255e-01
2.187657851241223417e-01
3.076903989302408049e-01
4.421050790299256850e-01
4.300258704052645209e-01
4.455008629428487410e-01
5.246494462423081373e-01
5.549354174861368394e-01
6.668057225339726335e-01
6.959521273178544964e-01
6.925080571754738124e-01
7.747824027983559736e-01
8.779198171305525600e-01
9.340992880856038294e-01
9.206792458129573475e-01
9.646372240318746849e-01
9.438884375691992679e-01
1.011344222730988118e+00
9.649931104044267016e-01
9.281912624502475229e-01
9.893484333383213425e-01
9.101040160676241442e-01
9.441142401392594863e-01
8.278932250755798306e-01
7.956322274318106125e-01
7.867657129515323033e-01
7.086796931078518380e-01
6.522819768298947496e-01
6.189981808683255871e-01
4.991335187897887327e-01
4.635188569143389170e-01
4.361026448209184281e-01
3.935550989193598026e-01
2.874876653848410513e-01
2.754247453051287819e-01
2.333866329207564816e-01
1.633228195838300756e-01
1.554894882599759109e-01
1.995001442940923242e-01
2.246031718654066811e-01
1.050543301202213897e-01
9.280014424147170482e-02
1.242769670832493678e-01
8.484796305311692599e-02
1.145160285922602328e-01
8.395233634917229071e-02
1.144112894888465459e-01
1.275812200751873515e-01
1.038777912588735725e-01
6.963517548292730286e-02
1.387629653967103471e-01
9.187276457978699185e-02
1.290931311961884542e-01
7.937651539404572132e-02
1.251696724182617959e-01
9.358464832852771143e-02
1.832554798336709367e-01
1.252140163043540810e-01
8.315489306385934198e-02
1.937181462551255118e-01
1.775675025658220163e-01
2.084647451050117839e-01
1.620933306177271549e-01
1.422599569481081683e-01
1.647754885867900032e-01
1.794046224396684264e-01
1.549490561758183615e-01
1.758642016686134957e-01
1.304656952861308339e-01
2.473109310321331411e-01
1.886622711115887030e-01
2.158445025745465429e-01
2.224796937549753939e-01
2.078760006447969988e-01
2.006685270603727478e-01
1.448439235715333062e-01
2.237471510611777903e-01
1.694582411554766133e-01
2.153122603482542918e-01
1.994330014056597822e-01
2.197140005874493873e-01
2.227881577491120368e-01
1.604154560419892572e-01
1.976734211092853744e-01
2.142706512254568540e-01
2.285499908124773993e-01
2.182366966343659564e-01
1.349087849571443676e-01
1.801550533112211139e-01
2.053101428673562157e-01
2.017229450215303754e-01
1.692343124411181954e-01
1.720727810607053099e-01
1.481580368086550248e-01
1.280810365771034853e-01
1.947964294700677557e-01
1.629863060433831556e-01
1.677274682148093277e-01
1.669527063515470200e-01
1.529753942144699841e-01
2.024586540039932936e-01
1.186861480324068602e-01
1.415356210243859658e-01
1.333973091624532648e-01
1.152041741242118417e-01
1.941769330761189682e-01
9.402526265557639706e-02
1.283128320067789541e-01
1.008295571606559471e-01
9.866882951191872919e-02
5.439751926338955851e-02
1.235605052814695570e-01
1.131020272808992977e-01
9.458387613730866172e-02
1.170422513131006426e-01
1.012532920419229460e-01
4.360740000446797215e-02
7.141237644838652199e-02
3.925858360450227430e-02
4.886840392259612920e-02
6.923092464755656317e-02
5.305779751335842204e-02
9.200104848105897237e-02
1.262968145749424898e-01
-1.049928524384500378e-02
4.283265412315152842e-02
-1.247296679941424513e-02
6.284614809386078471e-02
2.658494027395275072e-02
-2.378951725272296369e-02
4.919562703029424500e-02
2.569511039491064602e-02
-1.652494460888267319e-02
2.940632182679016327e-03
-1.886064347828853363e-02
2.056536664958229232e-02
-1.033785909992176316e-02
-3.252252855928483566e-02
7.014304423786522913e-02
-2.877451023651970627e-02
6.093734117940063921e-03
-8.538185386716615199e-02
-1.410964655233343940e-02
-2.809545004784845534e-02
-2.443359935514639522e-02
-2.043232869339483768e-02
-3.272229692220238184e-02
-1.061489757788951216e-02
-1.037288311074977681e-02
-2.736267870385602693e-02
-1.146455209530941599e-02
1.582784833491725218e-02
-8.100086138971161753e-02
-2.603671617511554848e-02
-2.048297624954328530e-02
1.263492810815061707e-02
-5.188322721380059233e-02
-6.309282141179989312e-02
-2.952044954370466184e-02
-5.941601418768127640e-02
-2.797674120397009370e-02
-1.181873961942742080e-02
8.230887667955974485e-03
-3.446145591670874558e-02
-4.847436142858214947e-02
2.057971195154863209e-02
7.606977415432598921e-03
-7.057959859239106015e-03
2.140009467424305867e-03
1.447015630583468881e-02
-4.355213686193489669e-02
-5.038549282874940638e-02
2.821182663820592795e-02
2.254741432973945969e-02
1.194506700521572734e-02
3.100903935627137564e-02
8.791007896503819086e-03
4.215241064972784224e-02
2.991910326302380657e-02
6.859422429654482567e-04
4.460577450323199855e-02
3.128622756627798263e-02
6.041417664861425257e-02
2.654874010622755576e-02
6.108833042293751459e-02
4.943780571103780636e-02
1.029373257689780163e-01
6.099408906238508454e-02
2.637059636462142642e-02
3.759019827742041825e-02
9.676480103088291873e-02
8.216636688714873404e-02
6.896368797114035831e-02
5.503726657716401932e-02
8.007406200042740951e-02
5.171396405699909410e-02
1.018698419543040412e-01
1.284861818873963002e-01
8.275363008385180907e-02
1.118232533986401323e-01
1.268117820508329607e-01
7.549471807061985951e-02
1.051867223836759901e-01
7.679070291614235877e-02
1.651975230160414587e-01
9.732658035899849347e-02
1.106362466173857889e-01
1.250755227429014016e-01
1.119626909076693183e-01
8.943917048218988364e-02
9.569734351197248245e-02
1.608186320320116325e-01
1.442400147149190959e-01
1.244599535835364534e-01
4.385072367786566755e-02
7.768124520196981186e-02
1.133205272097107530e-01
1.240306746071066502e-01
1.404616962949643277e-01
9.647202315317175703e-02
1.319951697532876222e-01
1.623874861513422141e-01
1.906511495451529148e-01
2.376265638919704826e-01
2.188974198325420450e-01
2.888382381977657731e-01
2.613960524324478452e-01
3.582290711726734411e-01
3.904532036806044881e-01
4.194840927393804764e-01
5.422223404152863857e-01
5.753783936327944160e-01
6.313423396711769220e-01
6.611263983663260291e-01
7.227308674451741188e-01
7.927080339148308008e-01
8.997596901675167791e-01
8.160975550651220489e-01
9.085019394609544774e-01
9.499982587874833406e-01
9.416084660532519912e-01
9.897536210108590637e-01
9.879708736551792159e-01
1.019488813060134058e+00
9.746793356331008296e-01
9.773630827446819769e-01
9.641034170711750839e-01
9.421923161530432189e-01
8.586207439355776350e-01
8.191414723277543608e-01
7.627309976068360475e-01
6.738949134012324205e-01
6.440712322155416336e-01
6.287599168313395825e-01
5.414557757846915065e-01
4.578023934448346433e-01
4.086981738859596369e-01
3.778508641923354894e-01
3.367336603391096195e-01
2.877799499525546256e-01
2.850533619886134740e-01
2.726780191324697511e-01
1.647521427480477529e-01
1.761197049948559634e-01
1.764817515929492098e-01
1.637871118379722879e-01
1.124344200334978783e-01
1.148290931805468346e-01
1.161899169598326342e-01
8.024312835294286628e-02
1.313583697515787185e-01
1.347326311575975932e-01
1.772495904446043102e-01
1.377934429370013536e-01
1.443195951957521594e-01
1.156171184750985348e-01
9.829794291258787953e-02
1.296899980377521355e-01
1.371282690597364073e-01
1.387511046539986470e-01
1.780430870322432524e-01
1.212727957206756607e-01
1.862753254454611873e-01
1.703829338352180200e-01
1.561619291163421075e-01
1.314475501113436251e-01
1.727690772406744457e-01
2.587805876309653419e-01
1.388668480013490469e-01
1.886424914589299173e-01
1.750678411211143426e-01
1.940507035305021333e-01
1.874260538092210326e-01
1.954004218222924194e-01
2.014930874026305552e-01
2.255842683997389408e-01
2.210583167443114505e-01
2.123500337663717374e-01
1.894172229005965102e-01
1.996192543424483434e-01
2.791875347329496604e-01
2.294532632151671248e-01
1.902617308281999986e-01
2.559435333365464027e-01
2.392911160892929601e-01
1.447458964673677129e-01
2.834608132434500161e-01
2.286619724692161570e-01
2.128995869693696141e-01
2.481481567708576641e-01
1.488874499633947579e-01
2.559525579740374868e-01
2.404872883616495649e-01
2.479571583898237119e-01
2.238879275293925719e-01
2.003295625979764627e-01
2.101391555124727528e-01
2.168532975358890003e-01
1.619153781049287588e-01
2.534842480273630239e-01
1.957161185193672659e-01
1.980444374700947863e-01
1.580833757973352793e-01
2.056517312003993680e-01
1.807682200731538513e-01
1.771594738300043270e-01
1.812880171489674730e-01
1.491448704534958924e-01
1.437927630945378954e-01
1.309443253088364290e-01
1.375540349755946246e-01
1.762906150161024643e-01
9.107463881852563559e-02
1.199941584826640789e-01
1.305664000668089464e-01
1.697816406179693538e-01
1.499729647337041949e-01
1.321874032286073919e-01
9.569372057785366370e-02
1.568040372852598507e-01
1.551805299597656951e-01
1.296422858150803603e-01
1.188983111867068232e-01
6.793226949043845719e-02
7.177627917602164009e-02
1.416358564215575433e-01
6.117409452167945488e-02
8.053622412655569995e-02
8.131222493037544574e-02
7.178977084691905153e-02
6.817375131789921161e-02
1.341614891005944166e-01
3.058902954279498279e-02
3.792135858599574721e-02
1.262707890932914800e-01
6.113500385698371342e-02
2.572332325965160857e-02
3.827378641305809182e-02
6.075943953019259658e-02
1.681638630385486055e-02
1.506710265970091084e-02
-3.660419604061554422e-02
5.729357738859391924e-02
2.765648314654381434e-02
1.398518354953323835e-02
-1.977354584482412733e-03
2.704017662451066104e-02
1.409280870029504598e-02
6.003857331383710000e-02
4.825576250739133100e-02
2.488346393205282184e-02
5.425473335345284975e-02
7.990159712086625232e-02
2.293262164596799810e-02
7.299231371377629118e-02
7.123720343978524536e-03
-4.248497479296046812e-03
-9.449810330856733831e-03
2.261277549325718672e-02
8.480872297275022717e-03
4.011887598897346391e-02
1.717640466469435440e-02
2.047360910668342623e-02
1.040397839366389784e-02
2.654673020262492134e-02
2.483778305369740980e-02
2.381285299519015838e-02
3.413893706443868123e-03
5.797058718219896822e-02
4.018308133249916952e-02
3.230820849168777181e-02
3.894882103248433619e-02
1.044097521225728457e-02
3.717129225288522826e-02
-2.088945180287210199e-02
3.270629292801413568e-02
3.899666143785066735e-02
5.540784933020673902e-02
6.929710938996151703e-02
7.022430489298810141e-02
4.211478262797085925e-02
7.936523830260096279e-02
5.145406418690576938e-02
7.288824659986481436e-02
7.059965699254680538e-02
9.204587613444262240e-02
1.043981400467839243e-01
7.010182334658592029e-02
6.171207749519141972e-02
1.313183423995068766e-01
9.805912146192813372e-02
9.100375336678451221e-02
8.957264527831497458e-02
1.204328977820787322e-01
9.838945873286919497e-02
1.285059079281963834e-01
1.390658322379872691e-01
1.375277189695708058e-01
1.432487594306620926e-01
1.159683232273631265e-01
1.059694028688961953e-01
1.346080463404290273e-01
1.653699969798431701e-01
1.690005981398692014e-01
1.299902448513195197e-01
1.794767217018324867e-01
1.329442977251202307e-01
1.269766899419031980e-01
1.318301513830573979e-01
2.029630689429916812e-01
1.546493063064311169e-01
1.792722782567903184e-01
1.677630690464395891e-01
1.770373516157059124e-01
1.382359029128024663e-01
1.020268695854012059e-01
1.553431639152711985e-01
1.540517647707413396e-01
1.974060029224355972e-01
1.503104935844804257e-01
2.216192146402343743e-01
1.471827251594680919e-01
1.696471982931772315e-01
1.801856350716855848e-01
1.735676643427917221e-01
1.917835943599359994e-01
1.981922899950850081e-01
2.781301508338547834e-01
2.731411607405382913e-01
2.444079766825524302e-01
3.019190068783238479e-01
3.954971050029841839e-01
3.802816184860489113e-01
4.228522359930454999e-01
4.812873966358389710e-01
5.393855966196823282e-01
6.084597193531264825e-01
6.648605378992691328e-01
7.371011264474848224e-01
7.589725596000082009e-01
8.440536170200041433e-01
8.184846556667875195e-01
9.291979697765848645e-01
9.476733491249770269e-01
9.482956440555131428e-01
1.022712346237387049e+00
1.060290223138476762e+00
1.040493059825829958e+00
1.083218590131384884e+00
1.086026229853074065e+00
1.010457723809280894e+00
9.611159954172358022e-01
9.611013651340828412e-01
8.979110815544590896e-01
8.832506256267140810e-01
8.700481506640750373e-01
7.458963152169646449e-01
6.731259409109608960e-01
6.598055343500788261e-01
5.918443356009450707e-01
4.942481781284222553e-01
4.336609275342473979e-01
4.133869442670660144e-01
3.842600161085922283e-01
3.532565262711704346e-01
3.226975166227223357e-01
2.455654530531694024e-01
2.499473999133634827e-01
2.295170167033895314e-01
2.119570106755507832e-01
2.394983287291632401e-01
2.094530090135569844e-01
1.780802173806489141e-01
1.779819844946465279e-01
1.604383977520094096e-01
1.408367536362550854e-01
1.730721721945698843e-01
1.674690823515162519e-01
2.124363321571768881e-01
2.140071117285304858e-01
1.616280999327098788e-01
1.660248897859165074e-01
1.757477874008420982e-01
1.812266044053854330e-01
2.146850313074335492e-01
2.464049971103013381e-01
2.486614045448454213e-01
2.426104672093133130e-01
2.350622668090866507e-01
2.600694443266692302e-01
2.716615085086597214e-01
1.933335563285739633e-01
1.981209537837534396e-01
2.473092179048577699e-01
2.403903837647779207e-01
2.306146187908538203e-01
2.322259176471510311e-01
2.621139123756087153e-01
2.553029803742824511e-01
2.487480655818209430e-01
2.598369689527448290e-01
2.152676610388095102e-01
2.689881967722787537e-01
2.794058019021544714e-01
2.654481544486612665e-01
2.496481627224363398e-01
2.473418942804585519e-01
2.858417037359765600e-01
2.756245517596700445e-01
2.666657942657276736e-01
2.589199153981674439e-01
2.872996164261987229e-01
2.429978031709172925e-01
3.461578180999181908e-01
2.830907432713686278e-01
2.813886516936096593e-01
2.540849492235270346e-01
3.295680811244885433e-01
2.436296315413668534e-01
2.511570396939761807e-01
2.570338632877678942e-01
3.012149294682952561e-01
2.900148054291576405e-01
2.724293484035599233e-01
2.562441845585446965e-01
2.344140215001130345e-01
2.341698086452063676e-01
2.659866074931146462e-01
2.651721403842441926e-01
2.355392154553107020e-01
2.561179214356407718e-01
2.665081917584447568e-01
1.910395026325802381e-01
2.577305153960491868e-01
2.198558149992709265e-01
2.062920699982611072e-01
2.206682968564897540e-01
2.638550396640504947e-01
2.054439192978956552e-01
1.735940570371864167e-01
1.994946711643121040e-01
1.461136353331874416e-01
1.848407942001672744e-01
1.692051268674310271e-01
1.423962361929626830e-01
1.788621810985021598e-01
1.573650642943847655e-01
1.300081169852589924e-01
1.337911992141714024e-01
1.718832755874476481e-01
1.481498885718521008e-01
1.058158223941432219e-01
1.349057004176560937e-01
7.910034698881750204e-02
1.130839427790934215e-01
7.738928598000519021e-02
1.506391491665589888e-01
9.141133776428155000e-02
9.219609366842065890e-02
1.538739926832164429e-01
1.051697397195829331e-01
1.179758051732207880e-01
9.478738190246507878e-02
5.313168240644235152e-02
4.359151131562286063e-02
1.151974135843759905e-01
4.699149657740592928e-02
2.876630008049641668e-02
3.829741688131237803e-02
6.190382491707888124e-02
8.282946636271626417e-02
6.880086511885709355e-02
7.647040845009876742e-02
4.778445285458075148e-02
4.769911876014076846e-02
1.118893381501331052e-01
7.154545317931317039e-02
6.146487505894869530e-02
7.846365482359583809e-02
3.717578097335882958e-02
3.573361859233783328e-02
6.464327403062336552e-02
9.045182433982240644e-02
8.198116913760475355e-03
5.314188587321785895e-02
4.979036030999680479e-02
7.201456856410395901e-02
8.513551908730460083e-02
8.877956723447739951e-02
4.557780399969284246e-03
1.038650134102039740e-01
3.613437919495521289e-02
1.606535492403775994e-02
5.990810124062623948e-02
3.970587334664520129e-02
7.547975477688723123e-02
7.958019268741119145e-02
6.516303750392929417e-02
9.076954495121491995e-02
7.684783263250991037e-02
7.076543389339726153e-02
1.038687131281546550e-01
9.126784840696476608e-02
1.045975177479969709e-01
1.254089648944389790e-01
1.060569774389925335e-01
1.121849300526570614e-01
1.630747931378260795e-01
1.882747344468818917e-01
1.170161157280166647e-01
9.508081948690565166e-02
1.000479829193097331e-01
9.727620108829121426e-02
1.539665619581800371e-01
1.037271110330476587e-01
1.852099221176844168e-01
1.199270931894879655e-01
1.389880006484854325e-01
1.567584603222985096e-01
1.731713795092170161e-01
1.812263738982333450e-01
1.804715891799519856e-01
1.298351467229839074e-01
2.004914555702681511e-01
2.120118992079869091e-01
1.776266918012738838e-01
1.816257191650885172e-01
2.162453136109916130e-01
2.012108194534811267e-01
2.147300476019807502e-01
1.784457446022806038e-01
1.625857255893926046e-01
2.284270282412561581e-01
2.234103063474240092e-01
2.192555540487401977e-01
1.904427836454670175e-01
2.190542540746165667e-01
2.095701541290523329e-01
2.378254580242067373e-01
1.936403162412674295e-01
1.810175665822957025e-01
2.016802562982092650e-01
2.110500492008157980e-01
1.926751641733462084e-01
2.192241020958529962e-01
1.981529962602149864e-01
2.410677056270046359e-01
2.349942058832798220e-01
1.771172472576533763e-01
1.935463512565435973e-01
2.343884384757464467e-01
2.870160682247930306e-01
2.993703256469196772e-01
3.834101849654663052e-01
3.758517035479933543e-01
3.714004576949172520e-01
4.169663771765647620e-01
3.716174576878845670e-01
4.598633969060548776e-01
4.906145742467504789e-01
6.323880223292703828e-01
6.435781960313555761e-01
7.142375157074289937e-01
7.257026036712268535e-01
7.959561153569860714e-01
8.522695913846114468e-01
9.529876793294207449e-01
1.010013782424623585e+00
9.729575588090796368e-01
1.076298979720144766e+00
1.046022833045897382e+00
1.134352677557362910e+00
1.091757793666350729e+00
1.116708266568078090e+00
1.056324636006009898e+00
1.030644162479439352e+00
1.018271706027208179e+00
9.470835699931710039e-01
9.233747754659802354e-01
8.465547905782961902e-01
8.557730125127915866e-01
8.279739854903750418e-01
7.545521682535423214e-01
6.836388274716901359e-01
6.752230907837400986e-01
5.381766915428105591e-01
5.205924635109410170e-01
4.583875912980772127e-01
4.086827439738481837e-01
3.707739440503762807e-01
3.199212090113032758e-01
2.997082183215901141e-01
2.937698395205068369e-01
2.264931141958625438e-01
2.863154849643040345e-01
2.354637798218653932e-01
2.265401259437341830e-01
2.303327086940856472e-01
2.222287868315696302e-01
2.006784538506098947e-01
1.944444706322795424e-01
2.032508750450850443e-01
2.149753840477862665e-01
1.620175583034433042e-01
2.381405245413503458e-01
2.280151779846438798e-01
1.587704100670817020e-01
2.118028110705630629e-01
2.428383577805245386e-01
2.536714855788229084e-01
2.258763862854261117e-01
2.524523009019316588e-01
2.277153792235288854e-01
2.775857266351298147e-01
2.896795288638118748e-01
2.793212591530993549e-01
2.676086364006441398e-01
2.894743367325884886e-01
2.464538541593020715e-01
1.979818908974158298e-01
2.976680566035020958e-01
2.775030731843882714e-01
2.737401494155022874e-01
2.827658564985887635e-01
2.570963698881544857e-01
2.340699483112421986e-01
2.850979472537246151e-01
3.006205522854297207e-01
3.384205915459155278e-01
3.115612654836076856e-01
3.038141860952816020e-01
2.913950877851969601e-01
2.912092926199774112e-01
3.122237106224162173e-01
3.631291095302456307e-01
3.083344894116215040e-01
3.309729678427538735e-01
2.800881728577905294e-01
3.292577434382696899e-01
2.683454505122183642e-01
2.995704186710659300e-01
3.225561442040205118e-01
2.725056070970937050e-01
2.996985208601813944e-01
2.508811901201597472e-01
2.753597595542629506e-01
2.474608192816194485e-01
2.406163562600865946e-01
3.021426584771444990e-01
2.252134275876867819e-01
2.854089889562301252e-01
2.751405005257345215e-01
2.369514512748701063e-01
2.966139483787896269e-01
2.735495004279195896e-01
2.398508342840915686e-01
2.187236956650350783e-01
2.843305528049059339e-01
2.674309544806571237e-01
2.515581455057616656e-01
1.945874207922275168e-01
2.270775124787133281e-01
1.835748910087802721e-01
2.099794017905864396e-01
2.139823838877249751e-01
2.484541037738457747e-01
1.874341930459540451e-01
1.645555338888052554e-01
1.871076347013313490e-01
1.753743130783575466e-01
2.322172739995317647e-01
2.265432681916925983e-01
2.036637375057799015e-01
1.743827217171828592e-01
1.031128493677147678e-01
1.240303743131164066e-01
1.455924245763565161e-01
1.585782758639632251e-01
1.579649836020606268e-01
1.661691751226521130e-01
1.652659286417826334e-01
4.986114647655462417e-02
1.142473994316565572e-01
1.213098891527184253e-01
1.203576943912588737e-01
9.388749361149692496e-02
8.493647939750981202e-02
3.581648086036191142e-02
1.125436733166528258e-01
6.406916883720770173e-02
4.685575175084729510e-02
8.093726228822914481e-02
1.054708539354866359e-01
6.211734337116656818e-02
5.323277049002052286e-02
1.138577384718055530e-01
9.338975151038397815e-02
3.227100012953723618e-02
5.054755498463880947e-02
1.071337374944356380e-01
6.512410065395805858e-02
8.503162142771907017e-02
4.955040609162596893e-02
6.168763659874416244e-02
9.144982145610203172e-02
5.706999120314942830e-02
3.029387633904765884e-02
3.933527859683809413e-02
8.901018174389457860e-02
7.399073526968190373e-02
4.222384956308513487e-02
1.379455373521820405e-01
7.758761195660426879e-02
6.890854031743573471e-02
2.830074613856767285e-02
2.969155685991052909e-02
4.766019910864327525e-02
8.037809323841368925e-02
9.075795779124376517e-02
3.267715153513768567e-02
-7.659028245867671725e-03
8.395043571763582957e-02
7.200417390677887886e-02
3.010721056886828464e-02
1.381636077755170611e-01
7.774662498266909916e-02
1.121416024665973510e-01
9.688839029864429464e-02
4.574072355380986998e-03
7.199679903452901875e-02
9.894027432000923605e-02
8.956018906446996941e-02
8.971437250955628662e-02
1.165810077134424305e-01
8.189271243854071014e-02
1.394526277316171237e-01
1.148180250223777010e-01
1.178827036705936276e-01
9.478633165936109495e-02
1.116520786691646006e-01
1.452697735435931337e-01
8.567640739412854534e-02
9.037187661448181641e-02
1.204857978958259468e-01
1.242620920078048585e-01
1.436531379575277101e-01
1.896866783162067249e-01
1.074861689527935871e-01
1.952509115541067874e-01
1.798025106534259787e-01
1.695684598730763382e-01
1.444165845959635708e-01
2.163632280298648514e-01
1.500522358445082749e-01
1.691501571128655179e-01
1.267140969183921939e-01
1.164307789492684680e-01
2.521029429609455974e-01
2.470643369772039799e-01
2.031329957448966272e-01
1.509706432891362582e-01
1.671700284561926930e-01
2.128649891599813382e-01
1.753202734104010729e-01
2.026507160611805414e-01
1.748926178099681761e-01
1.851768888264950508e-01
2.104736439259418113e-01
2.266638384432466125e-01
1.574897965601430583e-01
1.743896737042026357e-01
1.882777748712722854e-01
2.110981602122284084e-01
2.170860335075082137e-01
2.468606925444406242e-01
2.341339831106686309e-01
2.604817955929419893e-01
2.698329051061977291e-01
3.067534230742254286e-01
3.016338690782661147e-01
3.531266510464882713e-01
4.336618260469595754e-01
4.252056940550948405e-01
4.698199991772843975e-01
4.651025753973455079e-01
6.116109267390867910e-01
6.336487434976422195e-01
6.846129500071743701e-01
8.097586831367725724e-01
7.275242491603508554e-01
7.670791909833739597e-01
9.308749360006092211e-01
9.629018211812169215e-01
9.652840760083912786e-01
1.034933814112414696e+00
1.027646228361752234e+00
9.819282091595142870e-01
1.066185417514235123e+00
1.131116950365880225e+00
1.037877885823594637e+00
9.992682306235489698e-01
1.004954528280066262e+00
9.782217621617596004e-01
9.079617453564997609e-01
8.465080378999153554e-01
7.748986867043691218e-01
7.351899926987334188e-01
6.927827325402292624e-01
6.643358659145054412e-01
6.007859246900562056e-01
5.111368377929604856e-01
4.649451309928770981e-01
4.420999760559003455e-01
3.736883600087052559e-01
3.738737307516126207e-01
2.563302335360461703e-01
2.954006029562963320e-01
2.445311654002024770e-01
2.637590808503058049e-01
2.406653155700095581e-01
2.122541961264418631e-01
1.326934359531484475e-01
1.350985144435910001e-01
1.421353935010105651e-01
1.611684478320396241e-01
1.484519234845139146e-01
1.274033187717119042e-01
1.556568608926584552e-01
1.684285880338677877e-01
1.536185601260635636e-01
1.566808574041864688e-01
1.870718157669224169e-01
2.089798500846125895e-01
1.697398429599042136e-01
1.532272801730155953e-01
1.990852295735207611e-01
2.239725882710962290e-01
2.166433147337167853e-01
1.755847848489221485e-01
1.594176093286602258e-01
2.723582466719555173e-01
2.041196855672270938e-01
2.250716608154333942e-01
2.711914715432324763e-01
3.040206542839687387e-01
2.308552733436179949e-01
2.199343413168509120e-01
2.225581610551756739e-01
1.628872849945380841e-01
2.851475570651759162e-01
2.335871180970394978e-01
2.278798801081525771e-01
2.706380748285380777e-01
2.744312476018134217e-01
3.338108437725546551e-01
1.763793367069852458e-01
2.896504407851090979e-01
2.035934863151447616e-01
2.432672243002308998e-01
2.410553218256986652e-01
3.149706741644550667e-01
2.536506666830997681e-01
2.599463675392790218e-01
2.756529012304667625e-01
2.555717862267035123e-01
2.990650769756026395e-01
2.185021011775651334e-01
2.374742030306169482e-01
2.411343906704583040e-01
2.723342554928069870e-01
2.151386541051873991e-01
2.514092780889495282e-01
2.589752220282746653e-01
1.942971668461487000e-01
1.803452992473961736e-01
1.539649326835380305e-01
2.016327860379306114e-01
2.547080911163632777e-01
1.867706904530531953e-01
2.404985853999155043e-01
1.659154239883102733e-01
1.361662199115642458e-01
1.849017036247215806e-01
1.720528154557127987e-01
2.609662771005727966e-01
2.401113865249040469e-01
2.108677233242045590e-01
1.341838509615702890e-01
1.743595646585733572e-01
1.746124176415281559e-01
2.457793338696810659e-01
1.720014470411273255e-01
1.199301410789521682e-01
1.474807650306400320e-01
9.625688054511313818e-02
1.758432172764435863e-01
8.173696100830102340e-02
1.198465945529024884e-01
1.186434942257639236e-01
7.844976110032951533e-02
9.241024664032955471e-02
5.973041400185116756e-02
7.446714930819822720e-02
5.153056254970132116e-02
5.903091859678203518e-02
1.372201450471333475e-02
1.083825717183148768e-01
8.126681115437401140e-03
4.075754423255323333e-02
3.579864931090284003e-02
6.712811613025794488e-02
2.992075504967212085e-02
7.602753781992313553e-02
6.955675819926064249e-03
8.584998400973588295e-02
7.717831573796131439e-02
3.284267775727385541e-02
7.831235765468042009e-02
2.028890757547753207e-02
-1.099182636018168624e-02
1.662328728592665436e-02
2.173224661511619429e-02
3.618639056079989841e-02
4.355359560741120517e-02
5.354012094943495087e-02
-9.073889769599743221e-03
7.846075017870333956e-02
4.751446241272513221e-02
2.304728227426566106e-02
2.459097049202207605e-02
3.176906038258608261e-03
-2.505805981111822178e-02
7.451692745431262588e-02
1.286265011995966004e-02
1.244160221909065139e-02
2.924245351497556378e-02
-7.035210002829361819e-03
-1.798016323524777998e-02
-2.806507940999155432e-02
2.460905311375446991e-02
2.237187525722614256e-02
-1.502685526811247535e-02
-2.810173159969557577e-02
3.291538474658713825e-02
1.445453565913772630e-02
2.435944950366638467e-02
-2.264828475502867963e-03
4.461859186406155753e-02
-4.843446022366185849e-02
1.729013687126456159e-03
-4.320887026750624971e-03
7.201845952949144369e-02
4.727680485268292987e-02
3.241520327774210369e-02
7.215519831907798998e-02
6.607428598287649890e-02
4.112551055201394551e-02
-1.247103499232758879e-02
5.875885923393887184e-02
-2.338765545789302236e-02
2.233767624053729917e-02
-7.333633542111998513e-03
1.083594154087229450e-01
4.550150480184055046e-02
7.815430467797195024e-02
8.138615929089207390e-02
8.594683628700849898e-02
1.529532212646908251e-01
5.887432445780649976e-02
1.188683268977631241e-01
7.731249356901495617e-02
5.209935324265937973e-02
1.721628398239243851e-01
7.216838740986182554e-02
1.038848989278892965e-01
6.657089361030536778e-02
1.216638756554975914e-01
1.497142300360406464e-01
1.092285254517300630e-01
9.969041048519108883e-02
9.115098815307248747e-02
1.072608001935785454e-01
1.595288200998120354e-01
1.399764486535246544e-01
1.523572548031966178e-01
5.279532057505409437e-02
2.060297637534920789e-01
1.280380842472602643e-01
1.496217292330963011e-01
1.120337380862467397e-01
8.051883718968384784e-02
1.248532949528491365e-01
6.948485417189025071e-02
1.519969407215623625e-01
9.822552349563298812e-02
1.013961444304478238e-01
1.398990978109314887e-01
1.238385570929758095e-01
1.371518073873645160e-01
1.686394344636487075e-01
1.795832221458573963e-01
2.104493057446603643e-01
2.325744261598293172e-01
2.773953564578849895e-01
2.732591659058111744e-01
3.129122335380255526e-01
3.238837975198930463e-01
3.993651982814660495e-01
4.068031962685680347e-01
4.675617049284681581e-01
5.635082068814257772e-01
6.243952193699607855e-01
7.259937306264788726e-01
6.970651034423697157e-01
7.117671069015744090e-01
8.502319507017813693e-01
7.967815828345218288e-01
9.304724823454867400e-01
9.312009022792148150e-01
1.012794663432159625e+00
9.977620680411678489e-01
1.018234685720563526e+00
1.016870745483989591e+00
1.040055643631560667e+00
1.003799242779314982e+00
1.005869532427642321e+00
9.488437234658227970e-01
9.049831973334009350e-01
8.582388593737545479e-01
7.574405858489300369e-01
7.483946397618626012e-01
6.838547585113710081e-01
6.087918193967295499e-01
5.744756745984058721e-01
5.189982151918106634e-01
4.851040934803185212e-01
4.114276654784428944e-01
3.425641290815640283e-01
3.285210198538433546e-01
2.749260904955416196e-01
2.589061340499788644e-01
2.292393993169804800e-01
1.927841453299622698e-01
1.797295150254492047e-01
2.003697006742010678e-01
1.139190640577814606e-01
1.545664670165727284e-01
1.780198312195247767e-01
8.174815192831896837e-02
1.316564135258710133e-01
1.553557057478991421e-01
9.758413863271769850e-02
8.268560370275077065e-02
1.261623272347487945e-01
1.012231849665298777e-01
8.998590477431497869e-02
1.268298828000394840e-01
1.444608032749735704e-01
1.572324735751720881e-01
1.494073950615610324e-01
1.660822255673494452e-01
1.789039988823450944e-01
1.446662216685780933e-01
1.565752052034375397e-01
1.260885965763843264e-01
1.613808885930022863e-01
1.196982481492637473e-01
1.316921319911902588e-01
1.701462546792800457e-01
1.975517395104293972e-01
1.427912100084628155e-01
2.187563444908257326e-01
1.928195105615128635e-01
2.314296916892780442e-01
2.136456076108042001e-01
1.858822525487671684e-01
1.932191549821410670e-01
2.375935505626358135e-01
1.899717850757662863e-01
1.929073798767244885e-01
1.879134711350994302e-01
1.796335289383292066e-01
2.389308085040843521e-01
2.106582982491036482e-01
2.392766406767864729e-01
2.036513434929453359e-01
2.165657137860875769e-01
2.013125632687632893e-01
2.197608444996057564e-01
2.910741979333244522e-01
1.737355748930940191e-01
1.993915096193398795e-01
1.739770868713082230e-01
1.967263113019567800e-01
2.084543192160870362e-01
2.253062890150291375e-01
1.684444168055194979e-01
2.234456349627213234e-01
1.620840955703577169e-01
1.918793582950385768e-01
1.700855858432938905e-01
1.413945836832588010e-01
2.058191872679144552e-01
1.359960786196659499e-01
1.782031111750196906e-01
1.475096113373456919e-01
1.309830645205074529e-01
1.626841701201647561e-01
1.187791139704952731e-01
1.246137797409161974e-01
1.263800607331068693e-01
1.239089315436732730e-01
1.089859290082415139e-01
1.099626456833877330e-01
1.363046748156345467e-01
8.511588161959932064e-02
1.449060887261630071e-01
7.390376300700143841e-02
6.561760249733233907e-02
7.041688621087099920e-02
9.884206467861406109e-02
9.205392458427606728e-02
5.298371757926011172e-02
5.724966927062213884e-02
5.002644537988790857e-02
3.634805432003320597e-02
6.635935773848322672e-02
4.388727951237542113e-03
1.023899238582200721e-01
4.378644622857378460e-02
8.066443735954900718e-03
-2.528091961587636965e-02
4.074791094090865484e-02
-1.530990833583042304e-02
-4.914343817528848274e-02
5.539222375055991021e-02
-1.726778483322644053e-03
5.360416305163048789e-02
1.289289271244456470e-02
6.745404213135783311e-03
-3.352943403187810811e-02
-1.841905345650012016e-02
1.192278697748209992e-02
2.928154334712382290e-02
1.002800532484773854e-02
-5.890403261368692966e-03
-7.362281662687307493e-02
1.884710589327699692e-02
3.761441660429040712e-02
1.733327405880394356e-02
-4.857372456490777202e-02
-5.691006320328509394e-02
-2.213267268888617634e-03
-3.002837744496662797e-02
7.996656392859055607e-03
-5.013482563806186121e-02
-6.166495369159530338e-03
-6.136270770746199421e-02
2.860347906812353569e-03
-5.222980408503784255e-02
-3.914861263721119977e-02
2.140539859546974899e-02
4.194418958176680118e-02
-4.777940799944520311e-02
-2.457730640156671406e-02
-7.416660609489840461e-02
-1.395466785997817594e-02
-5.603235752734692099e-04
-4.478715339444547944e-02
-2.991407689614358767e-02
-4.985238528540603120e-02
-1.247555914789134218e-02
2.443998093598899468e-02
-3.766371927189118840e-02
-2.066737114545744505e-02
-2.945536987782165078e-02
-3.424890732632270007e-02
1.446554299842370966e-02
-2.375552603799751042e-02
-3.812884323704922307e-02
-1.157742530525255470e-02
-7.364608104587160031e-03
3.838074855873264968e-03
1.567478664349116618e-02
3.655863620224997224e-02
7.433541811787514053e-02
6.750189284863079842e-02
4.992731197735238852e-02
4.958111385698745627e-02
-1.303282051536568120e-02
3.959861270270007005e-02
4.850974027914104619e-02
6.997942199325202228e-02
9.525777665158288721e-02
5.924371892027802122e-02
7.193458279246038589e-02
1.147314956718009926e-01
6.917850063728069043e-02
5.866475427974391504e-02
5.591193605924114213e-02
5.481028624073432803e-02
9.609550965572161152e-02
7.046041421629539725e-02
9.845265056693291994e-02
7.777235079543967644e-02
6.316814777180343454e-02
1.129030387847566874e-01
1.588928828198417076e-01
1.343092491210969852e-01
1.469425717068209014e-01
9.028670008378102130e-02
9.138014672796365701e-02
1.180455896062930082e-01
1.157074566593007392e-01
1.067252880765567069e-01
1.004926240076155219e-01
1.592699711920696481e-01
9.313636998076189888e-02
1.437386449140867217e-01
1.079730314953046832e-01
1.238783844388814670e-01
1.087289425847580426e-01
1.401518394294829772e-01
1.460082497111048205e-01
1.840200111902515756e-01
1.727214677596779491e-01
1.394868978424588790e-01
1.776366219378054945e-01
2.200884499381421389e-01
2.254028150334372871e-01
2.907626095546259615e-01
3.455789230844087401e-01
3.745088460720173429e-01
3.747220667921263293e-01
4.073166486207722148e-01
4.817120738783722267e-01
5.471424162518911949e-01
6.262275022724957951e-01
6.424040478276884514e-01
8.033435420129506621e-01
8.195234471052064151e-01
8.448636827045460373e-01
8.703439016301387499e-01
9.280243663541579702e-01
9.595016884859436379e-01
9.117404573419682912e-01
9.076163667746727226e-01
9.785513223207048528e-01
1.033907332959813630e+00
9.744850307769531428e-01
9.967967728065129096e-01
9.564867955721135795e-01
8.527805159590583495e-01
8.607235103043753277e-01
8.401632870192788927e-01
7.229697074069042495e-01
6.678015607583306368e-01
5.939080488760288823e-01
5.698003719451593119e-01
5.078490251747478368e-01
4.505015979661273762e-01
4.059671811283248610e-01
3.576462205486940493e-01
2.929712428796893420e-01
2.499246580836451403e-01
2.375232901872385005e-01
2.326149424396692644e-01
2.041213445687792283e-01
1.577187823883187123e-01
1.016637749695432913e-01
1.066543381833023607e-01
1.555168448840791862e-01
1.296730193359162397e-01
