9.093301781635606540e-01
9.284069896725672955e-01
9.226307037945548073e-01
9.728483158702494471e-01
8.515717477781321598e-01
7.929057361227381806e-01
7.826921711808625393e-01
7.170239572750825019e-01
6.619353703436060554e-01
6.981961311753389632e-01
6.240895297714881274e-01
4.981880727185438174e-01
4.855305707940464899e-01
4.077128203513255000e-01
3.384734515300544810e-01
3.065573741929349949e-01
2.977847366492239467e-01
2.254861507597229753e-01
2.149394017626584663e-01
2.112672661937708973e-01
7.456704357173686570e-02
1.679607839391624724e-01
1.118952734096617108e-01
1.234520594205691935e-01
7.700855813545845474e-02
1.110841674812429736e-01
8.434836199920531241e-02
7.477147098768048561e-02
9.908573633489509147e-02
7.642832124333379107e-02
1.310874082998796097e-01
7.584486028759351850e-02
1.427817094371177098e-01
1.267569176395427766e-01
1.019984758889299348e-01
1.210406291370843407e-01
1.637153900014822749e-01
1.418580989618600519e-01
1.658364849526225981e-01
1.556134406120198155e-01
8.437399111795657047e-02
1.145025824182006324e-01
1.422097270196819307e-01
1.467460600821787475e-01
1.488967996056419496e-01
1.971901612592227016e-01
2.201582110386368640e-01
1.733145800205957987e-01
2.089203023151654237e-01
2.226267941730576960e-01
1.855888495264784721e-01
1.904195166188259458e-01
1.611702553537194549e-01
1.813165994486773125e-01
2.253406076916426026e-01
2.070146854747710041e-01
2.111850076513059893e-01
2.032411747650475775e-01
1.819272087454449349e-01
1.693855796520354617e-01
2.211319287616283769e-01
1.861197172444754022e-01
2.198710210613950000e-01
2.026656406646259456e-01
2.198195589680878026e-01
1.848822549284259431e-01
2.141074990424528535e-01
1.884799257464979672e-01
1.958223501254597876e-01
1.965024393372015732e-01
1.814352477404405084e-01
2.358324276707845224e-01
1.237518638057127640e-01
1.883369117294654838e-01
2.154830988282272486e-01
2.158894143929393494e-01
1.293336533369399688e-01
1.816436991979848425e-01
1.069757108376970522e-01
1.820185266743646058e-01
1.863323042225082382e-01
1.876724838837052489e-01
2.248232886971205657e-01
1.265989278929041395e-01
1.216320567624653570e-01
1.200235360769630333e-01
1.679156408950944757e-01
1.562510410794642757e-01
8.226242594652788398e-02
1.912930264194316332e-01
1.057305384388195629e-01
1.331754030025605606e-01
1.119464495296637052e-01
1.249638355211577928e-01
1.333366352564021862e-01
1.002915927763138315e-01
1.155361194531073776e-01
1.079233494660514769e-01
1.053835863628270891e-01
6.446399786808207355e-02
5.169851853656917684e-02
1.215012694459041698e-01
1.318007551405969147e-01
3.925505614846244717e-02
7.582115555331128687e-02
7.988315756953778823e-02
4.135527492174240899e-02
6.128884269551768821e-02
4.021390656208959080e-02
5.345672570971113369e-02
1.613748272925483868e-02
2.659381388457163903e-02
1.444925937592454745e-03
2.207063885063433734e-02
1.261762082719943695e-02
7.098762409989210764e-03
4.661517826755171706e-02
2.255974731962701041e-02
3.075351224834722841e-02
2.595108678584756579e-02
-3.456130431467090147e-02
4.626474675828742833e-02
-1.854989641760462771e-02
7.492816075979923107e-03
-1.210702719978979519e-02
1.413928277323439620e-02
1.858175472738787803e-02
1.914424934723618285e-02
-2.344729821682947635e-03
-5.664098179382295872e-02
-2.118169012937452106e-02
-1.498559746728918111e-02
-1.791303477557326662e-02
-3.614374572908278516e-02
-1.774919235676745283e-03
5.170505237308749280e-02
4.659386705267905965e-02
-2.377815517146585067e-02
-8.122670928810166169e-03
-4.031415882573143733e-02
-5.008083311637110541e-02
-3.704269126509393550e-02
-1.165346496052475575e-02
8.135016115263533215e-03
-5.618873855286084240e-02
-9.773244126850617192e-03
-4.388994702648484070e-02
-3.617188988402501165e-02
-4.167796938339383972e-02
-3.794059454482848898e-02
-5.649900626261877834e-02
-8.061207463298225573e-02
4.094320963031236604e-02
-3.685885911748609800e-02
-1.377154224723028605e-02
-3.871011032559895648e-02
-5.291652778461011786e-03
5.255863208639249828e-02
-4.965167398006839483e-02
-2.569756176209354870e-02
-3.351072406280772298e-02
-2.136180443183757771e-02
3.152289040019735922e-02
1.194008181331625632e-02
-3.996902727441213610e-02
3.376636492444363979e-02
-2.606404813661604772e-02
2.624617258621619875e-03
1.939878814779022118e-02
2.397713560251909723e-02
-1.920633721466126487e-02
4.855120801610558062e-02
3.685345081638084080e-02
-5.780634473914182669e-02
-6.887747828401600408e-03
6.363269103515570291e-02
7.121026084884568563e-02
2.317696385041615598e-02
6.530066193613860703e-02
2.744166642898803257e-02
1.921655176071813964e-02
1.431332564574847380e-02
1.079771599904536389e-01
6.983874205480673780e-02
8.645722351824518259e-02
7.903688193675684204e-02
9.293680792897947296e-02
2.746426383016184469e-04
3.213758850074292794e-02
7.380817544364887128e-02
9.922264617823255139e-02
9.698584328605923399e-02
1.074820740271618946e-01
1.123805224977116740e-01
9.234586665614979983e-02
8.965806592849416556e-02
1.111827098399324892e-01
1.699379044712789888e-01
6.707068359326515128e-02
1.728720276747605089e-01
9.509460627205468253e-02
1.417921133376074949e-01
1.168348830407492517e-01
2.155459061299113410e-01
1.993428447422457284e-01
1.203119614636405654e-01
1.259998735651651491e-01
1.162803659707461190e-01
1.596630855226554013e-01
1.232369707985579710e-01
1.103659721040272101e-01
1.876066927502628434e-01
1.639968437717741756e-01
9.604162491007074698e-02
1.568610515700794017e-01
1.451867504389369179e-01
1.548889472396871581e-01
1.863844043601445843e-01
1.993812952092360036e-01
1.899622382019694744e-01
2.278430833520262710e-01
2.139062512203643573e-01
2.259643683702489969e-01
2.713474742704916620e-01
2.801911215598960059e-01
3.438519120989609879e-01
4.073939812071989408e-01
4.133422954252000125e-01
5.130316900177757100e-01
4.925633459992880270e-01
5.559467615099163984e-01
6.584625668849388713e-01
6.551552387204259142e-01
7.551890164523991089e-01
8.173247432688882652e-01
8.709138290312634645e-01
8.821001077921413192e-01
8.963804154616696884e-01
9.599155885570883617e-01
9.817038596147259488e-01
9.870546724382370796e-01
1.006275268439969395e+00
1.023274152282254601e+00
1.011316336466182131e+00
9.720288690839569146e-01
9.577073489064076295e-01
9.065904119779908399e-01
8.344812481789171121e-01
8.027865376905705119e-01
7.619856754080152061e-01
6.823293632709833689e-01
6.198634052210484358e-01
6.510304469438369379e-01
5.306152697815165187e-01
5.022834672304422599e-01
3.908796867335583292e-01
4.129950771335849091e-01
4.167676621504554091e-01
2.863672023049023130e-01
2.646452711126381363e-01
2.491246643230167757e-01
1.813623474835579785e-01
2.181907984186480243e-01
1.826240423179284478e-01
1.413480794550735775e-01
1.568077588064944738e-01
1.639274404529167672e-01
1.149866653305411240e-01
1.544647959267293758e-01
1.551238542584223168e-01
1.771044251935854352e-01
1.489773294813125648e-01
1.695545773248495758e-01
1.780650046008593890e-01
1.967418400476654283e-01
2.061682753457661499e-01
2.305547189009977127e-01
2.044373522506252872e-01
1.907339377813084269e-01
1.755995518410639611e-01
1.719932785195334157e-01
1.941877036703967274e-01
1.898561235729194774e-01
1.751665292538269192e-01
2.235083536088915412e-01
2.636161340911536977e-01
2.221306976085423157e-01
2.011023708032090573e-01
2.141155379680185211e-01
2.195996829172814635e-01
2.288082474825391677e-01
3.093878954648280888e-01
2.162018675970668047e-01
2.218274908154988512e-01
2.076888204161559948e-01
2.581999082564037096e-01
2.881679654819268577e-01
2.480210273869584425e-01
2.413508758186933001e-01
2.739352850207232293e-01
2.639521468998834441e-01
2.602530101845327848e-01
3.146226305049949490e-01
2.721340423697652944e-01
2.480166210784943426e-01
2.929744972322279595e-01
2.632700698633425596e-01
2.656062692157435401e-01
2.913379028590227793e-01
2.230617756198707557e-01
2.401212099368152386e-01
2.685278831786624965e-01
2.832665019509136295e-01
2.375803000237494689e-01
2.491531472739781650e-01
2.735884183973300576e-01
2.284370186890446464e-01
2.273604216817318169e-01
2.625763686276629816e-01
2.843380182746240159e-01
2.021991130510686074e-01
2.699538771594829356e-01
2.570685386246345239e-01
2.183086299539450381e-01
2.116637543138609467e-01
2.367975446536624284e-01
2.277004567578692351e-01
2.543462890512391827e-01
1.478049921000434141e-01
1.978793736526097691e-01
2.942922630986080090e-01
2.354001393788864582e-01
1.881138028984500055e-01
1.665008136566881181e-01
1.386132692279166689e-01
1.394496943798216593e-01
1.665328188392909969e-01
1.619970525795657590e-01
1.521110837157305384e-01
2.125983452180190969e-01
1.505384138003353356e-01
2.058701051830552353e-01
1.502879310665268808e-01
8.707132966947088437e-02
1.526792443499902507e-01
9.230360610301410751e-02
7.802236367623976987e-02
1.549543500141334351e-01
9.564260551686556977e-02
1.201636623433516293e-01
1.173099873690456318e-01
5.447148077195238663e-02
1.245404643938227696e-01
1.356943745311240679e-01
1.184459799821304254e-01
5.191097842856955136e-02
9.248538681594292710e-02
6.427558288356985394e-02
5.913142619037867198e-02
8.056198273131560950e-02
7.220232511112163742e-02
9.623538592778010936e-02
2.442812656304866811e-02
2.093847932868305589e-02
1.089555508095483780e-02
6.269832982479675576e-02
4.920155825881800116e-02
8.294914986891491204e-02
8.857468077634433890e-03
1.791168621194663343e-02
-1.830190587704383365e-02
2.046560881512640706e-02
1.190833803740975333e-02
1.104906549190827342e-01
2.909705197026935322e-02
7.561858564085355283e-02
3.879619836612417660e-02
5.028751248699850351e-02
5.507057021293482180e-02
4.543253186424520140e-02
1.814563541987197076e-02
7.083053233209780919e-02
3.270305382780105963e-02
3.876558908254081753e-02
4.555469019678780318e-02
5.445189809572807682e-03
5.102855419031662731e-02
6.925521171024823230e-02
3.329655609671354488e-02
-1.589210466004440866e-02
4.451916369129970547e-02
4.425455188574087956e-02
6.922580312048731699e-02
5.564422777568119038e-02
2.616887767083538041e-02
6.371364836549191224e-02
-9.516687797129039228e-03
2.459725723860356830e-02
4.734639719176383932e-02
5.589745021161263844e-02
3.617443620806715804e-02
7.929960341673197854e-02
4.714880967496166975e-02
1.329112489660042029e-03
3.559647089737497799e-02
2.129283819931944780e-02
8.282816863830555487e-02
4.595245319205154555e-02
7.232268109991754623e-02
8.741688261242445968e-02
8.505516865110937519e-02
8.434480878078096100e-02
8.487347705719414104e-02
5.649511450880967400e-02
7.658091226665675322e-02
1.544828867480676771e-01
6.234385201421815959e-02
9.270913205757976006e-02
8.191019840768118399e-02
8.593103013009338598e-02
1.084814691044961865e-01
1.763550534378487689e-01
1.921348144866332208e-01
1.097350447182636746e-01
1.118870705038687852e-01
1.424819308884168745e-01
1.744637655002161669e-01
1.220665711338882742e-01
1.365000318396819567e-01
1.586110310458054007e-01
1.291648471888041660e-01
1.288400206683629756e-01
1.646003853288113827e-01
1.530296944978575824e-01
1.782317207895985356e-01
1.144753373505461164e-01
1.805398411096678091e-01
1.834668466843747126e-01
1.973716124583771436e-01
1.379401239517201727e-01
1.607065740952766664e-01
2.456710910205957554e-01
2.022147406619385079e-01
1.925802809563841866e-01
1.925521693208114837e-01
2.202623295732257513e-01
2.448987736268933291e-01
1.796908664288137392e-01
1.740327692043183716e-01
2.113290901720429882e-01
1.666769031570347059e-01
2.190271155261347136e-01
2.283279644737907788e-01
1.647859253802775870e-01
1.689354521144153798e-01
1.901334870461430238e-01
2.639712986157666252e-01
2.218850501631425554e-01
2.433272744342118155e-01
2.147278630163320379e-01
1.727532498751397916e-01
2.459303914127442536e-01
2.618512450112962520e-01
3.054209148673412977e-01
2.813419616065864215e-01
3.705068152919697155e-01
4.341488568745693333e-01
4.321605798262351250e-01
4.903634311797174794e-01
4.889258065122556451e-01
5.789693205818894350e-01
6.506601401998665102e-01
6.972773050011459306e-01
7.930649578443874637e-01
8.336151170477766881e-01
8.658158766421298891e-01
8.998728652882432844e-01
9.167510300162349246e-01
9.503195398316925946e-01
9.755803702339981287e-01
1.006946649062478105e+00
1.043830684261581432e+00
1.014024254588643315e+00
1.027766729778770038e+00
1.023088386457586152e+00
1.028538387465048221e+00
9.467630114469569591e-01
9.459210653724180462e-01
8.468384769150166802e-01
8.279835693954338272e-01
7.928207529114296159e-01
7.082040562816240836e-01
6.407349817253117363e-01
6.363201202992688765e-01
5.277661145382022134e-01
5.190833728634530742e-01
4.394068192480573565e-01
4.383618358110211721e-01
3.818426459929741279e-01
3.569479252543954484e-01
3.450418831131679132e-01
3.038189574183640662e-01
2.332450419029610533e-01
2.801639207069689941e-01
2.364060253702713055e-01
2.236067395673032032e-01
2.860223017869595874e-01
1.612316368002611744e-01
2.399266936753393087e-01
1.543990792790329025e-01
2.089054950572482583e-01
1.917329047846088597e-01
2.069975709040660083e-01
1.807580536607068522e-01
1.970845785265901151e-01
2.311154068373552639e-01
1.999070068259223842e-01
2.109402576465823631e-01
2.804954468808953938e-01
2.580865670848875859e-01
2.322790801637404645e-01
2.314657218150873441e-01
2.192362063440686515e-01
2.193118040305548910e-01
3.085227156265548110e-01
2.417328472851764665e-01
2.029517614472855502e-01
2.358363807639938525e-01
2.899564814838164750e-01
3.002249691476795435e-01
2.057009416499136489e-01
2.522832248131868238e-01
3.037392820759215462e-01
2.763270035638571431e-01
3.166407549441154767e-01
2.743242714505673141e-01
3.172129293734202160e-01
3.380892801151400562e-01
2.911075202798020234e-01
2.822163718028402046e-01
3.169988287302708541e-01
2.880071452279471256e-01
2.847138226877363176e-01
2.793971596299406057e-01
3.253441646539600440e-01
3.195823479351643237e-01
2.984748618371162454e-01
3.045742760148890671e-01
2.739790617938421269e-01
2.436143281778841707e-01
3.074991179401058150e-01
3.213232791155047341e-01
2.915650112909166647e-01
2.937118751765434022e-01
2.985939892428610132e-01
2.569627057746819432e-01
2.522241956409316810e-01
2.606278572024972595e-01
2.428903338563488112e-01
3.095643930573532265e-01
2.802536668422049293e-01
2.503287611974261972e-01
3.225347380072441372e-01
2.516500831458831078e-01
2.345749679611924821e-01
2.514039298002680445e-01
2.494317769798702344e-01
2.762939034103397695e-01
2.671036159900155305e-01
2.575624248629423407e-01
1.991506471707354398e-01
2.645676377178006189e-01
1.966418761839774376e-01
1.719630364486971763e-01
1.294394228679563996e-01
2.123246193824587236e-01
1.950404970956015338e-01
1.791709309762848923e-01
1.826316968092453752e-01
1.452772085191794682e-01
1.721883324559618234e-01
1.553569542444072638e-01
1.484008598506770249e-01
6.177597440437539167e-02
1.139205507583810340e-01
1.815230642118235704e-01
1.412895734854986707e-01
1.219141620575525664e-01
9.111488961731711855e-02
1.670406533246967251e-01
1.288310476683291739e-01
9.536113836175991176e-02
9.529646889864520909e-02
1.232708049604623601e-01
1.059386284202397527e-01
1.217675715981250406e-01
4.355329726220787817e-02
9.568537188620029887e-02
7.465314502691430820e-02
7.668383549658523701e-02
7.932244831561741094e-02
8.403984123364002801e-02
1.077592260986573458e-01
9.026851089277243556e-02
8.602410670845699048e-02
8.624101988208097980e-02
1.094906776111775060e-01
1.031467670658870600e-01
1.108564713818125103e-01
1.649043326769354390e-01
1.180592776823287671e-01
8.704567504551476154e-02
1.427780734438453131e-02
1.741697075803102374e-02
1.190367586483631335e-01
7.755485858468844085e-02
1.250024758432896066e-01
-4.297419422375825526e-03
9.404262532503396277e-02
6.789180956859874883e-02
7.649516745596003642e-02
9.814827811306485461e-03
3.580960405278021952e-02
5.403142760526162547e-03
5.541058774146877253e-02
3.794513215381457166e-02
6.999288429267705447e-02
3.730242733087382745e-02
3.847464920403899369e-02
4.531006083379868210e-02
6.320541371163937439e-02
1.109282006541559285e-01
-6.496955212271504632e-03
4.766083371522265855e-02
7.979174532380733931e-02
7.085986385868536797e-02
5.704755222425032107e-02
4.850351307013058000e-02
3.133377743683113392e-02
4.387129773132087546e-02
4.988886215760865439e-02
4.230135835687608842e-02
9.998105900069317875e-02
1.151920727166655389e-01
8.223835408090067467e-02
1.126270215519762086e-01
8.872455330905754112e-02
1.003236888705563989e-01
1.071957072034323277e-01
5.702440575897420316e-02
1.024750313986279304e-01
1.206948330144408388e-01
1.173082966577858322e-03
6.002343352332652204e-02
8.851998833820229340e-02
1.774795184922975944e-01
1.283173845042221706e-01
1.326517656532471001e-01
1.279597374785496622e-01
1.207192282971399910e-01
1.077334115958270139e-01
1.456317848068450771e-01
8.739544473255603241e-02
1.408700220562460470e-01
1.420928675881980296e-01
1.191192334860466107e-01
1.672099327325740070e-01
1.167851538154701108e-01
1.001755276611141221e-01
8.577620266687527306e-02
1.665105380388698375e-01
1.193074728190568201e-01
1.605418880702178808e-01
1.874376456530227331e-01
1.628951220857293158e-01
1.891497717691652258e-01
1.856814456209154862e-01
1.867977807518546585e-01
1.654848139523039385e-01
2.236983159439691060e-01
1.555481089596018052e-01
1.624614696463645702e-01
2.078711114461956333e-01
1.802304308031736080e-01
2.005271311195657158e-01
2.143379603659093247e-01
2.079035484024648328e-01
1.946472912963300439e-01
2.133758085825983586e-01
2.122330208256111850e-01
2.139292847098802075e-01
1.886702790136335905e-01
2.134533359197033631e-01
1.985876786511439895e-01
1.856018497878142992e-01
1.998142045120319399e-01
1.428711132997397548e-01
1.652924582501174022e-01
1.873606635606419601e-01
2.609461114576249186e-01
2.577678606663946770e-01
2.570839405957038859e-01
2.704158893935441066e-01
1.883803032362846019e-01
2.588075008424797208e-01
3.261309585970129099e-01
3.659304454469880508e-01
4.063025381418863269e-01
4.497004038968074879e-01
4.363186565875717959e-01
4.940395679635484205e-01
6.252831752920247066e-01
6.218609925863031185e-01
5.941389379130039838e-01
7.222243306239219951e-01
7.450833684249509314e-01
8.315057505120305725e-01
8.631489742450667579e-01
9.284506719105020123e-01
9.303684458211389785e-01
9.719197581254119811e-01
1.030752286425519193e+00
1.026437658203469327e+00
1.026572191696136338e+00
1.089510407905718292e+00
9.336124236197650417e-01
9.502101053230329608e-01
9.171830491726294943e-01
9.212603710765108200e-01
9.102177317406499046e-01
7.490325181225528928e-01
8.306168016270545351e-01
7.110711040312122089e-01
6.257440865294793264e-01
6.606308309003500190e-01
5.408619811837966918e-01
5.359198590503199133e-01
5.352833458064124583e-01
4.352663122547290042e-01
3.621298642782484478e-01
3.283554961086107005e-01
2.942168388154033365e-01
2.971781994148213202e-01
3.108452954598754925e-01
2.506687794619523735e-01
2.616470862574699630e-01
2.447658245905444119e-01
2.411908049946195065e-01
1.746994852665086639e-01
1.781070909580656503e-01
1.889230685951437949e-01
1.090419784180160639e-01
2.036608416192200455e-01
1.625405677436226604e-01
1.757611837111046904e-01
1.975798950155394917e-01
2.796746965360574766e-01
1.907998757940215506e-01
1.950621436811842413e-01
2.015465044289964092e-01
2.759893255094975628e-01
1.750548194199518237e-01
1.808379944810157014e-01
2.123333435267376057e-01
2.382630156623179174e-01
1.947673529703799478e-01
2.080083284887465356e-01
2.737485497296356929e-01
1.994595226753037021e-01
2.062412515418807768e-01
2.658223653363855354e-01
2.782672213535245520e-01
1.695421298389338249e-01
3.027763951929662301e-01
2.465470615106337415e-01
3.147255427822010510e-01
2.656225611585723012e-01
2.527756404092768583e-01
2.674338475637637047e-01
3.478507289663995139e-01
2.605920822725642516e-01
2.874107209670224705e-01
2.502289470379255309e-01
2.730471153720832600e-01
2.801179918477839093e-01
2.580580511645125252e-01
2.629386418049290408e-01
3.225122919079526640e-01
2.428403870750055760e-01
2.628048370944076062e-01
2.564017533967196116e-01
2.148356652936141420e-01
2.744430998421620305e-01
2.842144603630596400e-01
2.603916556508488744e-01
2.696514415767770068e-01
2.942700096598659387e-01
2.549277368757022488e-01
2.790614525662239997e-01
2.522450925755394535e-01
2.398721236110070432e-01
2.947266249947074757e-01
2.601928886018244347e-01
2.278667339045880591e-01
2.546925843947832058e-01
2.772921375537885647e-01
2.217722950230259227e-01
2.824660059009311830e-01
1.958499242105610216e-01
1.892795562598288961e-01
1.447110297940815138e-01
1.350254187394656358e-01
1.583472531783814141e-01
1.469436643588557245e-01
1.471486412067462279e-01
1.507096435402887902e-01
2.149842192640797067e-01
1.612008133766338058e-01
1.297200345909288732e-01
1.262226335158129487e-01
1.946568566331449424e-01
1.354454408251500874e-01
1.400652794525663325e-01
1.613918247603477740e-01
1.396420935550014009e-01
1.329953245941111195e-01
1.186055493952507672e-01
7.637659119126341545e-02
9.312714060724006093e-02
9.592799376656159505e-02
1.664247608592460126e-01
1.033677078594650717e-01
1.147048120194485432e-01
1.095638182253706183e-01
8.002874585833187615e-02
6.843962044193173389e-02
1.120736238770023707e-01
9.437056396013882020e-02
5.445224252181052327e-02
7.547401596675926139e-02
2.122028977193923110e-02
-1.458747001751542656e-02
2.428005357980105028e-02
6.473035636608449883e-02
3.433866641710514589e-02
5.097825231310899180e-02
4.757576768005609968e-02
4.008856524304871966e-02
6.669924016340120221e-02
-6.672700141284737541e-03
6.214659935207152153e-02
5.915258731350299393e-02
2.333285202853049856e-02
2.025324399101790379e-02
3.384596947306924009e-02
1.201131369773807134e-02
9.049574560496213838e-02
-1.010931677194949405e-02
5.308290928427588512e-02
2.518893483120631868e-02
1.581719083475250157e-02
-8.607467432452609035e-03
-1.800874569983195589e-02
-1.941369521401209094e-02
5.825648498883066045e-02
-1.088508326746956585e-02
7.232100987332666653e-02
-5.059481292993192603e-02
-1.016395642758347734e-02
5.627548216445327905e-02
7.414365848297750639e-02
-5.571340371624274729e-02
3.537407793038213448e-03
3.142419551516079101e-02
-1.655749558101564725e-02
6.459135513485987634e-02
3.324358559397699864e-02
-5.483727750499035880e-02
5.244732717633179657e-03
2.217056039740692569e-02
2.877195229670553855e-02
-2.118639083238934087e-02
-1.040209388379644689e-02
-1.107552865442042178e-02
2.363894422275182247e-02
1.492650239478299917e-02
3.939131361656773855e-02
2.188183646980829816e-02
2.436431579655956234e-02
-5.053610221190715096e-03
2.830142220799077013e-02
2.346381700213485966e-02
4.716575448906018542e-02
5.245399646508302344e-02
5.262576775618998948e-02
1.006849868408487940e-02
3.850216085973340308e-02
1.074819280127826127e-01
5.159701099574482558e-02
9.844375052875198318e-02
1.372954707991103432e-02
1.134669437087520993e-02
6.573928693235336906e-02
7.218064725650320812e-02
6.417902675960598935e-02
5.024323475954853985e-02
7.248006685188042308e-02
7.702334585335504635e-02
8.736669000052299516e-02
8.747657100000424957e-02
1.187788916758301810e-01
1.086743931522499429e-01
1.076735123990892051e-01
1.287338084923478621e-01
1.485314617596216191e-01
9.160946680075628124e-02
1.373801580981452997e-01
1.365533304355337485e-01
2.005097522424700851e-01
1.712790213904845094e-01
1.481662863760181970e-01
1.576914664824163592e-01
9.531542405061124712e-02
1.226955933616094979e-01
1.485434473907134567e-01
1.478686830078053405e-01
1.253417702448412774e-01
1.149270006726276772e-01
2.204784033054111025e-01
1.079729464032443270e-01
1.755928860385262136e-01
1.715603726231608450e-01
1.138099340201490922e-01
1.677621745455893931e-01
1.472198290088412853e-01
1.507036319482026598e-01
1.312942651319889409e-01
1.088775417449999727e-01
1.301394681441747081e-01
1.570435030185340086e-01
1.391105335131757603e-01
1.675844568959670711e-01
2.333312065308582040e-01
1.912757031414385744e-01
1.923684409575417420e-01
2.229837848442338399e-01
2.919798807953012387e-01
2.809697036903154310e-01
3.271172889807252848e-01
3.427875579392063998e-01
4.399373246698962125e-01
4.764560493555444753e-01
5.336692598865186987e-01
5.773143470765325080e-01
5.810689375735772488e-01
6.983335613995902413e-01
7.572475554441585599e-01
7.994845359126218076e-01
8.706113771153498604e-01
8.470008202641108319e-01
9.687518500609595407e-01
9.639522555815535076e-01
9.398260347487904509e-01
1.012043905345205497e+00
9.850814354723724797e-01
9.882618878459379363e-01
9.574584650815664011e-01
8.860629408111394545e-01
8.740678099500156506e-01
8.468127349777340163e-01
8.428973352002038233e-01
7.844492391816835219e-01
7.827590766201072414e-01
6.648508005264148757e-01
5.856086564981396458e-01
5.629119013396295390e-01
5.136614984116212312e-01
4.837282062930444160e-01
3.980874876069310786e-01
3.462127177821875956e-01
3.122351407187959893e-01
3.194754734319038558e-01
2.500234716227880960e-01
2.138279525217993138e-01
2.143231102714217573e-01
2.291004396463224291e-01
1.556715585273322489e-01
1.493282212357151251e-01
1.036830384642529190e-01
1.241870191906552651e-01
1.064674735028589142e-01
1.149688831200049999e-01
1.961225843120666945e-01
7.407711917492136589e-02
1.026194732908571605e-01
1.015806164155806102e-01
1.029078771229562372e-01
1.396109803641911451e-01
1.165632608227108041e-01
1.489401353038881104e-01
1.915897961712313691e-01
8.538003445083776344e-02
1.741164070052134138e-01
1.169297220928400410e-01
1.068989111689272881e-01
1.810327227840745623e-01
1.761380629548736643e-01
2.297309317970556153e-01
1.947675045149714346e-01
1.547170196881663407e-01
2.021014818164652838e-01
1.983518740069785402e-01
1.877652124662103073e-01
1.540582993732308725e-01
1.823853775146068446e-01
1.959462165277956469e-01
2.267336223863525013e-01
2.014098755346264702e-01
2.167095493794381489e-01
2.466280594220912059e-01
2.156375586227710361e-01
2.163749851470093688e-01
2.463988611222036884e-01
2.187924249293211609e-01
2.191934073231457392e-01
2.789739703855964037e-01
2.170281977749901892e-01
2.190667612424475885e-01
1.790525035450773184e-01
2.599192247504951148e-01
2.143481879043129812e-01
2.209946822271765809e-01
1.764810590147500580e-01
1.941197162800786802e-01
2.259688775245495274e-01
2.037572622503749931e-01
2.425329231763206361e-01
1.894961708112446741e-01
1.584762016861243350e-01
1.769199501449102985e-01
2.255274510382360709e-01
2.263314218476942530e-01
1.733294984798680882e-01
1.472985966568827187e-01
1.261117501934708451e-01
1.097898600279920978e-01
1.611499558159890932e-01
1.584713218246523725e-01
1.089476293945057239e-01
9.519895338032888232e-02
1.861107064498523644e-01
1.907654925529710110e-01
1.369178352786649677e-01
1.600777709612461464e-01
1.709830926371777304e-01
9.711404978152943235e-02
1.574486840790797204e-01
7.528967697967153816e-02
1.153421014174147718e-01
1.461705864188933557e-02
1.339118913408192668e-01
8.272079690673263264e-02
6.731995059753224930e-02
9.892302854568295334e-02
2.546274488056497060e-02
5.912733304256763411e-02
3.025052161377933535e-02
4.386337781262211744e-02
3.657568019488739719e-02
3.423842843205816139e-02
2.993516960081050310e-02
8.988276527530275617e-02
3.769151460540755977e-02
5.409289993547841680e-02
-2.980328697164625479e-02
-4.551491013728772850e-04
-4.699606876922883536e-03
8.733344120182708059e-03
1.052204047078536542e-03
8.107938346532679585e-03
4.338499698945583183e-02
4.333990720400404673e-02
-4.125071312292061254e-03
-5.710224020008426715e-02
-1.912381149023753557e-02
1.302767457575716714e-03
7.172993335910661516e-02
-3.568481430455790193e-02
1.880452431629180132e-02
2.217437710497355274e-02
-2.827791307990347100e-02
2.028008957170489290e-02
-1.426143798369242099e-02
-4.127951889996987755e-02
-1.996569646809418994e-02
-8.875741129780942429e-03
-3.485177369820749438e-02
8.377162591923510704e-03
-2.500478212888035401e-02
-4.806475420731876058e-02
-1.722151881707552346e-02
-1.781868516357610135e-02
-5.101297883791133109e-02
-9.872107676072706950e-02
-4.898049171670093571e-02
-6.248645511550382503e-03
-2.508430565644810539e-02
-9.380124446172283248e-03
-2.363352042403211312e-02
1.904089486180544216e-02
-1.187826367736889016e-02
-3.219017574529967757e-02
-3.606508340608990948e-02
-4.444398023184041591e-02
-2.150085521483644999e-02
2.779673818500494331e-02
4.086163202416698281e-03
-3.933173515205952431e-03
-4.523213832126112000e-02
-3.422348022732439599e-02
4.093811594105267737e-05
-5.710891976710568557e-02
-1.594497010076817781e-02
-1.042256676919790098e-02
8.279323985632108807e-03
-4.048445576409052254e-02
8.965504945491795108e-03
-7.818521564083977249e-02
2.936147589595550222e-02
-6.292023541063503089e-02
3.482824289929421779e-02
-7.363377022903891400e-03
2.923729203966978635e-02
-9.598829170160590174e-03
7.049504214191898432e-03
-5.994738125426606057e-03
3.538261026981681656e-03
2.179362264363202822e-02
6.127962150106872063e-03
-6.431891747061060927e-04
-8.300514510485468289e-03
5.337935555479280531e-02
4.414474935720525545e-02
1.290238876608650054e-02
1.580053840657896086e-02
3.303125685782948989e-02
3.539752974533032226e-02
8.661764684890990718e-02
2.360235086167746660e-02
2.791703633638301096e-03
6.844064800958921113e-02
3.710640824608560373e-02
2.863764118153420274e-02
1.247425093902811699e-01
1.007362051491380306e-01
1.084926574976479013e-01
5.200552162027322067e-02
6.274831799013874667e-02
1.397698180114036737e-01
1.045621350492727253e-01
1.482018507484060277e-01
6.338469374618760366e-02
7.447273935101693387e-02
9.644924947247532354e-02
1.380037193641977383e-02
1.341006658129953732e-01
1.261093947270353344e-01
7.875798204621936582e-02
5.803882114225744626e-02
1.088911085283052749e-01
1.475472175261329788e-01
1.392060712365443542e-01
1.672022257075726492e-01
7.337272613576296953e-02
9.371286045117763197e-02
1.306262347254001366e-01
1.131271502273751006e-01
7.724161782543695343e-02
7.802679332556902714e-02
1.231344594873789722e-01
8.363555979902112525e-02
1.505176833403842895e-01
1.551983584351650236e-01
1.635582525310566027e-01
1.416755819504848524e-01
1.806404398781522036e-01
2.412952194579462972e-01
1.997297395742843040e-01
2.498026980274283271e-01
2.657621332254227475e-01
3.254347105588309974e-01
3.980994062947538215e-01
4.722752877690362672e-01
4.833066938900928977e-01
5.785087181372128295e-01
5.781779172169274617e-01
6.130944630705245091e-01
7.629565274604319658e-01
6.951429975425007513e-01
8.339527244815007068e-01
8.191066823348993609e-01
8.627671195746051680e-01
9.569262028706996270e-01
9.464963075833687789e-01
9.416899763917870869e-01
9.511670014628220704e-01
9.613435541916296456e-01
9.038054565449835653e-01
8.865318807156153946e-01
8.696227574690346129e-01
8.436707550882791562e-01
7.863271130871259951e-01
7.496818620053152804e-01
6.813173703401723680e-01
6.718271224541844111e-01
6.710437396005487498e-01
5.251604524409082542e-01
5.386889338679635708e-01
4.391476205502382602e-01
3.700470749049298291e-01
3.553394668862538408e-01
2.903064345060627494e-01
2.793562636288458578e-01
1.683012325454852909e-01
2.029405258322548034e-01
2.075911363796685283e-01
1.195256365454819697e-01
1.818073717591035809e-01
8.232227878630266060e-02
8.345288108165896390e-02
1.466672707708835122e-01
9.159687467030047658e-02
7.592950684286134400e-02
1.393571992114513436e-01
1.257138941989555669e-01
7.083203380679686800e-02
9.670763601601653492e-02
1.511096674771952864e-01
1.085849083997521558e-01
1.160866621077501215e-01
1.351750811493168947e-01
1.358150555006332194e-01
1.433683811506021311e-01
1.445916430839560007e-01
1.346253696153422996e-01
1.760213282702155491e-01
1.714137095331947636e-01
1.774446766584894808e-01
1.622596896416594880e-01
1.612680701589844501e-01
1.348144695319102304e-01
1.887310375279593888e-01
1.627913806673396968e-01
1.833636959286279733e-01
2.002965816960694534e-01
1.899675272058978515e-01
1.576687214575829554e-01
2.312420291640568670e-01
1.751888830906715433e-01
1.926111880917183161e-01
1.684530986727475477e-01
2.196312252410655141e-01
1.675377808367202181e-01
1.847962075628822587e-01
2.261066981347437665e-01
2.196357782384245616e-01
2.421002903717721921e-01
2.443159264721862234e-01
1.425870092473238704e-01
1.788593852190247246e-01
2.289168304934660891e-01
2.499537141446971367e-01
1.746512929393781166e-01
2.296302034696773575e-01
1.617065110604989364e-01
2.103079726756814649e-01
1.677830142998161245e-01
2.428479637609442243e-01
1.996325255923610820e-01
1.667891786219682093e-01
2.514997841470967277e-01
1.862470523865346339e-01
2.131661227141518622e-01
1.438675090126173561e-01
1.986496373444759933e-01
1.538750139062644295e-01
2.142584245645951513e-01
1.131351781337150697e-01
1.599277817651273692e-01
1.142382203908210436e-01
1.024583157520283783e-01
1.296573935870395100e-01
1.126525244705061379e-01
1.837420061570674834e-01
1.627873780048731400e-01
1.303783071399662319e-01
1.019907566778106012e-01
4.685775014832813806e-02
1.079059405567047436e-01
1.035568529832980034e-01
9.220854800753414127e-02
1.385442175039075519e-01
3.985618548956563340e-02
5.781790222081259478e-02
6.933859928534417960e-02
9.984248124414310532e-02
7.802416667523910665e-02
5.472055345380799629e-02
5.034028221677217668e-02
9.307249885489884966e-02
3.852472974376139336e-02
5.003654522798590965e-02
3.630167815577701323e-02
8.203121463453075246e-03
3.445559003293065248e-02
3.285929258408408493e-02
3.390749681046911074e-02
2.942610449540102036e-02
-2.091302488042722646e-02
-1.624472099620837690e-02
-1.120445090015825818e-05
1.480907030605118496e-02
4.208347356880186296e-03
6.386683932841846767e-02
2.086933566078771202e-02
1.153228007459291410e-02
-4.687455268592017471e-02
2.730969895858774421e-02
-1.061640275503081265e-03
-3.514361851046705898e-02
1.792795131916506690e-02
5.894505927027254844e-03
9.266882200617373999e-03
-4.574740662321830076e-02
-9.476754861491326620e-02
1.659632984031739200e-02
-8.560819319026163887e-03
2.096563918103007407e-02
6.560046939162492152e-02
-8.012454166394880617e-02
1.972309933082386224e-02
-4.517283883869667449e-02
-1.407242387346737539e-02
-1.130457470755614757e-01
-4.561421374411229329e-02
-3.625266379832090685e-02
-4.805310037794107564e-02
1.228720029315925888e-02
-4.120677800839256388e-02
-2.949453189525254315e-02
-3.451234397985295660e-02
-4.747590924708276067e-02
1.761106160201098697e-02
-1.699638633354356651e-02
-9.165346472349289453e-02
-1.497069084460471780e-02
-2.779215926621932467e-02
-1.637373076874081707e-02
-2.497967316813641189e-02
1.378518493809673812e-02
2.432436153017820263e-02
-8.604171408231439666e-02
-7.257880989140169659e-02
2.194293276892521349e-02
-3.353978102737006917e-03
-8.007014796549548341e-03
-1.834517109573732818e-02
-2.026470002992958319e-02
7.883099892834130595e-03
-5.936204888757803250e-02
-4.730029460390416940e-02
-1.487605163412196799e-02
-7.771513041695241736e-03
3.250086311515659743e-03
-3.431390468018363088e-02
-5.424515334647447840e-02
-6.042505766435869730e-03
4.789133426666219995e-02
-1.332328665578478427e-03
-3.450810025075086440e-03
4.291517195731262696e-03
8.492146345419687714e-02
5.063393143990388423e-02
1.084878893434387467e-02
1.696938377727853428e-02
9.077964561862722492e-02
6.441306086996195779e-02
6.372838758593500630e-02
4.566731322003497739e-02
5.586816401958098061e-02
6.428826927255731905e-02
6.879075581635187009e-02
9.039834573801763806e-02
4.947940838020562643e-02
9.606768083212605114e-02
6.173554059346574030e-02
1.501333877082863255e-01
1.123396700493824452e-01
1.029866105881986210e-01
1.049396506664589390e-01
9.885711135295253971e-02
1.682470538723661035e-01
1.020944776113410085e-01
1.599081692952621647e-01
1.672775495621338926e-01
1.366448521596906607e-01
1.246007540430441179e-01
1.547781340267982420e-01
9.224996971913072830e-02
8.410122340032288868e-02
8.081681276869663588e-02
1.048006677454383084e-01
1.400140178834272109e-01
1.071477594714074499e-01
1.460417184237553789e-01
1.266180623370641023e-01
1.005795612809663869e-01
1.152139073279533493e-01
1.216819379288221203e-01
1.413118226923808507e-01
1.389885356553492435e-01
1.371394819664535358e-01
1.644907902915549447e-01
2.280190385214242443e-01
1.661565353195935402e-01
1.899641512604552107e-01
3.035205303776707941e-01
2.855814264034627903e-01
2.404844158446258484e-01
2.972187961193959449e-01
3.898038248361256897e-01
3.426034494130716923e-01
3.894310217128869045e-01
4.257619796689552372e-01
5.081788901794140889e-01
5.646445806520853372e-01
5.828782147829015825e-01
7.184271424569597109e-01
6.588797206385953453e-01
7.936558338102827070e-01
9.244789251354835757e-01
8.199535497002561346e-01
9.141754110629027874e-01
9.749686232616686654e-01
9.878473593457849367e-01
9.802949223554514591e-01
9.678161026263394362e-01
9.534980855942812861e-01
9.884655598043923241e-01
9.287309585337052420e-01
8.858914988846982030e-01
8.651092678474628928e-01
8.482674421337538240e-01
7.506481211225424222e-01
7.666958655766957786e-01
7.000878081658542529e-01
6.429005066208307584e-01
5.527106755418097483e-01
5.236440519747407318e-01
4.922555610762015532e-01
4.369198034113337403e-01
4.114435622038218332e-01
3.437764562893323994e-01
3.127860198387298896e-01
2.099203815541092477e-01
2.034595236836603538e-01
2.180458836894988706e-01
2.241722129613992476e-01
2.486703915938349718e-01
1.417527744400427780e-01
1.825922300919493035e-01
1.722672746148833367e-01
1.358951523536962025e-01
1.836257937565407006e-01
1.462349256549821119e-01
1.049796745821588717e-01
1.175446506832214522e-01
1.798900253019376783e-01
1.087205320843352557e-01
1.327228248123243914e-01
1.330534803643148856e-01
1.209016754905645336e-01
1.661076533580070624e-01
1.544018750903557446e-01
2.119978863784878487e-01
1.976837420251204569e-01
1.278471964012546924e-01
1.710312154716918109e-01
1.981207739802071099e-01
1.967983648149898568e-01
1.546045925046044267e-01
2.027496606183556704e-01
2.083888088741622791e-01
2.253682561886171665e-01
1.828826711973861041e-01
2.142438492368296810e-01
2.538713804279114084e-01
2.415735527026830198e-01
2.733359107549013789e-01
2.400550820502339866e-01
1.864615048867064029e-01
2.152356117586859963e-01
2.577491863350831469e-01
2.515094403836461434e-01
2.742518817207419413e-01
2.340551597639203840e-01
2.534826160414939689e-01
2.565559207801040298e-01
2.446266113549317722e-01
2.784265003890558088e-01
2.250850337795236855e-01
2.720272669006950639e-01
2.489636494986983140e-01
2.577922536860743907e-01
2.033413135440947095e-01
2.997871995130115264e-01
2.318276662528283849e-01
2.754896173061500142e-01
2.412849005619163434e-01
2.069902352093626330e-01
2.720689294590675211e-01
2.322403659988882541e-01
1.983931881789716134e-01
1.899495829055157514e-01
2.438647807444885018e-01
2.226975045279387666e-01
1.806599353387928764e-01
2.515824933509843708e-01
2.337721260031259685e-01
2.260232730733221784e-01
2.007123807039762620e-01
1.846780534968228971e-01
1.709865523511188146e-01
1.761883880405908653e-01
1.966134913498819303e-01
1.996254371772751002e-01
1.838131476820695775e-01
2.159013453765510349e-01
1.255909348474466836e-01
1.438635431485099925e-01
6.730490280436939032e-02
1.372160745534370951e-01
1.799280661839486872e-01
1.083274358764992895e-01
1.608920130235615420e-01
9.822408257622620986e-02
1.445520759737934646e-01
1.343426268045961880e-01
1.249190929712986203e-01
1.430362710510492963e-01
1.343244005707686373e-01
1.480477223161265343e-01
1.580934983389446769e-01
4.467719383768023467e-02
4.656155005990204182e-02
7.054536970796670969e-02
1.353635526998690497e-01
5.864256451458729064e-02
8.896383926972696587e-02
2.542511113390309024e-02
4.908491063396429321e-02
1.098175888948456080e-01
1.006737040113239445e-01
9.416789290118843248e-02
3.217423998580516697e-02
8.717842636789463473e-02
2.164247155944080958e-02
2.883686452557647842e-02
6.178968297288662398e-02
1.866915727166791605e-02
7.864610053703069426e-02
1.664390478814986932e-02
5.868687871876079876e-02
5.533204270154330751e-02
3.588412060718725038e-02
3.144215581976819718e-02
7.700143755428125875e-03
2.784888408631720075e-02
8.825127153091143206e-02
6.509695952553473663e-02
1.917907501886029903e-02
3.173402286599858596e-02
2.443039794102577072e-02
1.402048657887114413e-02
5.516979435181556396e-02
5.699444320971835953e-02
1.609562510276389344e-02
5.559693046208171591e-02
1.066129696537720384e-01
3.840361017449214764e-02
3.634841422594442539e-02
2.693272250493712605e-03
4.808588195493347650e-02
1.874868984912839848e-02
4.745173503714955610e-02
4.513144301121378710e-02
3.359567867087435294e-02
2.848744868551798815e-02
4.704229042062393895e-02
4.494781135209595380e-02
8.847820455718508059e-02
8.470120083184334847e-02
2.932593547527403283e-02
6.800072839560297733e-02
1.730775332279943859e-02
9.295407968579461055e-02
2.336607262015737499e-02
3.096031707207645006e-02
5.246783763180820626e-02
5.425185340120615429e-02
4.552024837736513146e-02
7.018720480606105427e-02
5.234187414403862482e-02
4.317712225854861141e-02
2.043848400635859749e-02
1.275497439409938871e-01
1.074704199136874705e-01
6.181018163746200555e-02
6.333155325306528971e-02
1.084745674552722583e-01
9.586736613558421993e-02
8.037931339622569893e-02
7.269002571801724821e-02
1.141642670464545761e-01
1.447031509029741425e-01
1.463874571153623017e-01
1.341864741218008750e-01
1.270395249083771105e-01
1.199945251468505503e-01
8.418205597491990044e-02
1.022888377932724691e-01
1.372488032080856901e-01
1.659794445368821814e-01
1.565912983056423902e-01
1.860582691329863980e-01
1.216725503135277914e-01
1.226178910784852250e-01
1.583871235120241638e-01
1.889793785190264364e-01
1.309414619075492947e-01
1.453272053321220669e-01
1.827020525816559215e-01
1.511518318032178676e-01
1.873285983276045674e-01
2.337573931447940734e-01
1.877102389177772168e-01
1.781711707637513020e-01
2.013094369193140776e-01
1.372950050907556785e-01
1.884319883995267675e-01
1.397447111722162350e-01
1.884951237181938521e-01
1.833641908077131844e-01
1.562001925547660819e-01
1.871861859239993542e-01
1.585825570129675843e-01
1.963902833957948124e-01
1.627805224267661610e-01
1.946515874270138280e-01
1.812321117618832522e-01
1.317942928792429358e-01
2.524468934317541935e-01
1.827463057939108793e-01
1.991808231724634948e-01
2.004607322357523369e-01
2.220071449278502307e-01
2.931590588043609391e-01
2.849201691187834284e-01
3.193268331037308894e-01
3.066720222727561396e-01
3.632999855128223876e-01
3.435295117857825042e-01
3.394727469901546169e-01
4.869231377722404441e-01
5.110140727514914660e-01
5.671913327447285491e-01
5.697404569000096286e-01
6.233046015784419192e-01
7.700214174922443977e-01
8.003167678665681350e-01
8.525642018609157491e-01
8.292883903052534755e-01
9.007043669350244253e-01
9.851470676149997052e-01
9.327409294535263795e-01
1.033902170054192160e+00
1.026632429428064652e+00
1.032109350841474704e+00
1.001424288735849100e+00
1.018553429353723505e+00
1.033870339585665654e+00
9.260161611526370740e-01
9.823594148568338680e-01
8.961494101536279233e-01
8.098982177459127518e-01
8.031344668123707731e-01
7.316496888528113418e-01
6.430094687441959556e-01
5.907182845149794304e-01
5.755074810368235871e-01
5.091445474886953093e-01
4.773278287736767989e-01
4.454459583986122295e-01
3.861694878141838094e-01
3.280346613562584723e-01
3.097971603108539140e-01
2.793556176878457808e-01
2.623727483944410244e-01
2.202279237350424357e-01
2.501625194333114699e-01
2.207542893733841494e-01
1.935873115433053571e-01
1.846059339989026826e-01
2.317367869322324581e-01
1.748516928616296040e-01
2.063835510475014179e-01
1.904658488889092172e-01
2.333168600522235736e-01
1.703806853845823421e-01
1.982519196463366495e-01
2.463808638015708152e-01
2.283409537011854562e-01
1.356133171088835521e-01
2.313986603139139842e-01
2.193704290276579927e-01
2.226417826758186891e-01
2.134517154682676887e-01
2.038644053376041376e-01
2.590923712466748352e-01
2.526131582234815154e-01
2.586319194664786769e-01
2.793666707983265551e-01
2.585754103479974697e-01
2.771469037119715373e-01
3.089028541592625521e-01
2.636300615949574988e-01
2.731345041768163395e-01
2.229795126111299708e-01
2.750582790032187752e-01
3.046198913339424053e-01
2.797366208356079076e-01
2.641168219077915102e-01
2.176396093050793901e-01
3.446383212259530038e-01
3.208972101499626417e-01
2.600079297016707480e-01
3.082504234122490638e-01
2.964570309967949902e-01
2.793171151012220355e-01
2.982812773420873143e-01
3.514890789543690386e-01
2.261301482873533941e-01
2.988054095027150581e-01
3.051905171176005349e-01
3.149131429389471215e-01
3.113082737319320392e-01
3.527664901926284013e-01
2.758286155989237987e-01
2.744254450142822321e-01
2.494196675278357311e-01
2.822816483118505415e-01
2.619688272104294668e-01
2.786372566136594564e-01
2.764088697559997088e-01
2.419183559699573660e-01
2.621730500943640352e-01
2.642183287644226386e-01
2.949985096843110721e-01
2.108496732947365837e-01
2.762321367413783091e-01
2.560664015333250498e-01
2.036695635955494965e-01
2.285989634333097098e-01
2.293120752315344624e-01
1.990953602875905060e-01
2.433809933878163800e-01
2.382448301672240032e-01
2.319665839801868523e-01
1.930772229072860724e-01
2.130734850632240440e-01
1.445416239361582700e-01
2.101734357525386065e-01
2.275383787068383512e-01
1.591787187191634201e-01
2.044235506127906332e-01
1.567006963684350329e-01
1.844450966596584696e-01
1.442561655058883785e-01
1.775618607440850039e-01
1.869432612688870510e-01
9.789956101545643774e-02
1.480041866209383383e-01
1.255584522824633453e-01
1.392050117994187985e-01
1.258901942252964867e-01
2.990474818873917889e-02
1.520713753446121808e-01
1.563515738242305386e-01
1.024248038340487554e-01
7.452248369815572815e-02
1.497392940487439206e-01
1.048073753676052461e-01
1.084306142490051583e-01
1.009093126176501820e-01
1.188124650089983636e-01
8.286031154911410734e-02
8.815126076000887045e-02
1.747750662307599456e-01
5.607779252642786094e-02
6.643591992566932891e-02
3.921637999509316325e-02
9.431549832822282153e-02
6.556088152020157767e-02
9.654475732672133936e-02
5.343659479820644931e-02
7.559445783413636100e-02
7.393136030858155072e-02
7.372176687125284178e-02
1.582900139579845877e-02
6.168863024931586780e-02
6.220747499508409717e-02
3.817301756159695303e-02
2.953106307438356157e-02
6.275409868015764669e-02
2.570631116853230869e-02
4.145097104669666355e-02
8.332821719450250741e-02
7.042983458298252009e-02
1.010144584767293241e-02
1.985390298526883146e-02
4.109167999714020275e-02
9.414570271943317747e-02
8.180909610765542406e-03
3.660258744405810172e-02
3.763566856726111021e-02
9.340579152247822925e-02
3.137840768878859266e-02
3.310205239624718077e-02
9.587867345139228226e-02
5.351471597766758320e-02
1.139839157095377947e-01
9.370566902631791151e-02
7.126979205921714355e-02
6.168496935228869049e-03
3.492424097937850413e-02
7.038146312752338596e-02
7.468928403593613763e-02
7.900537446871580549e-02
4.006604427962608128e-02
7.436932177621277673e-02
7.336826639804878980e-02
8.541314927636858845e-02
3.740915177642911704e-02
1.130330004808035305e-01
4.569591989736540572e-02
1.111914995918700383e-01
5.287986391766573424e-02
8.997958400368830101e-02
1.050962959874632563e-01
1.293558180489039755e-01
1.118590143567863432e-01
8.429256463018414136e-02
1.518316992458087489e-01
1.208413232388303865e-01
1.422121549049128464e-01
1.156271518902287215e-01
1.110894704600359495e-01
1.366414563029865192e-01
1.548304540114036343e-01
1.652831736293628728e-01
1.029144890790322231e-01
8.898476327422211174e-02
1.292043827614959839e-01
1.643949524810678076e-01
1.443597452278231053e-01
1.130099470672889239e-01
1.548500328451498376e-01
1.591093275267754237e-01
1.458395471330155568e-01
1.955197934273975868e-01
2.318088788430861247e-01
2.345710768025811299e-01
1.705758359943410629e-01
2.337123868795539794e-01
2.068344619478908741e-01
1.995907074274969051e-01
2.101985136423530354e-01
1.939944890669983157e-01
1.977039325779817169e-01
1.636291214712376485e-01
2.029507565300686101e-01
2.111167423754829742e-01
2.122692796250395530e-01
1.165021124481380732e-01
1.935733964552373010e-01
1.989100390620476000e-01
2.343521261004224421e-01
1.723470001526205275e-01
2.128604535090347916e-01
2.580325168954315518e-01
1.723725438281825117e-01
1.801802235422813592e-01
2.447939622681233052e-01
2.340357177962844037e-01
2.196493866310382792e-01
2.349336502140623728e-01
2.359256229621263523e-01
2.012427604245401735e-01
2.759365650724454611e-01
3.216916910171500055e-01
3.020545122405068339e-01
3.200357620318021734e-01
3.528689667170757382e-01
4.332660333517380780e-01
4.524018607390618008e-01
5.494596948310869200e-01
5.506131590803009512e-01
6.051296371783101424e-01
6.296083468223819812e-01
6.992223648441351358e-01
7.621968638731603241e-01
8.183911978036106927e-01
8.803827015031814307e-01
9.847951415235018935e-01
9.252318365326162031e-01
1.033286963625748012e+00
1.046010860426995315e+00
1.046580081396023987e+00
1.054911368091312251e+00
1.069646534382575842e+00
1.035163981883729045e+00
9.660948165310049296e-01
1.037050334924740191e+00
8.989236476657309627e-01
8.993479300982467617e-01
8.742827251063292060e-01
8.288202596437728165e-01
7.465335583442831435e-01
7.220599030008580943e-01
5.677717029325602960e-01
5.575082140668070618e-01
4.785357924450709954e-01
4.761268087158185280e-01
4.540413601480813854e-01
3.727483967582158608e-01
3.681660247327497304e-01
3.616542048143112642e-01
3.182272823960193842e-01
2.864471389811726887e-01
2.454716766421864704e-01
1.897769583772806190e-01
2.108221690529420989e-01
2.293213439460767278e-01
1.836145162265225284e-01
2.259009955561064875e-01
2.060003494702842552e-01
1.874405606231718258e-01
2.129708309152727741e-01
1.849444173630641342e-01
2.811158056463696764e-01
1.973012917089253249e-01
2.346156525751046940e-01
2.051980184168473720e-01
2.222448876945000706e-01
1.864272743685400358e-01
2.080491657640135550e-01
1.951764734251723032e-01
2.076083024557544565e-01
2.186302373387867259e-01
2.122913793049179820e-01
2.280604088550594322e-01
2.073103984855476645e-01
2.302504606979627055e-01
2.855752957130329728e-01
2.845733963648036657e-01
2.608969424474326670e-01
2.496488667935774508e-01
2.729795869325116198e-01
2.895881151572802237e-01
2.535931129629814818e-01
3.147264992250242144e-01
2.740252457532816877e-01
3.294351056541756639e-01
2.962745649623442779e-01
2.464356172530312028e-01
2.291117514215633144e-01
3.158860173992255604e-01
2.941814634270025208e-01
2.819829810468069131e-01
2.592002843100930098e-01
2.830871676013977378e-01
3.251907304725621950e-01
2.867858355101351453e-01
2.997607377838227283e-01
3.467986186326578735e-01
2.605502726776069977e-01
3.507795039497459411e-01
2.919489894603449764e-01
2.337596533291139700e-01
2.660817966961538938e-01
3.122048148450107252e-01
2.934139714614275030e-01
2.573597086164199355e-01
3.151767009645595752e-01
2.609673165995179955e-01
2.064146319006676944e-01
3.061187384765992059e-01
2.511569701459084869e-01
2.549861335270919849e-01
2.800879465663797530e-01
2.646136275666733928e-01
2.536334784343833859e-01
2.418416880121902479e-01
2.101575240047545146e-01
2.301850011126497231e-01
1.752609747782933880e-01
2.296441858851370199e-01
2.439863653821777723e-01
1.816952871253222357e-01
2.218360449449461869e-01
2.001493152952386334e-01
1.945272409395459590e-01
1.828331782582105491e-01
1.879207105568959091e-01
1.461631128922168399e-01
1.765839929893462668e-01
1.632516293485944681e-01
1.057834353564836849e-01
1.905002553937290566e-01
1.077304150061755561e-01
8.767448973056660155e-02
1.514013909096580401e-01
1.125825394723181105e-01
1.188663447750328561e-01
9.880606460724940254e-02
1.104146592104471442e-01
9.686360776246633053e-02
7.850854105877227984e-02
8.943113714588470098e-02
5.059107454543114446e-02
9.605474213156331431e-02
1.278101743146526359e-01
1.093718843282970171e-01
4.185152099425677036e-02
9.528500804083075981e-02
7.232215404643184409e-02
5.868788854840602254e-02
6.723999555460538624e-02
1.175198955422877140e-01
-4.975515598393855099e-03
-1.370043680011871767e-02
7.396233476276343338e-03
4.946801703172690190e-02
8.198084775196445850e-02
4.169614254761115635e-02
9.572549461831560136e-02
3.757415834672562377e-02
1.155404290752903990e-01
6.489793401626287039e-02
4.914109183299179145e-02
4.759490272931229948e-02
3.711911748257484128e-02
3.531904037818842101e-02
3.481431115647148911e-02
1.253265710351738060e-01
7.260685460655841306e-02
5.036683245185667734e-02
2.421912833313056429e-02
3.166698810294956562e-02
7.534556600463985371e-03
-1.922930186220489848e-02
5.298148713799448462e-02
-1.847476202626301828e-04
4.631232160184964308e-02
3.755627400837754926e-02
5.643154353565871945e-02
-8.336604153851503649e-03
2.461120787329929005e-02
-1.272701421816018266e-02
1.178984333519057619e-02
6.780139462507681070e-02
3.827685937734442989e-02
1.920042856096123435e-02
1.139961550296604217e-02
3.861210090174095610e-02
1.016824208729493091e-02
2.519847210415901775e-02
1.214336504511129636e-02
1.171117644392203130e-02
7.365573418330211009e-03
5.151161886920335720e-02
7.797071352998001526e-03
-3.223195832685103041e-03
1.472138296473019317e-02
5.629289752350821741e-02
6.920178237065860438e-02
-6.370501283029638556e-04
1.088993381542647104e-01
7.419548653866112065e-02
9.794244637229637673e-02
7.175295539360163066e-02
4.645792451793139682e-02
6.759113328901164564e-02
7.269172880994884123e-02
1.054418352625201838e-01
8.071259029933700035e-02
6.800358073806674064e-02
4.427397419552590863e-02
9.271052612534630422e-02
3.387139022972222163e-02
9.746850814347922387e-02
7.211351109518297775e-02
1.793326077173227895e-01
7.084180609804291429e-02
9.598779482785249617e-02
9.067016865184421293e-02
9.986309873320149688e-02
1.883706248933703920e-01
1.175815226331179408e-01
9.655960982501902989e-02
9.710248467192704458e-02
1.221992771865176158e-01
1.484465944733834586e-01
1.308737352579977808e-01
1.368353319271750912e-01
1.027433821449591084e-01
1.429072427051402971e-01
1.187453727243111129e-01
1.152111450618380911e-01
2.072225141710413998e-01
1.527886221793482990e-01
1.300964570110671736e-01
1.497087096128503769e-01
1.684533367898014278e-01
1.925995566261350100e-01
1.377718378127193166e-01
1.764700642910217998e-01
1.534268954895862680e-01
1.675612382571535497e-01
2.345925072816204271e-01
1.627918083831531304e-01
1.179463564087638167e-01
1.302568524450023468e-01
1.313925260981808063e-01
1.879010777857964831e-01
1.671311327437800531e-01
1.908010491701921663e-01
1.865725389123381872e-01
2.108641510290222287e-01
1.741674354472655117e-01
2.989094674688153597e-01
2.782005324322210926e-01
3.244519091499802887e-01
3.889853689156801964e-01
3.616346888676591487e-01
4.765128313323334641e-01
4.717603727942178971e-01
5.852705156503532624e-01
6.025682390599491622e-01
5.601592592224301503e-01
6.685147483770700338e-01
7.086517212868097548e-01
7.925228016710909040e-01
8.545365998174676569e-01
8.817399741603295649e-01
8.671519755095469240e-01
9.625291683588901304e-01
9.863838296012490403e-01
9.747350043398798070e-01
1.034952370159812229e+00
1.013113093449717672e+00
1.039855228895192774e+00
9.583328218471692805e-01
9.538304392527607867e-01
8.942115599446555096e-01
8.354232098120859540e-01
8.296950986509742387e-01
7.174369494440944184e-01
6.941703588549584802e-01
6.617354396219337076e-01
5.934944820889038741e-01
5.493815285326708597e-01
4.463285670221764923e-01
4.489273321188521626e-01
3.979768149927084275e-01
3.371035844923693792e-01
3.312694029454966160e-01
2.149182736702320851e-01
2.746916367479352306e-01
1.894933002907025210e-01
2.055577194678669395e-01
1.538017195081360922e-01
2.074538408684238333e-01
1.437662036413464572e-01
9.378449084817964965e-02
8.708293502411607045e-02
1.973505028239333492e-01
1.222640362626900706e-01
1.635432889952083135e-01
9.011462948511228532e-02
1.290480963414211701e-01
1.371134254265997110e-01
1.424420968657334197e-01
1.774129770761717906e-01
1.442971411710338436e-01
1.736673607253990115e-01
1.825842453359962092e-01
2.093029695306330706e-01
1.192334592557117573e-01
1.771463994705068656e-01
1.644976087047259616e-01
1.467040277008481719e-01
1.525900395976326207e-01
1.994226743530889689e-01
2.017203327687120129e-01
1.911760504294653107e-01
1.567497182963793478e-01
2.039496946585909742e-01
1.842778350604181714e-01
1.706376191710860524e-01
1.793701512070267068e-01
2.171312594209091063e-01
2.146457712191692235e-01
1.877494694830137978e-01
1.930917438071833303e-01
2.168843421226599177e-01
1.974273866281925915e-01
2.472793042602461078e-01
2.046235301742916901e-01
2.191279350519064195e-01
2.168601430499682015e-01
1.868833157271525824e-01
2.083740315717008962e-01
1.834587930084312368e-01
2.087251576958608079e-01
2.164318660965748875e-01
2.048590142184167628e-01
2.200646419544797505e-01
2.496720944939215536e-01
2.246323252695090755e-01
2.334849605463553968e-01
2.060643035090155006e-01
2.028196022218953232e-01
1.813070133211284740e-01
2.374019164904301038e-01
2.008944843660154245e-01
1.992727359080020966e-01
1.608772774827286756e-01
2.623764768262798475e-01
1.784673999234046293e-01
2.204284310908983247e-01
1.609365909341143042e-01
1.702113369704351675e-01
1.432748899380846264e-01
2.181639630679670927e-01
1.036423481969238475e-01
1.331269338786845446e-01
1.433285801566804019e-01
1.417521596499717595e-01
1.660075368698220588e-01
1.145334095381449618e-01
1.493067976622018400e-01
5.765785512316511097e-02
8.228605499526744915e-02
8.604963581005843631e-02
1.347679849151118270e-01
7.356294550275963018e-02
9.674149726650763115e-02
8.677499887491510466e-02
7.736364189280470205e-02
5.299949118921531976e-02
9.832100964309645197e-02
3.181732364026162302e-02
5.378632850193157400e-02
7.708050604854452259e-02
3.810638760880671189e-02
2.043246431660216550e-02
5.523583594161036309e-02
6.337469153091954133e-02
8.047400286584162343e-02
3.520997583086659527e-02
2.467329106420590445e-02
1.387570391304839695e-02
3.058290739018694471e-02
-2.947563136167806463e-03
3.987033094421660318e-02
-2.408040188040820595e-02
4.587273892370843931e-02
6.658892419542794539e-02
-4.524652712792771869e-02
1.202422765854277431e-03
2.062012484540180074e-02
-8.041972151841124405e-03
-2.052753214161183795e-02
-2.055904745745834247e-02
-5.085055129304086319e-02
-1.374422281997559475e-02
-6.899220896325324037e-03
-1.774710662938320735e-02
-5.217399094631942902e-02
-3.855066195205120172e-04
-4.454082876668355451e-02
1.224071427996090144e-03
-2.388537349042066382e-02
-3.813073586936061715e-02
-3.915921303650045371e-02
-2.098835091204616365e-02
-8.390367700393314143e-02
-7.341975929034882942e-02
3.618440059750309412e-03
-3.839777966632321182e-02
-1.997789717609462640e-02
-1.073374651238307234e-02
-4.456740312234727663e-02
-5.600759072054813104e-02
-2.781195008268231086e-02
-4.933470315644317150e-02
-1.204720932320595128e-02
-7.917578944774648908e-03
-5.714459483388049932e-02
-4.157704822645073156e-02
-4.078966852382354125e-02
-7.017675140960479008e-02
-7.294100168435593834e-02
-4.640508720716040453e-02
-4.740081589825310970e-02
-8.351561679986821418e-02
-3.681554307674117510e-02
-2.381314668952534339e-02
-4.085620791220129222e-02
1.465242221958686086e-03
-4.179303533920710606e-02
-1.300655514726665324e-02
1.419412261775170048e-02
-3.899205121233649540e-02
-7.058798525638475263e-03
-3.373706349042733532e-02
-2.778677850210903993e-02
-3.130472618358866310e-03
-7.566996777683188125e-03
4.398533302783657478e-02
3.089374339475636083e-02
-1.163596303560202744e-02
2.042652397940502434e-02
3.112569404385308325e-02
-3.442749838573245375e-02
-1.286437622016978893e-02
1.874835766039518320e-02
3.021852019493981301e-02
-5.198717964722675278e-03
4.617111124049312620e-02
2.610218058701765237e-02
2.789857593509622452e-02
7.203266311424794122e-02
6.278858318757440937e-02
8.558698458280736276e-02
5.467511241483601764e-02
5.554504259248736059e-02
2.809566905314332674e-02
8.720917211490257503e-02
8.178713410818375107e-02
6.804510687103471067e-02
6.518497429943959087e-02
9.795340625222871689e-02
6.823509245690545510e-02
7.011074035502670720e-02
3.840847961052457765e-02
5.886891549859808725e-02
1.064509546456528510e-01
8.287923794342322292e-02
1.441786192530691291e-01
1.017182949391667868e-01
1.376911747460503876e-01
9.633212413987404799e-02
1.398519898148438689e-01
6.696410163770914747e-02
1.343538185473923952e-01
1.197643499206887951e-01
9.116714552238518177e-02
1.630174736951520431e-01
5.403111989738400983e-02
9.041187948628987003e-02
1.245539302648533686e-01
1.066106749859840053e-01
7.712815001724583619e-02
7.378206391731920166e-02
9.650859472053738286e-02
1.441767915138852385e-01
1.604717879635889910e-01
1.434973838325885320e-01
2.267461207908222642e-01
1.812155636023140282e-01
2.197317159060361291e-01
3.106024813167834187e-01
3.026603648101325872e-01
3.888561862628930332e-01
2.933461206712064673e-01
4.099275704937007658e-01
4.858559233586098314e-01
4.770238714855978834e-01
6.034033192895580378e-01
6.952273487307203403e-01
6.713177061936725920e-01
7.393366230769473635e-01
8.075191198202333887e-01
8.171697519435783263e-01
8.686425167461555574e-01
9.012983581664055777e-01
9.034621682887526983e-01
9.292649555954224372e-01
9.528537031568368176e-01
9.388415991693690454e-01
9.566952755375233153e-01
9.318823520874257582e-01
9.035920945218949285e-01
8.667767616020519705e-01
8.242154455244777855e-01
7.792051455748568722e-01
7.096300673303290729e-01
6.332286725142771688e-01
6.718894815775702245e-01
5.204092862090333726e-01
5.385814528136706469e-01
4.470831193810538284e-01
4.346383592259344675e-01
3.633509922203727038e-01
2.892025318364960795e-01
2.755785581977531762e-01
2.405431914300588947e-01
1.389578892628928197e-01
1.080019282596860752e-01
2.234516720965177838e-01
1.777837414494943535e-01
1.860747266554041712e-01
1.411618964337829074e-01
7.868014074651900891e-02
1.764389652789746799e-01
9.442564459258200038e-02
1.308442295980293268e-01
7.502789618953907558e-02
6.996136787420736969e-02
8.689051594840430104e-02
1.064866796979246355e-01
1.016769413999610849e-01
1.092992362622795949e-01
1.139759923964426963e-01
1.017328172180208545e-01
7.875394217003203745e-02
1.540883939891511678e-01
1.331398872796527855e-01
1.211049933992021654e-01
1.209891948875892187e-01
1.949570289413409818e-01
1.380296647793241571e-01
1.836186817096855384e-01
1.433492651557737307e-01
1.699709317356354055e-01
1.747031809456189855e-01
1.410055095861491026e-01
1.619742525796805666e-01
1.672101073105246305e-01
1.233344787624637007e-01
1.397478381148036242e-01
2.019640664659483054e-01
2.827647086859961245e-01
2.208845176352575435e-01
1.958391720269173353e-01
2.036052833070469692e-01
2.359207248364132703e-01
1.946017993730831397e-01
2.382359761776972340e-01
1.927216061901781130e-01
2.198763382069742200e-01
1.610654018502651608e-01
1.543293174720447025e-01
1.857625117656154234e-01
1.929585288935777021e-01
2.467206196432801812e-01
1.768535588529235869e-01
1.948905041714440456e-01
2.078869515456639727e-01
1.922980622101160275e-01
2.033050634180055549e-01
1.720143634359084794e-01
1.688726503387648625e-01
1.966030844191619664e-01
1.974202482957115312e-01
1.858363824104508066e-01
1.934577332574044795e-01
1.431107932689921203e-01
1.760191492075193764e-01
1.877662672602350702e-01
2.050499875987238929e-01
1.402607316947939997e-01
1.917167627498151672e-01
1.648187282301880607e-01
2.187507800741990138e-01
1.623697704351459159e-01
1.335212423646088831e-01
9.307601450690253242e-02
