1.096647970143943995e+00
1.106821863478919532e+00
1.057348326808881467e+00
1.053833103545295469e+00
1.043002154129575754e+00
9.464845640907809665e-01
9.090024365748716750e-01
8.170917282383107771e-01
8.042089542798547264e-01
6.789553691545726632e-01
6.518145395640383422e-01
5.876031915399517747e-01
5.774145656084231915e-01
4.698142243379478944e-01
4.144493874627601659e-01
3.680476456417954290e-01
3.109123150637880806e-01
2.705126550677382502e-01
2.638461988004056069e-01
2.403735548999303973e-01
2.211546529495498903e-01
1.591142570558052027e-01
2.340593493283900095e-01
1.099664101073802858e-01
1.353927415011616509e-01
1.159180871544670810e-01
1.681784410169748223e-01
1.174889853599928868e-01
1.317160683789641573e-01
1.753511084192087843e-01
1.062977290375527739e-01
1.046803238964884863e-01
6.617403054374459970e-02
1.477083809938055103e-01
1.055685207108529589e-01
1.246031201133293159e-01
6.695978896683815740e-02
1.362123064908500325e-01
1.983831474673013184e-01
1.346821855839053783e-01
1.405770767332545079e-01
1.182652679726317602e-01
1.188115148213738231e-01
1.194856616114094994e-01
1.949398008165256213e-01
1.360023815067165076e-01
1.644962407089016199e-01
1.815962096153981575e-01
1.504002960726678606e-01
1.832060631494448200e-01
1.814004916437424453e-01
1.994717812517883548e-01
1.694776600785042053e-01
2.057468106948042441e-01
1.893298053793790459e-01
1.981178269219683319e-01
2.345003695065992488e-01
2.494438023804498028e-01
1.361565512016492119e-01
2.231973142398606114e-01
2.017471122857006915e-01
1.536425179698124865e-01
2.238409923003933377e-01
2.402600321256257720e-01
1.735363187698253096e-01
1.656483885730190564e-01
2.305481947410160659e-01
2.080195857271225357e-01
1.987207449468303411e-01
2.455194798071266560e-01
2.078155422225418381e-01
2.123673165095395776e-01
2.120541241704672064e-01
1.602005616223327877e-01
2.042108749273403023e-01
1.393909739925736913e-01
1.564679746473475741e-01
1.885566652562244427e-01
1.567888732307619881e-01
1.866041611613920570e-01
1.353021251603593045e-01
1.882250335546294673e-01
1.833920146293554210e-01
1.209089131898237746e-01
1.427319542105220662e-01
1.188251060917225876e-01
1.550541108211844210e-01
1.187936278424744918e-01
1.403887859112401548e-01
1.347129769028338475e-01
8.038562507938598611e-02
1.153958072781966493e-01
1.588961573091037804e-01
1.036550955148431291e-01
1.679789253181723507e-01
1.361222319824168248e-01
1.511894933664688356e-01
1.005556819205748464e-01
1.432294679208266364e-01
1.281854350784979446e-01
9.912365412214188543e-02
8.240256401501311334e-02
3.016454340869957618e-02
9.986403075394284512e-02
1.029429779624811692e-02
5.669305177589849948e-02
5.811504062454592862e-02
-8.364947152723553603e-04
4.356149445377663354e-02
3.100907350485009040e-02
3.277692743645942847e-02
2.041620055346887036e-02
1.160538602269644420e-02
1.007912046853520066e-02
6.943266618168494886e-02
2.542292146371218781e-02
3.233236789890864965e-02
5.045124522463309558e-02
5.896333008964922684e-03
-1.718354730277510747e-02
6.738969108229485305e-02
-5.129510351123664491e-02
-3.135856828011288067e-02
5.300585131470682276e-02
2.696615906283804376e-02
-1.357743680702337349e-02
-1.774597464666196125e-02
-5.730190913889491450e-02
-4.419876279525462859e-02
-4.077869407741310792e-03
-3.532343821715781124e-02
-3.120144156129344912e-02
-2.251761311847386149e-02
1.016255747689027295e-02
-2.799100150711759938e-02
-1.924979956831254085e-02
-1.029556018404549286e-02
-3.531939537278543095e-02
1.142989071869806444e-02
-3.610677523224790908e-02
7.927591713227148673e-03
-2.632178326009658453e-02
4.678014186597712065e-02
-4.104185468389852376e-02
-6.835357831715382915e-02
1.589802572542489342e-02
-1.508357258753148175e-02
-1.663364073394935777e-02
-2.164426802775664543e-02
-1.018142186689886125e-02
-3.240735604514928536e-02
-2.940249114623365648e-02
-5.131743367140865347e-02
2.657080850472468003e-02
2.179140788103828275e-03
-2.165912493073935199e-02
3.061025376524808411e-02
2.138175272113307726e-02
-1.468190614489395945e-02
3.408641225677971204e-02
3.300638279814775006e-02
-2.029250956249398913e-03
4.580207815365125446e-04
2.281885453708249259e-02
1.474754668117538373e-02
4.112662779592256290e-02
5.021262093793461834e-02
4.235418764623592736e-02
9.605768382151735896e-02
4.126940808841808583e-02
1.422565640842789886e-02
2.057070996181550870e-02
1.296030640858214511e-02
2.744151896206945343e-02
1.237502513223403544e-01
2.787861371443477176e-02
6.242271757355201400e-02
8.232713092121587972e-02
-3.002170007460041451e-03
1.389511556497455003e-01
1.063486257352176112e-01
9.788580512800365563e-02
9.202574060227741715e-02
1.894210992696608586e-01
1.064635514501427738e-01
8.967024284836880299e-02
1.056626151599388830e-01
1.074690024726592807e-01
1.207673998262205756e-01
1.225345042517346772e-01
1.325544253595901667e-01
1.100790564461488069e-01
1.596437494130124868e-01
8.831143278934804053e-02
1.769630477775923083e-01
1.398429181762642914e-01
1.337775487874414693e-01
1.286257367800435203e-01
1.925609509028453070e-01
1.578431991382208688e-01
1.342520583256309463e-01
1.318127679908407124e-01
2.044548688435955386e-01
1.813934039636864726e-01
1.918981680284403690e-01
1.526714354717191302e-01
1.520948302695949717e-01
1.372081031498408321e-01
1.197551990975447428e-01
2.008357643936090897e-01
1.569911117454289295e-01
2.045091963530681067e-01
1.601259457822335197e-01
2.202518793672080255e-01
1.984578258503226500e-01
2.212794959814129436e-01
3.169547952396000734e-01
3.395376740837769414e-01
3.221428274452707297e-01
4.028429013254566926e-01
4.484095650485995233e-01
5.049655957861665101e-01
5.212474962102900955e-01
6.440079920185953766e-01
6.992790309258729575e-01
7.844894574047329705e-01
7.095133467811571837e-01
8.272362944019732156e-01
9.148966835036728140e-01
9.437755997128246532e-01
1.023046819362387838e+00
1.019752250507129698e+00
1.027556713586083470e+00
1.117187592774239402e+00
1.088001680730634524e+00
1.129147647764190410e+00
1.094984608093406919e+00
1.120452283318407405e+00
9.867677758052222359e-01
9.904273525439579728e-01
1.018295417295731475e+00
9.630488607234164444e-01
8.778895366890940855e-01
7.676983788519899932e-01
7.369158965154811725e-01
6.558700130951218288e-01
6.457123375015173528e-01
5.964073115969693584e-01
4.358646485774972379e-01
4.986294430546174272e-01
3.707931689513848106e-01
3.056430734833899265e-01
3.421891720159803696e-01
2.552111922429077251e-01
2.054670568127950903e-01
2.532933570963292746e-01
2.092483191084704430e-01
1.753699422369978944e-01
1.855373982912881248e-01
1.563233178078898555e-01
1.920961091330831427e-01
1.086739084987577292e-01
1.361454541897158255e-01
1.364861774341607492e-01
1.345934915052183212e-01
8.600823826025802421e-02
9.855533508271684118e-02
1.473511358852616360e-01
1.007570875405233435e-01
1.390438849839110147e-01
1.997655652511531044e-01
1.297675903951091836e-01
1.809092615163705453e-01
1.758770800523489219e-01
1.627239360217488384e-01
1.318030373183595727e-01
2.383004910531474341e-01
1.859098026519189761e-01
1.849843255289412014e-01
2.127713859543453878e-01
2.223815747763605577e-01
2.214837016002025594e-01
2.550373014731013299e-01
2.243258137265194407e-01
2.647004383277025696e-01
2.320999590354717868e-01
3.110450738145217886e-01
2.497370970891809039e-01
2.463325212468024383e-01
2.022631097691960089e-01
2.651552118766502542e-01
2.918964234393864321e-01
3.065425446837873324e-01
2.458792412318387965e-01
2.831337607810808232e-01
2.780198153203182199e-01
2.917538137590528491e-01
2.417094223340396086e-01
2.064291244717263163e-01
2.440915882962879646e-01
2.620137229978730664e-01
2.422144809623087980e-01
2.605785225173420372e-01
2.608799649653297803e-01
2.514104162330826342e-01
2.622329746681053009e-01
2.334281751249240033e-01
2.614847864391586230e-01
2.429942234453665306e-01
3.041017742913088573e-01
2.847684562685646181e-01
2.549176586740229400e-01
2.220769106200914944e-01
2.025663823892728255e-01
2.444600746507951117e-01
2.233716624233173520e-01
2.282617772133379019e-01
1.938243682482653218e-01
2.113319158339639903e-01
2.085280361335163646e-01
2.092133147728259812e-01
2.389429358871560660e-01
1.829048485938633006e-01
1.910476561880767032e-01
2.395402626541329738e-01
2.064393028256067408e-01
2.298885607727260416e-01
1.505867390072564704e-01
1.870394445748045920e-01
1.851541094484282501e-01
1.747346952913346740e-01
1.975286736779422736e-01
8.081175523182067277e-02
1.799270955470522182e-01
1.845965017861272983e-01
1.235650599981114595e-01
1.153030116570764457e-01
1.705900595578714873e-01
1.247553439813471055e-01
1.284987517045646788e-01
1.259473388157426876e-01
8.524679927207519381e-02
9.979432960216917670e-02
5.731474718283195713e-02
9.245547299062537028e-02
6.803762851471248374e-02
7.168476213058587454e-02
4.399483601313679271e-02
1.372700570561311839e-01
9.615066059992245784e-02
8.418205176762040554e-02
4.077413890454033990e-02
6.082251059232497009e-02
6.404339380904550127e-02
6.008316630386222740e-02
5.031854248101882976e-02
5.525227751695410694e-02
8.341142263356123021e-02
5.624969951408174962e-02
5.537937531954548881e-02
5.970568833036790646e-02
6.551851805374966919e-02
3.104646058938790795e-02
7.512841577767347123e-02
5.636437058610513362e-02
5.617606014658701324e-02
6.561559077059674061e-02
5.121668322341269008e-02
4.439687009069540752e-02
-2.040823271369986147e-03
3.686621425975356026e-02
4.914422965050022768e-02
3.143773177251682482e-02
2.689219955281840074e-02
4.201727040914655931e-04
9.628056003451467004e-02
5.772159825047508408e-02
4.677773272752065725e-02
4.793855417084530446e-02
1.555151179155583874e-03
6.193172764164328603e-02
8.461541497268626477e-02
6.842403731078923468e-02
3.411775912416795814e-02
4.372892774856256687e-02
7.698487553896372904e-02
1.045192269808249835e-01
-5.527352322691164721e-03
6.052311950010010738e-02
2.374484038072337266e-02
9.736516521476901165e-02
4.590435046770490607e-03
6.409462528541234883e-02
8.084855027982115749e-02
2.660168261972860673e-02
8.246728670649813853e-02
9.963191197047020775e-02
6.890680520087173744e-02
5.267754328674813247e-02
6.479705925023737656e-02
5.641157397663239259e-02
8.823068523789229234e-02
1.319968206841354019e-01
1.442861975950675835e-01
9.091448998843326690e-02
1.577593505252416206e-01
1.268769815277763779e-01
1.461214696330969537e-02
7.230420772505002924e-02
1.014950658615509371e-01
1.079475956328818653e-01
9.482230778889011447e-02
1.104598101445127822e-01
1.205032224371124228e-01
1.706087163708727705e-01
1.406131439558397644e-01
1.812523207035298678e-01
2.162693956538721540e-01
1.504564861545798771e-01
1.318091688428992547e-01
8.924613648841643598e-02
1.377016880204043892e-01
1.347617287444072276e-01
1.802152295765528933e-01
1.430280958305163996e-01
1.718854198451050808e-01
1.768080246386244114e-01
2.304015070988572611e-01
2.071503144021009102e-01
1.806366993286213640e-01
1.947727748659102420e-01
2.376304578622945030e-01
1.670212975603572181e-01
1.815345107375850309e-01
1.476014494532759680e-01
1.926948820844671673e-01
1.648943407024489327e-01
1.785561087872137298e-01
1.971185937627587814e-01
1.532344149851068704e-01
2.280767415074386462e-01
2.090024689830556892e-01
1.986036284174216848e-01
1.652221729856213073e-01
2.646367750254239870e-01
1.616672850139304896e-01
2.609209006323790492e-01
2.542211247062952095e-01
2.863133757556082237e-01
2.690300915372258461e-01
2.920100122473022197e-01
3.190468119249849632e-01
3.979036789348667225e-01
4.269990024886967106e-01
4.445055749243460030e-01
5.365362980966559281e-01
5.400293686270215554e-01
6.081700721914474750e-01
7.028933687353606796e-01
7.499236551076673418e-01
8.154440766471792168e-01
8.943112998014096648e-01
9.877922523553186451e-01
9.776336299310448563e-01
9.381751708106447207e-01
1.090552743972478700e+00
1.132324538201615605e+00
1.130192272658377295e+00
1.153620893219030163e+00
1.132234502282561284e+00
1.174382201523805458e+00
1.120302614048493073e+00
1.103977338738851843e+00
1.130734511192990066e+00
1.039921280545689886e+00
1.011433992349391353e+00
9.572624021776553471e-01
8.996762517508751777e-01
8.299692265548612724e-01
8.066726437617371959e-01
7.058831164946933745e-01
6.181732436154702137e-01
5.730551630267697316e-01
5.731785353088499901e-01
4.791840292604497842e-01
4.606829953725071758e-01
4.007067505535932272e-01
3.587160813103298929e-01
3.224244648046232786e-01
2.848536877533090483e-01
2.602186816962533955e-01
1.864081085922230652e-01
2.175723425543123479e-01
2.165499404595622179e-01
2.116727616302802595e-01
1.640258281718202094e-01
2.243638461609782642e-01
1.575513992427128307e-01
1.774570971807070130e-01
1.975910436505109169e-01
1.807784499909556308e-01
2.326393875098311526e-01
1.836607025810207683e-01
2.088964536996721355e-01
1.648427656817166020e-01
2.222157072937710476e-01
2.706425294276630367e-01
2.280996223116705801e-01
2.322568721020772664e-01
2.466837415546025980e-01
2.046881127771766340e-01
2.445901221980573137e-01
2.561604324790136555e-01
2.612921617523948914e-01
3.075803518396441616e-01
2.362655036451039858e-01
2.881789634253810739e-01
2.347083600147676086e-01
3.083325627119263279e-01
2.774445837687383731e-01
3.202349152546288269e-01
2.347037222263019252e-01
3.665372805850249383e-01
3.052934136313389391e-01
3.303096523401637952e-01
2.372361141478977475e-01
2.959510220841935491e-01
2.528934056032064448e-01
2.826708378485587869e-01
2.231111699088266231e-01
3.083770820704017090e-01
3.087937637598290874e-01
3.708100334680929366e-01
3.025728084635764814e-01
3.279999732588191330e-01
3.115510759772728289e-01
2.307555948201379104e-01
2.883911431711256856e-01
3.478705674935220760e-01
2.530322958566658120e-01
3.202182015534509318e-01
3.112982428408830882e-01
3.208372886291360193e-01
2.672476132777329427e-01
2.890473413840334849e-01
2.616351329599513331e-01
2.642116708123503077e-01
3.514340126962092192e-01
2.844803878961082999e-01
2.799197693945886245e-01
2.485260817753521811e-01
2.122675122518645763e-01
2.220305321554224554e-01
2.349289059669994739e-01
2.297559113612555326e-01
2.650445491028179390e-01
2.475512983187567462e-01
2.560741919078055595e-01
2.552365940287872892e-01
2.118608075544137492e-01
1.899669309779277171e-01
2.680755179863875126e-01
2.290561685411549031e-01
2.298641481773037731e-01
1.645876596827059446e-01
9.148653361428493724e-02
1.870212671697064066e-01
2.348800919624766670e-01
2.121197986973536176e-01
1.396998644781380361e-01
1.520865928551295987e-01
8.916038119105358650e-02
9.458707481384460991e-02
1.540952503469405765e-01
1.771069485191653359e-01
1.129470663695912452e-01
1.188024094151148569e-01
1.471333149535407336e-01
1.429337855734495177e-01
1.528501809454965443e-01
1.220522897347595948e-01
1.237360754072776847e-01
3.967049571834882493e-02
7.189955432243046174e-02
1.104171396463303756e-01
6.657239920880358985e-02
6.301961125505980976e-02
1.155827484525053794e-01
7.362220956826052987e-02
9.160145879694267523e-02
2.063353177587844145e-02
3.274377602487158617e-02
1.086069279076205818e-01
9.280626614759378279e-02
8.690850562235483134e-02
4.389206622168434491e-02
1.027703633169799041e-01
5.882814127609532068e-02
2.714556327968592475e-02
1.316212237512853767e-02
-1.102371417444460155e-02
7.783983287191076350e-02
6.547129765440615201e-02
1.635922291315431987e-01
8.708379551662003004e-02
6.700804625211295718e-02
6.971381636133716642e-02
7.254045521419728859e-02
2.816223516989879716e-02
5.366972848572607035e-02
7.091124062213519097e-02
7.206003827457785338e-02
3.686106293829817526e-02
8.620379287191873297e-02
7.326308127449564223e-02
4.884608406840722922e-02
7.992624975784594354e-02
6.613246290137880790e-02
2.911788244045916685e-02
1.233184180152845921e-01
5.284042844099556130e-02
7.586279654214933554e-02
1.138302936157283285e-01
6.478989199014170697e-02
9.066684644107975144e-02
3.325868578521076063e-02
6.344782991269312666e-02
6.383933421177494238e-02
5.191909547303023842e-02
2.578808086147193687e-02
6.038871223299209501e-02
1.205633249286104658e-01
1.012736548678764420e-01
6.943821785912815403e-02
3.784757036536948865e-02
5.023924279611573229e-02
8.039592868450803897e-02
9.104257109056884678e-02
1.190195628998046845e-01
1.295593119248474867e-01
4.416792791209835783e-02
1.079618151522230285e-01
9.942616451877031580e-02
1.069722192263585919e-01
1.528588092304829504e-01
1.389256638006647337e-01
9.738283414498408175e-02
1.236537783370513233e-01
1.098892906734236508e-01
8.587034711110620722e-02
1.361816893798576678e-01
1.574657607051253294e-01
2.221557966807420348e-01
1.624814664326162394e-01
2.398817817481511960e-01
1.604682398726949011e-01
1.773381919731745193e-01
2.387787391266538162e-01
1.811915266420335291e-01
1.356992992462073278e-01
1.863208363736432727e-01
2.071445787152459694e-01
2.211346961169772807e-01
1.260611335917241616e-01
1.883868998408238793e-01
2.004852327552799351e-01
2.113069927538484549e-01
2.309185884649858356e-01
2.126177426571931595e-01
1.882407379445820983e-01
2.095348772112406444e-01
2.323983858431519500e-01
1.515537156999514634e-01
2.193032587539199274e-01
1.550360885411244394e-01
2.132599820003074631e-01
1.515119509963162858e-01
2.070000397162517491e-01
1.922995490004682506e-01
2.050911569930192468e-01
2.142899187741403311e-01
2.697154847759315466e-01
2.395685662321214160e-01
2.157646097698774912e-01
2.808095700541908268e-01
3.277710313721274304e-01
3.569831007246206944e-01
3.572226582992916732e-01
4.636971233096618961e-01
4.366716927863188435e-01
5.081826012929263614e-01
5.799259143417978546e-01
5.661062639410447961e-01
6.932764817817369529e-01
7.958397003890684829e-01
7.778395246855046574e-01
8.922704895181672313e-01
1.029993244820260667e+00
9.802372612835532628e-01
1.065008218267072593e+00
1.178542781085649693e+00
1.121215792072337569e+00
1.129401426713512624e+00
1.190688971293516918e+00
1.115856172617130326e+00
1.271549844664577433e+00
1.118463103314804474e+00
1.050370121261150702e+00
1.068695377828801751e+00
1.076903473178512316e+00
1.038712594952396095e+00
9.052556875001679382e-01
9.101410485238119463e-01
7.851799184362672213e-01
7.849472623781978964e-01
7.333316371911023923e-01
6.116588055380379751e-01
5.380708535475644538e-01
5.573420755966690399e-01
4.638612736484474253e-01
4.334013737114065234e-01
4.090246142666983942e-01
3.751835216879033652e-01
2.410806590956998952e-01
2.888504266558345468e-01
2.446734415526729545e-01
2.472108012872369642e-01
2.383646835509212469e-01
2.246294227434977864e-01
2.188318084956070164e-01
1.410452726032010995e-01
1.842490420994245259e-01
1.406463878326930372e-01
1.864209947514168797e-01
2.443523753502123974e-01
2.242715210296832851e-01
1.999084310717501312e-01
1.717186195859183862e-01
1.580570467902299159e-01
2.232523298904850739e-01
1.925306972325438737e-01
2.114720659999264063e-01
2.026911517584669697e-01
1.972268097893184469e-01
1.806925392798575114e-01
2.326055509524017906e-01
1.913404278314762008e-01
2.784764781129847044e-01
2.052751350005363185e-01
2.717041650214204740e-01
2.306780951115372513e-01
2.678908092219746129e-01
2.540629271380558385e-01
2.542132006611345640e-01
2.441662165683473606e-01
2.663786696854189562e-01
2.410698890318066501e-01
2.508336689816343945e-01
2.677993959595208473e-01
2.487491803530528234e-01
3.143578185936092284e-01
2.687512115798951773e-01
2.815113790081433809e-01
2.597542996233999091e-01
2.471185424504030448e-01
2.527623701926289823e-01
2.622497525731145029e-01
3.134114993414499062e-01
2.736218415795290682e-01
2.947525066939510885e-01
3.234886853786792527e-01
2.555830143027433832e-01
2.399927739878534028e-01
2.525027477018673139e-01
2.545465592263573829e-01
2.034529017239046222e-01
2.382126794736464104e-01
2.431732156642076037e-01
1.720109212136876065e-01
2.388267288818761158e-01
2.692969194104328778e-01
2.447269516072762552e-01
2.157508088085415554e-01
2.100895855064656148e-01
2.417114251292474814e-01
2.385594487964447508e-01
2.321874360510757240e-01
2.148812006187799939e-01
2.499756412393823735e-01
1.966198633636437876e-01
1.702882872096860845e-01
2.513234465486612335e-01
1.842723979488703756e-01
1.843857904129402869e-01
1.572410780411205300e-01
2.128208236311074364e-01
1.813757871986284576e-01
1.853405171943789953e-01
1.611784910438164298e-01
1.953634678660631507e-01
1.638879762903129034e-01
1.193285797775313212e-01
1.268290298790432646e-01
1.726496164918478460e-01
8.327716936729986918e-02
1.545392416415236891e-01
1.282752101310820902e-01
7.122087538216620439e-02
1.201567931743898615e-01
7.238116094937536993e-02
4.574913944515920927e-02
1.114785996962449760e-01
1.114216189753727965e-01
1.055486282637577988e-01
1.135588112882717493e-01
8.611043339499332983e-02
4.541884141697159760e-02
1.147916454864003205e-01
9.690706303047956494e-02
1.062562700290692053e-01
5.602231539104746832e-02
9.695864720566826911e-02
8.205863103220058241e-02
1.171446653725841253e-01
3.054108431446404814e-02
8.231480987963156470e-02
3.862211620720348154e-02
1.741704600608606074e-02
3.592227426720745465e-02
4.178869917048024657e-02
1.168172351074895851e-02
2.209500484704724627e-02
6.104884232691190626e-02
-6.304680890349906655e-03
1.397730223212196622e-02
5.885742547437070732e-03
-1.064036776534890531e-02
-1.380668868574641203e-02
8.987292786171722364e-03
5.399798277816408865e-02
3.846365620756606735e-02
1.389501426633490272e-03
2.817918998992734875e-03
-1.491679738751024338e-02
-9.679614556709232112e-03
1.151839148116772134e-02
2.906618541662141925e-02
5.501752247965131098e-02
4.081315653150487111e-02
-4.231066475698486151e-02
-1.099327201837368810e-02
8.725992877048813906e-03
2.428826165796818363e-03
6.205298846754715714e-02
4.366679297650968850e-02
4.724798160575198469e-02
-3.184985977754171971e-02
1.006933521347227883e-01
-1.492314079967230547e-02
-2.824779285265852091e-02
-5.537376399105103236e-05
2.894185393266949895e-03
4.570445310915220022e-02
2.081781118816194640e-02
1.352210156693335955e-02
8.741312460902339945e-03
9.389512248693799093e-03
9.289611396352198680e-02
7.386076632652452401e-02
9.878095786484230104e-03
9.476410101441490319e-02
4.599235593664488531e-02
8.278287217057601899e-02
5.054363804168034158e-02
7.625020358614882643e-02
5.671254435362579893e-02
1.177821763635135497e-03
1.116404136739611724e-01
9.485760737237365625e-02
5.429278387503948256e-02
3.973187391889208830e-02
1.072836124958315845e-01
9.376378982052689659e-02
1.197928313582442561e-01
1.388339862185322404e-01
6.780082142911006415e-02
1.176555875708728965e-01
1.265770006660978664e-01
1.504287162948897416e-01
7.038474088056166644e-02
1.201773589619256066e-01
9.834068773624612958e-02
1.205346938917771366e-01
1.100049371247507901e-01
1.006712901368320562e-01
1.287758840182493258e-01
1.593039596331947139e-01
1.285196696630479252e-01
1.483215180942339950e-01
1.523277741208058922e-01
1.740213545672079920e-01
1.476781450136217255e-01
1.284033738361924082e-01
1.254472653716092179e-01
9.700507015182281700e-02
1.303094096380020273e-01
2.129556417254357681e-01
1.482029560255944400e-01
1.143609830935505972e-01
1.017934774832725126e-01
1.591536403086216966e-01
1.803421226578966474e-01
1.521699456389677130e-01
2.146690846885468962e-01
1.709608805500048567e-01
1.663636024284557979e-01
2.045475222302163831e-01
2.187441765516079939e-01
2.328342900094260703e-01
2.461428145904790976e-01
2.359838053097654542e-01
3.085172343835961839e-01
3.641843130833101183e-01
4.249938272323014465e-01
4.748859320657748406e-01
5.224009385455297139e-01
5.526685928674888171e-01
6.226539717972855437e-01
6.678443905128166325e-01
7.462375353796318889e-01
7.717572537834568314e-01
8.150741673797222697e-01
8.728013660926629003e-01
9.747744682923935589e-01
1.012287680733990669e+00
9.955548814741866925e-01
1.062926523362270892e+00
1.133587659249467583e+00
1.108738656570297687e+00
1.127295035192642514e+00
1.113498766880938851e+00
1.073242754153944878e+00
1.044682110909713524e+00
9.912876795944509656e-01
9.277508167965422547e-01
8.774407516491505854e-01
8.998019656806003352e-01
8.177868977199346245e-01
7.418347889245983096e-01
6.960273347611337647e-01
6.153657167941676276e-01
5.621675713958614873e-01
5.097881953693732537e-01
4.150131883381009690e-01
3.862969843537751302e-01
3.303279003813145986e-01
2.414419651235031605e-01
2.759913489334070436e-01
2.135020863970770733e-01
1.465039653255648111e-01
1.492811187216053492e-01
2.004466364928172151e-01
1.611531927537796227e-01
1.636187467880285129e-01
1.404630850844585666e-01
1.164869419092886410e-01
1.106685011043400113e-01
1.159393737190899248e-01
2.147832683272568599e-01
1.588172673883742336e-01
1.291334608335091005e-01
1.240609306812905099e-01
1.651027173658700387e-01
1.315868970983212760e-01
1.251150326634928311e-01
1.352775540853623504e-01
1.370100326507465160e-01
1.888907212747427122e-01
1.557172755456113222e-01
2.104589605152718257e-01
1.471710251836212680e-01
1.890388535560344752e-01
1.994129523923457437e-01
2.365081635480326683e-01
1.975725291184948218e-01
1.555863128864606315e-01
2.105490986211066284e-01
1.587792237571405696e-01
2.222111022115069168e-01
2.048412709729041659e-01
2.096795142368348686e-01
2.051346594138379886e-01
2.064969596332261736e-01
2.373631593940581097e-01
1.558762346538529187e-01
1.901040500339848116e-01
1.682592417619044045e-01
1.998304030803079723e-01
2.144408253717304813e-01
2.511930394353910634e-01
2.797927899550239350e-01
1.838866788559171406e-01
1.610439541595208857e-01
1.785739371507955031e-01
1.679498208879799392e-01
2.237654105012212291e-01
2.494783443003414092e-01
1.673785854678213614e-01
1.761843564273084528e-01
2.010985665906526998e-01
2.579560540035201188e-01
1.996570686753138535e-01
1.969888971749721718e-01
2.683702634827567768e-01
1.984469983337295296e-01
2.184787821585020551e-01
2.449078250646535559e-01
1.406590906544179786e-01
1.731161814677311117e-01
1.810268342475763736e-01
1.677910528279919766e-01
1.484076421610169838e-01
1.732648966396772017e-01
1.872476576767035383e-01
1.274661585187804036e-01
1.325711710167887525e-01
1.513710517882500273e-01
5.111665195358681274e-02
1.986345549134488908e-01
1.318200131316753509e-01
1.214102389062253762e-01
9.712707583914279019e-02
9.556920240195362903e-02
1.415266483087966320e-01
1.312548079630303788e-01
1.218109391671368391e-01
6.901549151110616953e-02
8.465145929225439958e-02
1.158671960674612367e-01
7.185838191450955037e-02
4.102074895248758457e-02
7.713026626565755439e-02
7.136362786807630421e-02
4.353996802155513102e-02
2.808268955294833391e-02
5.720395737354685289e-02
2.198616000702211665e-02
2.749587040144048367e-02
1.670976854998199035e-02
1.760695232277835476e-02
1.765808714780634642e-02
6.063691032088942140e-02
6.520412896432845051e-02
2.308669162289689325e-02
-9.911193842726977177e-03
4.243734583611707273e-02
-3.972802628798070834e-02
-1.648201980235587671e-02
-2.462445531395138915e-02
-6.255190805687094180e-04
-9.177166414757839674e-02
-1.408360482745035086e-02
-1.467028666398780684e-02
1.811616058584608613e-02
-5.164035918119556923e-02
-2.095966855676912460e-02
-1.136191990399359336e-02
2.394993052575115910e-02
9.888768973039890886e-03
-4.893231798796189580e-02
-4.883906668945239837e-02
-3.419988570683277912e-02
1.607279675847660128e-02
-3.637918221339630359e-02
6.600964258661114192e-03
-4.932383933356081218e-02
-6.548751262454227673e-02
-7.374101262528379164e-02
-2.978299268663029548e-02
1.042804993683944803e-02
-7.637199816499067040e-02
-4.390035737597740989e-02
9.549804745536689954e-03
-2.174788799758636815e-02
-3.769032890921864692e-02
-3.927211848453216608e-02
-3.930710186542205747e-02
-7.792956170851284003e-02
9.299828184501368611e-04
4.207243061208870705e-03
-4.985319171902306140e-02
-1.206304218644163595e-03
9.316262984190457064e-03
-1.736975670401840963e-02
-9.205576421015160271e-03
-4.602758046110225904e-02
-1.886939100853221585e-02
-6.163386998402108075e-02
-5.114819675552249867e-02
1.711720689853809402e-02
1.851982112574938194e-02
-2.891523593810941747e-02
-5.792883289176987277e-02
5.252067869536117262e-02
-4.949294693772886278e-03
-9.604672236455030765e-03
3.067971723612844537e-02
3.770742282894756769e-03
-6.442340383963164607e-03
4.483339322471812521e-02
2.189898143269662645e-03
6.141534882172589027e-03
5.685801824479374406e-02
5.162910019502999631e-02
4.644464003527069146e-02
1.752121647376209124e-02
8.657064060116996529e-02
3.265191069309607286e-02
4.683680104518358339e-02
3.752411784472532014e-02
7.811322590847566416e-02
3.731302590848655648e-02
4.466823981457680032e-02
5.995223708995468109e-02
1.147810929526785900e-01
6.749748537603378340e-02
1.107591400913002788e-01
8.272826127799837170e-02
1.055334741474365096e-01
8.656694488052713021e-02
1.262089178225472841e-01
1.840983853046169461e-01
9.183113773444404049e-02
1.335015184640880870e-01
1.275754236374855299e-01
5.952007145900927582e-02
8.393075320248283289e-02
1.124619491155318951e-01
1.036465254781353262e-01
9.789350543830295515e-02
7.333784424112455014e-02
8.589036499287697191e-02
8.757589611895805204e-02
5.117753894797685832e-02
7.187669922699477243e-02
1.020943470826707333e-01
1.059230735030393111e-01
1.513551093591820329e-01
1.565664413741564842e-01
8.976307227096363972e-02
1.828237247153407796e-01
1.252774513481403063e-01
1.960267352347033198e-01
2.167967019765966452e-01
2.478636967298476212e-01
2.728846983601199150e-01
2.593688693859566019e-01
3.114332263133060552e-01
3.638093601075040873e-01
4.172541129473023580e-01
4.598150505112506559e-01
5.644580544507344921e-01
6.682240581948437619e-01
6.639973356639645719e-01
6.890053533111786255e-01
7.774537766461575572e-01
8.433615098279005906e-01
9.097642166062767100e-01
9.163686707226998962e-01
9.899296523121621227e-01
1.018214203189173883e+00
1.015386331650699470e+00
1.020783425015600487e+00
1.098954599786837072e+00
1.083190572004492314e+00
1.011352055191801380e+00
1.044337454876164362e+00
1.005088830325794769e+00
9.522989325585187181e-01
9.421227930401483430e-01
8.589478078239347614e-01
7.973409144766155920e-01
7.399915733043844757e-01
6.614880007858078281e-01
6.308572518393982254e-01
5.620007262911786983e-01
5.229023629705841225e-01
3.906986701690362551e-01
3.736995328021598950e-01
3.345497913505012799e-01
3.405819205590254750e-01
2.517955589616855394e-01
2.343565360811258880e-01
1.793512369765347669e-01
1.539719990933806071e-01
1.785183374585287419e-01
1.409954487394660394e-01
1.480505639113371130e-01
1.096103446945833337e-01
1.267958443313778605e-01
6.247234992531061626e-02
4.687743418980726967e-02
7.404551104880312262e-02
9.112122867134048176e-02
8.400436533181915300e-02
1.981833972899186280e-01
1.656878044917835524e-01
1.656715658167155769e-01
5.844600577226674587e-02
9.322499023531080620e-02
7.045527658096784052e-02
1.514573069612771272e-01
1.463785629390813026e-01
1.731983087381133712e-01
1.396633895996660102e-01
1.497589390871119364e-01
1.403727729857832118e-01
1.611903843056882446e-01
1.694171491853903033e-01
1.857848406470903602e-01
1.842062070286498154e-01
2.106529795790779425e-01
1.274252891387586684e-01
1.687381984801354928e-01
1.991388379212709892e-01
1.401931967374978050e-01
2.254479470964202981e-01
2.129504673153559680e-01
2.001736408607845963e-01
1.479127139882321917e-01
1.566144808272179889e-01
2.518374650832675421e-01
2.152077834134677459e-01
2.113259839593848444e-01
1.962043480971106535e-01
1.545169278936467938e-01
2.410921315933518272e-01
2.289119641559123064e-01
1.422393983449113386e-01
1.981705598121496215e-01
2.320261164667861142e-01
2.186086060225575500e-01
2.488606863744183828e-01
1.950742251698376895e-01
1.781859911929256357e-01
2.222505409714541358e-01
1.547479396916663363e-01
1.575895557603649855e-01
2.051751571398285345e-01
1.812000108900459761e-01
1.922173286736834075e-01
1.785715322124185878e-01
1.548204014775622361e-01
1.694934956760668632e-01
2.294344390732065420e-01
1.765350552172665344e-01
1.731070902461585292e-01
2.082692289551288101e-01
1.554062025621654186e-01
1.399099654078782007e-01
1.058851234374249689e-01
1.295962684089057571e-01
1.086165400492249966e-01
1.164989993180027272e-01
9.685997933344192568e-02
1.179713716885269076e-01
5.609834604631692284e-02
1.130520962939292606e-01
6.221134036225212105e-02
1.427850421847048357e-01
1.413218987804606974e-01
1.096984423042466628e-01
9.247924227947362796e-02
6.702349552918335229e-02
5.701606792568094523e-02
2.400854491917410460e-03
1.088063457115958643e-01
6.234788760616964687e-02
6.010095208866404748e-02
3.523182751914789856e-02
3.640987920117125243e-02
2.553423833809421312e-02
-3.002911751064064882e-02
4.474281644273887804e-03
2.266542397252524488e-02
3.285971615300376653e-02
8.123031361608024081e-02
1.106948621657114634e-02
4.056977281348847497e-02
-3.937605554508762096e-03
4.715905468688733060e-03
1.048933608815440233e-02
1.638314062720801906e-02
-1.456108096873623414e-02
-2.849547709906148987e-02
2.162714890507452803e-02
3.580535265222048458e-04
3.777065126848673515e-03
-8.086763494692048027e-04
-6.223949029598543903e-02
2.473617944952761355e-02
-3.128754310481184076e-02
-1.563606718418215219e-02
-2.636746719872049699e-02
4.651270723351690062e-03
-6.257615263344656897e-02
-1.335455156492124790e-02
-6.080643232604326237e-02
-1.821450004289881103e-02
-5.201176399093841718e-02
-5.759385681586622757e-02
2.358406988765975043e-02
-5.108391731659792101e-03
-6.278198089113420921e-02
-3.921681063921687166e-02
-5.327315711583367752e-03
2.735658167523545570e-03
-7.516487720873032963e-02
1.542086112857470742e-02
-6.713918920971263804e-03
-6.143524674145486170e-02
-1.167715694322728204e-02
7.017247885558658416e-03
-2.787954830997586148e-02
-3.174810412898401712e-02
-5.036708220826989491e-03
-1.609613177642595788e-02
-3.596674147310588432e-02
-1.876866953967284979e-02
-3.677591389672173888e-02
-6.229273394634006478e-02
-5.842946990082314301e-02
-8.134734510219968073e-03
4.227124315247632325e-03
2.066419456549879741e-02
2.852784630371203722e-03
3.814303966592585277e-02
-1.682256499355013965e-02
-9.240879627927807427e-03
-1.619992260566034681e-03
1.103015996194457032e-02
3.612342260802451493e-02
2.040086235631870248e-02
1.695059992865634302e-02
3.826404359646315423e-02
3.225771656422205674e-02
6.437416036810753028e-02
3.264106905295422606e-02
4.745327852003924235e-02
6.061545326321279153e-02
6.913658728681695842e-02
4.613446172635390918e-02
5.803982995407704765e-02
5.665111052328282437e-02
8.700957149832044824e-02
1.151573303583930397e-01
7.955905753473380138e-02
9.898850243211873567e-02
9.443497766676892113e-02
1.204685124772144900e-01
5.707243169767416135e-02
1.091238013978176602e-01
8.432122723060411773e-02
8.484821213515703064e-02
1.134364821372548515e-01
1.507872944740943910e-01
9.638674968077523553e-02
1.353642793151411394e-01
1.605275038916832986e-01
1.267461270152046293e-01
8.885375374093115730e-02
1.205722850617594460e-01
1.788414432062644388e-01
9.451146537619573018e-02
9.903096053251210507e-02
1.267298866884517816e-01
1.448486966505450890e-01
1.110131628083153577e-01
1.604920717950321096e-01
1.089455220177196204e-01
8.805879794703383445e-02
1.466395766189496630e-01
1.361971781879079135e-01
1.170403723140863578e-01
1.750457311885337819e-01
1.903325026034972112e-01
1.737836140930516526e-01
2.144070636224747473e-01
1.376582192691924444e-01
2.584360965157256329e-01
2.733068249591211751e-01
3.004907855745768130e-01
3.123370470000337296e-01
4.127003726952493956e-01
4.599721860147596986e-01
5.705854385649056226e-01
5.786958758028833971e-01
6.003827644259198681e-01
6.705352849648689162e-01
7.769551410915753742e-01
8.592771851853191478e-01
8.646084270058463916e-01
9.346559308871400518e-01
9.610671380326829549e-01
1.033340578759781136e+00
1.055664903790181519e+00
1.077787996378990698e+00
1.037123397645329126e+00
1.116911814488997345e+00
1.078476313891220117e+00
1.104761177637612724e+00
1.062708296032195410e+00
1.077001081367123581e+00
9.900603428182175314e-01
9.063431858262993579e-01
8.911782798569874986e-01
8.410601731823799110e-01
7.658049898582747206e-01
6.888546602151451870e-01
6.515042542304197992e-01
5.919261920862270987e-01
5.295503337969336144e-01
4.730747479793527832e-01
4.376144842957473413e-01
4.016323467036932993e-01
3.185190293897957048e-01
3.104100380189661612e-01
1.983039473676184994e-01
2.262126372589151058e-01
2.678141704578849147e-01
2.249190925528603835e-01
1.647438770906077543e-01
1.995653012057160836e-01
1.183502167001774241e-01
1.129806509883147375e-01
1.345630306095618178e-01
8.444860247038353529e-02
1.825078147318418831e-01
1.488447933776019250e-01
9.884360504477493481e-02
1.849193683300252300e-01
1.532489039222238725e-01
1.885516726379940500e-01
1.512693934319683242e-01
1.354841854230406373e-01
1.112842867287628934e-01
1.039436654078206013e-01
1.598373597149717606e-01
1.759248465322882649e-01
1.657867492945996335e-01
2.113467686908760967e-01
1.931655827244529167e-01
2.225709169198764048e-01
1.819690465536972779e-01
1.739422001982146304e-01
1.867583556690009805e-01
2.117134939125137894e-01
1.669101923387761033e-01
1.978579483826594376e-01
2.109975570058700012e-01
1.969432719261411946e-01
2.556768924084314443e-01
2.399509302058492055e-01
2.551217364615683825e-01
2.562158920408855733e-01
2.369356281059661617e-01
2.584280132624849347e-01
2.626149474658883154e-01
2.763133441722948613e-01
2.060107076668521164e-01
2.213570790213787998e-01
2.874043660628401997e-01
2.081963423291650905e-01
2.878890271361045361e-01
2.195146104398993381e-01
2.584875241033766646e-01
1.819490688814655588e-01
2.744082462341023709e-01
2.277339535524648129e-01
2.024236817282555889e-01
2.319370098950591097e-01
2.237198558161467565e-01
1.940152463192824361e-01
2.425940399720858953e-01
2.529040574302645616e-01
1.608369986844125632e-01
1.744931478961611604e-01
1.686619305653029588e-01
1.927286340303155654e-01
2.665113222564307049e-01
1.706233066013845834e-01
1.880962155813344361e-01
2.028732292386899172e-01
2.034997673936595197e-01
2.327063852000136879e-01
1.631423744969581757e-01
1.739798895085485908e-01
1.561120075517961336e-01
1.911451653991877719e-01
1.853988089558956942e-01
1.467141975200728643e-01
1.140654868561350455e-01
1.878940213337800258e-01
2.041843329502807391e-01
1.164486357175314318e-01
1.626062387007658483e-01
1.238460687660324078e-01
1.817565727567474199e-01
6.307746530238449167e-02
1.154145579118463771e-01
8.205003590834229754e-02
1.295035256640609256e-01
1.303914445993424598e-01
9.461080989819531384e-02
5.461728284014234769e-02
1.271083282525513614e-01
3.456653881724241345e-02
6.701046066900526177e-02
4.696715157052307188e-02
2.408235751537247255e-02
3.648304191525125750e-02
2.755674600538180613e-02
8.828328262743154187e-02
7.194200960011382096e-02
7.287935696616126835e-02
7.669884627849445080e-02
9.031764949756615479e-02
2.125449862283195629e-02
4.191409384239808134e-02
4.931905956878313013e-02
8.210893834270874964e-03
7.906196201259785283e-02
3.061357665491538232e-02
2.615594302551329034e-02
-1.526944348118715322e-02
7.323433208429093455e-02
3.263889255950256502e-02
-2.185122178841999649e-02
-7.335418039641038515e-03
6.499839099591779579e-02
4.453979753225450339e-02
-3.112533918025720686e-02
7.189576686958479290e-02
-2.972447948382176547e-02
1.777095910501311909e-02
1.990425357889561570e-02
5.597626318100822063e-02
-2.919951609144588039e-02
3.353370319347678125e-02
-1.309044434732266338e-02
3.310627574137914308e-02
8.191468083254425936e-02
4.675808293962162993e-02
-3.086882663432771387e-02
1.713991339627984889e-02
5.211475706510529035e-03
2.433502232749161151e-02
3.934154376685040921e-02
4.065784402461246339e-02
1.140186699444097583e-02
1.838745707378120625e-02
-7.997481979251003931e-03
1.511967868309811031e-02
3.858189126020842435e-02
1.187604254371216195e-02
2.755602033028822784e-02
4.822162235440708572e-02
1.822929684498554234e-02
6.523667717727815729e-02
7.836811280363176202e-02
2.987512470090054190e-02
3.228835967031597198e-02
9.238186046952071018e-02
2.893482936230199615e-02
5.212286553264632721e-02
8.322136426373617779e-02
3.683263987768164993e-02
9.612866828096110206e-02
5.622182229555801325e-02
6.881618329978425597e-02
6.953252618220642778e-02
8.335965700653917565e-02
6.185774457498949969e-02
1.062085839017083977e-01
1.204335677076532607e-01
1.604835755453572488e-01
1.393207979973554722e-01
2.133867953648398985e-01
1.122362571725439018e-01
1.449026397354298279e-01
1.811207481556807164e-01
1.407291886487434529e-01
8.489112867013132169e-02
1.410953342037208624e-01
1.334596023722565417e-01
1.764486149750656430e-01
1.650522095306800330e-01
2.149678002968778701e-01
1.705778653591956129e-01
1.884581042540340035e-01
1.671027481172879248e-01
1.266896161800218357e-01
1.608388454289344793e-01
2.053861906989818409e-01
1.883879711510687838e-01
1.991279067708533190e-01
1.350230115156960675e-01
2.077339576565407353e-01
2.199240227736929953e-01
1.943606789302634030e-01
1.669774154865789895e-01
1.378252773754485572e-01
1.798473846296571588e-01
1.746223817298974967e-01
2.186159978594988673e-01
2.409840296121611436e-01
2.328575576607335440e-01
1.659096615281876463e-01
2.176774883481969458e-01
1.392168820302732701e-01
1.821529491171902382e-01
2.035207781462388399e-01
2.462481120322423389e-01
2.905104793385837048e-01
3.254006236590344381e-01
3.470902418218168028e-01
3.731109149045118700e-01
4.644028107427536356e-01
4.949865313428727376e-01
4.959949508049038003e-01
5.212742224784246980e-01
6.405188360750967425e-01
7.232426292306229909e-01
7.282289477878642892e-01
8.190386151129015468e-01
9.334483757928507819e-01
9.601440214042987753e-01
1.025282366716752325e+00
1.049862578407592117e+00
1.091236462974631394e+00
1.139260037289679506e+00
1.148894463919087228e+00
1.178771795213246154e+00
1.157628344430149836e+00
1.139812113215776579e+00
1.131701923303944035e+00
1.095426544340580399e+00
1.063154245930243880e+00
9.688881246896361432e-01
9.696323159133310998e-01
8.599048179113422119e-01
8.904209091004837706e-01
8.136203042592955459e-01
6.856385608659475439e-01
6.853580158559187119e-01
6.329233013302411059e-01
5.438624274970684791e-01
4.714686169858537945e-01
4.994613397270918353e-01
4.389564904866101736e-01
3.361880170682089441e-01
3.445645382768153797e-01
3.384629169915518987e-01
2.862804370060251236e-01
2.284850492781494713e-01
2.134032632671748753e-01
2.556561923038548900e-01
2.424547814647073363e-01
2.579042585869536497e-01
2.602850532901234137e-01
2.767027791524166447e-01
1.409129562152708903e-01
1.667015019002153486e-01
1.823693319411310021e-01
1.823355298788749690e-01
1.905431547628500810e-01
2.107183799174869310e-01
2.577862140514520228e-01
1.644216019194246203e-01
2.054295594117118706e-01
1.647753918424929576e-01
2.440651357215693484e-01
2.480558940003974311e-01
2.562725035403855545e-01
2.131570419521442439e-01
2.620318747477052290e-01
1.928501570455190273e-01
2.292881919939004365e-01
2.230433140002140435e-01
2.865086112062060764e-01
2.517501676430338176e-01
2.665441516571393499e-01
2.380099250438179326e-01
2.518341311695213580e-01
3.271682698277495471e-01
2.774485658857848147e-01
3.107017628786010177e-01
2.832200124902660709e-01
2.830761189072994455e-01
2.611916715000715539e-01
2.712871344349677694e-01
2.733674610331243149e-01
3.049023117333289346e-01
2.993060337406935889e-01
2.891198438408959515e-01
2.945482331787723229e-01
2.984245941595864982e-01
3.256089419604320523e-01
2.861005270093407438e-01
2.599708314902435258e-01
3.236210344924989046e-01
3.311458294927071000e-01
2.865735712654854384e-01
2.932527801012823621e-01
2.710677322985186599e-01
2.763571526715702387e-01
3.297636958235231619e-01
2.905563645129915495e-01
2.304471362953003366e-01
2.429529163385844293e-01
2.929037335993950331e-01
2.669915526720091914e-01
2.295965487970756391e-01
2.481355800401207901e-01
2.222146292251851452e-01
2.506476970372614188e-01
1.885290842488021035e-01
2.245765571696312912e-01
2.298474462688292752e-01
2.546342020655582017e-01
2.240411328941687430e-01
1.939395378571137363e-01
1.671951732909533472e-01
2.186705765368393006e-01
2.437381079592126354e-01
2.175454630859826599e-01
1.976382571887244644e-01
1.982107836522123412e-01
1.623751525162110965e-01
2.239701598007894090e-01
1.435676009462088232e-01
1.488497509186861578e-01
1.812401894761250520e-01
1.613099217277732256e-01
1.902336780134962491e-01
1.160433112925347288e-01
7.355280734459429537e-02
1.471286689061936381e-01
7.711466469789896028e-02
1.642808137993604367e-01
1.397028503841501457e-01
1.111771350435792338e-01
1.474571739895907951e-01
1.417268370729456439e-01
1.319915351161036199e-01
1.355331933349762097e-01
1.010001705795389171e-01
1.094173829601875619e-01
1.889652463558409018e-02
4.131208064299102950e-02
1.395750775078665185e-01
6.117658598034333983e-02
8.870117152862158627e-02
8.561777883750881779e-02
1.241137320016917067e-01
1.258232126659080963e-01
3.934517381962839705e-02
4.107146645296756021e-02
9.425187164938900186e-02
5.215290018974123865e-02
9.869518666792012618e-02
1.178035315996889543e-01
3.070785759846601792e-02
9.255516226797669277e-02
5.348271893300574759e-02
9.414918689279157260e-02
4.321848089348662159e-02
8.257874740222684307e-02
5.232967442848080603e-02
5.917253538670386170e-02
3.795818425361672382e-02
6.088495044729440309e-02
3.546723959364093265e-02
2.646993818912454777e-02
6.157267718417334945e-02
5.339213991912438589e-02
3.761783365402121548e-02
-1.237213184345770101e-02
5.141093872616709498e-02
1.182416839015372478e-02
6.361571229512266723e-02
1.030566015994510420e-01
1.564630578220686102e-02
4.095160544398465663e-02
5.169589833407772783e-02
1.056792437557685649e-01
6.223670978766663447e-02
8.204079569706412833e-02
1.063219500109124915e-01
6.533760539981658955e-02
7.629320391419389114e-02
8.840158634450420716e-02
1.052982900027615021e-01
1.071841530368217443e-01
6.763819180805358267e-02
6.548945084452677257e-02
2.188158169647622803e-02
5.611593748781877611e-02
8.069374729187898942e-02
9.268666466116094738e-02
5.110870261933633113e-02
1.280642063985939216e-01
1.106571963163958949e-01
1.359020719080568929e-01
8.633455322174696245e-02
1.457998585554357573e-01
1.634586616758714750e-01
1.381763785740033335e-01
9.881932012571947865e-02
1.230351574196951320e-01
1.311967798585758627e-01
1.377074837856767098e-01
1.833344560170201698e-01
1.503951809035405929e-01
1.303735433822633960e-01
1.906244529656891118e-01
1.705512386666539482e-01
2.215363461548362500e-01
1.953549226882690115e-01
1.911926378575724284e-01
2.119880734015647805e-01
1.753950355617881762e-01
2.307800567921291790e-01
1.643520676156921545e-01
2.345529779586715824e-01
1.933144835708950626e-01
2.122914475620954200e-01
1.440910746970678336e-01
1.743172269529606466e-01
2.208401929268301034e-01
2.566848321247847120e-01
2.212878863223209369e-01
1.660487497857366657e-01
1.828721702587262354e-01
2.182817557192082147e-01
1.705030955822609551e-01
1.937750894714757866e-01
1.823713755002854264e-01
2.032295328255546984e-01
2.597742287547268880e-01
2.254576846168149795e-01
2.267493821430814349e-01
2.351801666998391827e-01
2.090090854587580982e-01
2.583553856387211800e-01
2.655527062975890917e-01
2.622931012570661191e-01
2.866146336541406936e-01
2.730427095456300357e-01
3.573540447572405299e-01
3.998808383482465589e-01
3.932237150645586654e-01
4.622518025233436911e-01
5.235827374305840332e-01
5.135655980299929091e-01
6.863210132144674791e-01
6.655115927762913497e-01
7.307046923620967860e-01
7.910054148722799328e-01
8.777653089341892478e-01
9.287239763795043235e-01
9.821165621113512323e-01
1.067872658712231360e+00
1.078809163377881575e+00
1.118978233190855542e+00
1.125174128424902831e+00
1.184576757581693229e+00
1.222630880170682000e+00
1.187361115551367030e+00
1.185925737088808996e+00
1.148544242322139919e+00
1.114009621321250698e+00
1.045674891647171201e+00
9.739084904804663489e-01
9.802550489980287329e-01
9.394764781552249477e-01
8.363958048720243621e-01
7.823347298914571368e-01
7.660676920494147168e-01
7.369022779442876425e-01
6.650005931778268931e-01
5.435347925259271795e-01
5.236168431308020343e-01
4.689097066172571160e-01
3.570299165685287823e-01
4.055709569269856374e-01
3.277240929073335085e-01
2.820104762613015459e-01
2.528983247658870281e-01
2.358516530410557643e-01
2.566129535445342280e-01
2.848712309539647713e-01
1.945266537279490560e-01
2.134984381511698670e-01
1.826013466753156067e-01
2.385001186080860647e-01
1.828242538983601007e-01
2.026034860327979858e-01
1.466811750988880059e-01
2.044292230547383182e-01
2.218840180250436500e-01
1.708598463637091280e-01
2.099261171023147354e-01
2.252972005380703691e-01
1.973015106041505207e-01
2.811677527110367780e-01
2.068976362084241349e-01
2.267972495709129899e-01
2.387197378439336604e-01
3.259898454412346602e-01
3.051217484263598623e-01
2.515679344040702703e-01
2.016354678890383001e-01
2.475458307328085861e-01
2.524447531184548787e-01
2.810842201803085416e-01
2.709838622964809152e-01
3.073606324161712311e-01
2.657340779347823756e-01
2.720706610367498723e-01
2.680826796410136215e-01
2.851920349339107097e-01
2.142131178585654494e-01
2.957306554295857648e-01
2.668767328231130831e-01
3.063390803337027735e-01
3.159462506654898140e-01
3.281513104134672898e-01
2.920762674763657807e-01
3.135755032255544417e-01
2.619641159334209490e-01
2.476722937662368673e-01
2.678557830379935667e-01
2.901043327682791828e-01
3.342096022908583874e-01
3.269244762920037739e-01
2.588147153547571966e-01
2.388294636540982951e-01
2.908960481538999110e-01
2.576381415032752975e-01
2.476788075099093100e-01
3.010156755024466779e-01
2.789083635216186852e-01
2.971223099305915771e-01
3.091032029598265729e-01
2.826071656464571591e-01
3.208107674418227417e-01
2.106700617430263267e-01
2.530923562605001953e-01
2.443881793652768752e-01
3.044900197557090515e-01
2.245869615330003954e-01
2.662994863888786257e-01
2.087500327194569405e-01
2.223470348152142839e-01
2.004321520187430372e-01
1.852510546622616328e-01
1.979467002014242971e-01
1.620688311265165715e-01
1.950897795304641635e-01
1.736950129164243628e-01
2.411446558507212012e-01
1.975952710594597872e-01
1.211955325236112602e-01
1.696669024905690659e-01
1.031008469207439077e-01
1.805786882856533493e-01
1.048301204561808142e-01
1.343381550991913642e-01
1.783849636097022962e-01
1.186108400851970113e-01
1.284425094469328898e-01
1.248893420869028187e-01
1.409062719959792709e-01
1.354716379680306060e-01
1.108862855535557301e-01
1.069273099304120789e-01
8.866140397149939456e-02
9.895227460864330915e-02
5.130198659053376159e-02
8.424989902476952286e-02
9.076813106128482633e-02
1.163689416896196149e-01
1.064974079805304785e-01
8.329054677876737700e-02
9.740129117744786291e-02
5.594090975844918240e-02
1.147235952666886688e-01
4.930985429558487620e-02
-5.808879463608754984e-03
1.017971918580770352e-01
4.846264822993598398e-02
1.112253749694168681e-01
4.626891411726782866e-02
2.954050118380282391e-02
4.854014259615001270e-02
9.357769920290753829e-02
1.029663907967812153e-03
3.986857927687384451e-02
1.704148260441174650e-02
5.208025592787977193e-02
5.029411980858412845e-02
5.432725326397030985e-02
3.800759547644166902e-02
7.562589704420499825e-02
5.818371598952376544e-04
8.812369456860523476e-02
7.267372863459817256e-02
4.455509332207892303e-02
1.103685704365365006e-01
5.688412395615975725e-02
-6.495355411480947805e-03
3.688361088432080132e-02
2.197111862855062603e-02
4.553458816039876456e-02
1.677358757655161847e-02
7.084807719530186731e-02
3.340303307033147540e-02
8.047210598614730481e-02
2.353828998270517114e-03
1.214443086413181938e-02
2.226203991301358570e-02
3.577907465385218866e-02
2.704098245384946655e-02
7.353863571001732768e-02
6.106688011818575679e-02
2.142844297519020183e-02
2.988584358701797811e-02
5.144541443697431271e-02
6.548744392790642466e-02
3.586814230759385186e-02
7.771792293365749338e-02
7.085136909728104171e-02
2.699090011050202242e-02
9.877525534208625446e-02
9.116980365533042252e-02
8.607729153573791259e-02
9.434619054532852878e-02
5.894712635092351494e-02
1.182117155055052715e-01
1.156841247355954727e-01
7.052606190441884637e-02
1.638392409116110338e-01
1.273367279132208707e-01
7.417795647356209554e-02
1.029202360719104481e-01
1.353708172230677076e-01
1.224693774255453532e-01
1.678424154417572089e-01
1.008785359388079950e-01
1.177161057934509730e-01
1.312386461351529310e-01
1.527868247667718005e-01
1.352772581000699359e-01
1.498279021875353889e-01
1.698313617863952962e-01
1.542679019256031625e-01
1.297551115657981369e-01
1.153357679724979767e-01
1.226760543592520097e-01
1.471386301451108880e-01
1.381105304320303095e-01
1.746518318410261728e-01
1.253379373611181180e-01
1.565477403137642276e-01
2.076504370276407441e-01
2.691864157144056025e-01
1.559022382095635595e-01
1.867235046937197884e-01
1.718245316106755960e-01
1.448393288235942933e-01
1.712157532025880002e-01
1.995066526608335611e-01
1.533940907612043048e-01
1.781112672031935351e-01
1.228260019929969110e-01
1.906835936373726947e-01
2.152557111124317746e-01
1.722889885344716099e-01
1.988866415130998710e-01
2.208500791566119503e-01
2.400749893798827250e-01
2.432305307854937260e-01
3.394149699724975933e-01
2.936154673966188677e-01
3.466985708516830966e-01
3.754794950444660384e-01
4.357851550586400169e-01
5.201471343561844263e-01
5.272886211109383270e-01
5.549600938577409215e-01
6.414276435778278884e-01
7.351986141989755863e-01
7.392086282297908317e-01
8.652370968569571552e-01
9.048382967981535296e-01
1.005698994214533348e+00
9.910473528757390849e-01
9.838459067140101766e-01
1.099801546087062931e+00
1.067894881101824289e+00
1.110578396714826832e+00
1.171178904742167237e+00
1.117512928832860908e+00
1.115787443894961761e+00
1.100240643521966932e+00
1.070975171645910606e+00
1.018224236205070632e+00
9.358899866032004411e-01
8.816834168363606450e-01
8.697128487435178412e-01
8.102855712922253373e-01
7.324397229954254795e-01
6.615388846802524592e-01
6.045332516944057488e-01
4.535763250285069770e-01
4.438456549014331287e-01
4.358866766385437463e-01
3.644554594892668864e-01
3.163794959086361769e-01
2.589994324236917222e-01
2.856393236750303100e-01
1.975123051462982782e-01
1.956398089193719103e-01
1.774588030777279057e-01
2.233210957147047371e-01
1.823887162347077040e-01
2.098238195164368047e-01
1.066340030652394716e-01
1.256868181344283908e-01
1.758939155614088201e-01
1.514771442088640452e-01
1.624384266470117744e-01
1.976539212886719576e-01
1.685094290984925913e-01
1.229750689051445495e-01
1.581735531015223128e-01
2.047890847411250881e-01
1.517441089754162087e-01
1.528094083997715291e-01
1.774575624030574617e-01
1.891116695755858113e-01
1.954597704268795089e-01
2.346415965722371266e-01
2.465671129057349642e-01
1.789381235037184326e-01
2.022951202482047017e-01
1.905745112847268274e-01
2.209400948112468510e-01
2.425596027686749701e-01
1.815502763479285853e-01
2.379984213166172757e-01
2.098044589418621708e-01
2.050918507487187181e-01
2.304642981708694693e-01
2.183181660659521961e-01
2.739109394861253266e-01
2.308474543457063599e-01
2.318953338154085830e-01
2.506640448232237972e-01
2.020802452135127270e-01
2.427434505156605971e-01
2.800139428383208173e-01
2.094433421488851588e-01
2.710602920750599387e-01
2.187853220579913383e-01
2.537436644123922114e-01
1.827625343310961270e-01
2.194313412430441979e-01
2.579359832369746974e-01
2.489893803144778983e-01
2.145374522322529842e-01
2.357418216242032349e-01
2.198380130473750471e-01
1.904041932982266649e-01
2.037147764178317277e-01
2.063727830059285673e-01
1.716130118408889516e-01
2.016463699611406868e-01
1.549763315156881816e-01
1.928091308196254461e-01
1.915466658313676740e-01
2.331730365332276844e-01
2.052793377137543396e-01
2.288885431140334770e-01
1.678011017446896236e-01
1.763920940879581956e-01
1.528906114689824181e-01
1.539465961447412934e-01
1.332188128663358007e-01
1.095011918742695017e-01
1.214205344915281204e-01
1.265436876277473144e-01
1.153999661563026163e-01
1.274397465026092524e-01
1.721557122778414328e-01
8.846725247091284661e-02
1.744148102382916399e-01
7.581672301614129916e-02
9.898922790227748791e-02
8.867641427058307879e-02
1.019805081774015354e-01
1.103785351040611762e-01
9.983135654141693516e-02
1.035067117492944888e-01
7.212770647663559187e-02
5.680432806744757646e-02
4.560408827617631888e-02
2.087629752761487739e-02
7.807512548367330496e-02
7.248550445025614408e-02
4.779734925489242253e-02
-4.037164928008071807e-02
1.099136550798660017e-02
2.376826284449842439e-02
4.011154520017964215e-02
5.528082504511881712e-02
4.894991965297089409e-02
-2.425114826853740080e-02
3.448929458709998341e-02
4.945015360028955087e-02
-3.071087646134411375e-02
2.142263294611108579e-02
2.025117917317971472e-02
-8.685352398820067599e-04
2.660092175793206393e-02
4.218898806695840775e-03
3.654128915514606030e-02
4.060370422745175623e-02
1.151022816662401402e-02
-3.084650750698493885e-02
4.400843758072568029e-03
-1.270223652937052528e-02
-2.831811686698706629e-02
8.339257947713587388e-03
-3.405264123644128477e-02
1.038634932702283548e-03
-2.319859478358778093e-02
3.043585073723004478e-02
1.071111325657403412e-02
-7.248529551739195387e-02
-3.483988018734745368e-02
6.322384136323022652e-03
-4.602899711226114687e-02
-2.346429322647145682e-02
7.697220447747264022e-03
-2.353137407939795769e-02
2.345497091996766315e-03
1.312355824976586122e-02
-2.324385575925461828e-03
-1.070793532765828421e-02
-8.077767745070332794e-02
-2.768947741944788321e-02
-2.064029354435422889e-02
6.211736129534430745e-03
2.431169781751538889e-02
-3.492730848006062039e-02
-1.127932158525094680e-02
-1.157423758169436739e-02
3.799842440747819294e-02
5.471054449630546879e-02
-2.173084396190746309e-02
-3.147929837201283998e-02
-5.701029168290723537e-02
-1.715817762708394395e-02
5.313576173162554150e-03
-7.348598094062769315e-03
4.651603038136916529e-02
2.240467601879075898e-02
-1.255021961775321451e-02
6.194963297444140010e-02
2.437796709096815007e-03
2.617413082311331046e-02
4.045463282512468117e-02
2.583542985700650746e-02
5.040584895215820260e-02
3.404731813464757090e-02
8.539644868919722687e-02
3.042674079744430576e-02
3.786888564208117786e-02
3.433553461575978433e-02
8.929686410008350061e-02
7.613990077162291481e-02
7.687420600768200829e-02
8.516836658039081409e-02
8.230767089374860235e-02
6.591893656492206488e-02
8.351385262746728599e-02
3.658909737922449307e-02
8.961195316205963768e-02
1.453309328571466830e-01
6.772122966418486767e-02
9.558930223525093084e-02
1.592733170665622255e-01
8.577315485341871493e-02
1.000727311385305046e-01
3.990999995454295318e-02
4.952562082607574190e-02
6.714998927861644262e-02
1.112752033146217900e-01
9.132110479284158422e-02
1.120073273769879030e-01
1.415990982526597053e-01
9.198946193045981490e-02
1.552019659478776070e-01
1.196747960549048584e-01
1.655703621382874080e-01
1.721040643406793469e-01
1.443451004693747097e-01
9.856818111942780569e-02
1.508271510042072383e-01
9.655547690871039979e-02
1.935762005342574477e-01
1.470444383536604893e-01
2.297421868656304433e-01
1.487747355020481443e-01
2.021808749547163164e-01
2.163790710722119925e-01
2.696525623370103486e-01
2.421415723804005993e-01
2.793673795212132660e-01
3.364307633093705507e-01
4.559540793274607928e-01
4.661312590497732056e-01
4.864618830894467116e-01
5.082530520997670109e-01
6.447549647428317821e-01
6.905044682861545269e-01
7.091906598703959785e-01
8.217049458026751685e-01
8.270113184901002334e-01
9.296604055620460993e-01
9.961324393904177343e-01
9.808829068200507484e-01
1.064595478710326670e+00
1.048017126662326381e+00
1.024244026311965872e+00
1.076206195745546212e+00
1.087474194468891930e+00
1.027177931169809488e+00
9.943227358728704557e-01
1.002835318873596337e+00
9.516904258203453537e-01
8.726577874830354631e-01
8.961679084721685395e-01
7.934356244848846940e-01
7.039179772284814840e-01
7.573396073056055666e-01
6.018014758867678005e-01
5.725179005745008043e-01
4.819373274010581576e-01
4.019082494674150463e-01
3.594836450912290426e-01
3.043692025523256350e-01
3.217358412717286065e-01
2.346518812038243806e-01
2.306623458543462513e-01
1.888141210661886671e-01
1.594129987725803332e-01
1.497865549521297801e-01
1.285004386197994286e-01
1.442326708103573163e-01
8.556951600620552045e-02
1.275022186099737664e-01
8.074410878054573415e-02
7.678737487385031701e-02
9.839516474133844226e-02
1.060942956307504570e-01
9.696790480044024940e-02
9.512322807397802227e-02
1.813839861365618700e-01
1.153639272698980811e-01
1.286746990900053678e-01
1.639693796266994963e-01
7.497581928151164643e-02
1.273631623399932578e-01
1.246412305571626133e-01
1.669536541661439943e-01
1.529017007445102050e-01
1.550756077055690518e-01
1.580605089420902831e-01
1.133361957713255042e-01
1.767946738879679902e-01
1.484557957179137022e-01
1.734467956699110858e-01
1.744629005569691138e-01
2.295392338590189207e-01
2.083895162660149292e-01
1.600134682631629279e-01
2.226184060955633537e-01
1.910884287025329253e-01
2.219530615222168601e-01
2.543602163563756791e-01
2.456381195509584614e-01
1.827695534513161801e-01
2.186020556991246921e-01
1.792133316444598501e-01
1.307028885214499558e-01
2.245651995058238204e-01
2.302068424650247913e-01
1.808706509902645032e-01
1.771575512542780950e-01
1.717635160873490219e-01
1.506154092442933412e-01
2.259002136882400924e-01
2.217994473111860598e-01
1.180226111170846193e-01
2.217242431077073306e-01
1.976023145227785716e-01
1.617421837985031086e-01
1.811733285713380825e-01
1.347546593087428635e-01
1.813182415775745904e-01
2.096197367700835812e-01
1.762037394554084591e-01
2.133693971062856076e-01
2.045207960322128204e-01
1.484411598204923022e-01
1.460459995534050814e-01
1.437997637259611772e-01
1.606242038240545955e-01
1.373908363423061718e-01
1.337625422307366641e-01
1.249327170415983068e-01
1.008027309259725002e-01
1.224391828897992834e-01
4.591710318099670451e-02
7.327327065103082793e-02
7.991963130546814176e-02
1.392107369302508224e-01
1.395558550583570756e-01
8.172805233592872476e-02
1.547913286074209249e-01
5.959601780413185945e-02
9.584439829858869275e-02
8.099521067887628656e-02
1.018557902420495487e-01
7.396678205412439422e-02
4.391233836903078031e-02
6.475524408409177868e-02
3.110122305624268835e-02
4.107670527769199248e-02
8.750942854922162673e-02
9.406604352250609591e-03
-1.832575462282284851e-03
4.348387748895579663e-02
-3.543713416865344745e-03
-1.611201477527932774e-02
2.969451220123167645e-02
-7.107889083471867486e-03
1.152456206245168480e-02
9.829307378823468055e-03
1.550368611023393572e-02
5.443907067722575377e-04
-1.634631222970980152e-02
6.379888848490548880e-03
-3.388826382074336396e-02
-4.695226481563286036e-02
1.226859024637889928e-02
-1.015871625302856851e-02
1.059338955690680012e-02
-2.838257902940050093e-02
-4.109237219157856058e-02
-4.493595769965343101e-02
1.345831581097731156e-02
-4.474324500095716584e-02
-2.497425240932462515e-02
-4.045581096219048878e-02
-2.894276289947754835e-02
-5.911141874405383828e-02
-4.319954482718045552e-02
-1.030274293942516906e-01
-8.136331410486835614e-03
-6.254776719143122221e-02
-2.537827565021764237e-02
-8.030987221828739253e-02
-7.726299448987744567e-02
-1.026364288456275281e-01
-8.405476282817070377e-02
-5.576464684676468719e-02
-4.986960112846450244e-02
7.555225369373391731e-03
-4.636742013044014427e-02
-9.098655388562773561e-02
-5.346399238143448307e-02
7.127676438766494815e-03
3.254890532184864793e-02
-2.469071625561939515e-02
-7.997287676361150566e-02
-7.794894230400098434e-02
