1.030644160524450736e+00
1.020071333243000700e+00
1.035396248774455463e+00
9.612429509030215868e-01
9.522270359078530699e-01
9.430154402241084366e-01
8.646726445381003323e-01
7.638273936262010011e-01
7.242679053762520747e-01
7.157598539369827151e-01
6.245540308629038417e-01
5.929127557675888394e-01
5.362344226073756381e-01
4.691038018297460366e-01
3.654880308107781861e-01
3.226156173726996146e-01
3.250343285559286199e-01
2.727353765014316478e-01
2.488924711006422208e-01
2.360826787073989630e-01
1.706014439410473704e-01
1.196035317518615027e-01
1.436669953592062399e-01
7.150111969946043589e-02
1.585632169947849557e-01
9.391757930356037232e-02
1.241982884572581380e-01
1.222820962757991958e-01
9.717036286860331051e-02
8.646447140435434275e-02
9.076591433982603152e-02
7.578991613747018685e-02
9.131848087616351028e-02
7.086664871739987992e-02
1.003381791352140895e-01
9.245852619951373808e-02
1.622861143713589527e-01
1.104143327461747648e-01
9.760057363861679436e-02
1.342384863554926255e-01
1.251173861500451678e-01
1.482574960713053946e-01
1.984247215610013271e-01
2.026087546508000548e-01
1.721072290012338191e-01
2.261366859956235598e-01
1.365888330738822265e-01
1.575883569237235549e-01
1.932069347510480262e-01
1.682548347045939585e-01
1.903221793704680809e-01
2.193838482248750554e-01
2.679879610617713626e-01
1.939187711808934012e-01
1.537419477389323497e-01
2.284726155483745302e-01
1.902670732394660946e-01
1.416251798467461909e-01
1.955253426340063383e-01
2.214098910570037049e-01
2.061444748373127966e-01
2.180899405062395324e-01
2.354106970865637027e-01
2.236778053501440044e-01
2.387191479508660730e-01
2.636446760022922997e-01
1.534100080418753786e-01
2.290298860588551033e-01
1.629700482142431017e-01
1.892525024249762933e-01
1.911187824829234660e-01
1.998433528676384352e-01
2.105209462812347998e-01
1.985611493516283022e-01
1.952679910527846951e-01
2.325247679500208053e-01
2.209588567892741828e-01
1.607335548753180965e-01
1.670806339632806559e-01
1.469714027136728440e-01
2.195593248750193072e-01
2.053613549527458226e-01
1.257137601296950680e-01
1.170656659396426269e-01
1.341948106358931969e-01
1.192577338395811593e-01
1.329638891856766703e-01
1.506915646846087309e-01
1.830670314640697738e-01
1.667172262963105278e-01
1.222244986071880507e-01
1.014036922037321875e-01
1.129722146242012337e-01
1.509616380965266846e-01
1.396213331274283320e-01
1.593501025259949633e-01
1.249767993572659941e-01
7.759917598679534623e-02
1.071048350651569586e-01
6.536043528030487104e-02
6.845699993634343783e-02
8.565824698225724121e-02
8.751399595545966692e-02
8.523169772736627348e-02
7.572552026197162944e-02
7.927805603881785124e-02
2.571890835131739744e-02
4.671864064516319942e-02
8.483532708934493627e-02
9.619390135781542839e-02
6.513228338397875072e-02
3.449832852710339043e-02
3.341723806320674034e-02
-1.057800803185367233e-02
6.001166292582354317e-02
-7.916678701367103194e-03
3.936558161223847191e-02
-2.909959621821322368e-02
5.093180695469547159e-02
3.773425682670977777e-02
1.440711541422971115e-02
1.388546911233579095e-03
7.555777292492585340e-03
-1.748342335598827499e-02
1.960067327897143524e-02
-3.235744817254879169e-02
2.944797591417903232e-02
-3.417287890648396803e-03
1.272507974507024187e-02
-2.706201909468231373e-02
1.029048098051175975e-02
-5.369221298612256860e-02
-4.390770542584327557e-02
-1.169704547320354546e-02
1.279783373553087730e-02
2.745786633151476100e-02
-9.390580608523690920e-02
-4.184097050494896275e-02
1.445546727852237839e-02
-2.484122845322004475e-02
2.578851953121796131e-02
-7.035802699092742751e-03
-5.032670781572594343e-03
-5.110984002579857521e-02
-4.417589062493412766e-02
1.028975621657582037e-02
3.151157775545070094e-02
-3.642518770591785665e-03
-3.815805050174506802e-02
-2.814126631083119917e-03
7.977770345423185194e-03
2.866276689659084942e-02
-1.309240569547345454e-02
3.117829615756965989e-02
2.593827522029732574e-02
1.098672624799703484e-03
3.168780377464676390e-02
-5.682489025604374466e-02
2.677181489743368087e-02
4.317261377192654903e-03
8.444362283062327446e-03
3.954394275717020013e-02
2.219545542708521030e-02
2.571539266048319602e-02
-2.226940856877648173e-02
-3.652949055794711686e-04
6.690175118943074428e-02
2.014739562370759449e-02
1.563632111130205601e-02
-2.459262954022526163e-02
4.614728712801357408e-02
3.281337740228798538e-02
4.738872399150981241e-03
6.451282226858283397e-02
2.404106325686676190e-02
1.227175358893593804e-01
6.252024482148098306e-02
8.628749422657860935e-02
1.194551118612258434e-01
8.606061176545133640e-02
8.725166828357389104e-02
1.275972018618548587e-01
9.849168545538107555e-02
1.017989305030414238e-01
1.205120922803974148e-01
3.825758266211052444e-02
9.976501443630714228e-02
9.731890676559981634e-02
1.187391406958129142e-01
1.642391143412398335e-01
1.144917069740592069e-01
5.059169700401451586e-02
1.025299878669449771e-01
1.122604428519436010e-01
1.736232898196934105e-01
1.807972958514048600e-01
1.152200010806899017e-01
1.487001054225352836e-01
8.390901519273674669e-02
1.927700609497074169e-01
1.297342930894851976e-01
1.685829416710308559e-01
8.238788464690853519e-02
1.582200099548243533e-01
9.925871071329399331e-02
1.257061766232944744e-01
1.330059180190803492e-01
1.211451986486372923e-01
2.049258778760194299e-01
1.124636508621561781e-01
1.222954289776294334e-01
1.469714870343472590e-01
1.601618144389755638e-01
1.376286879808452657e-01
1.711677728698007828e-01
1.890819199582349508e-01
2.488155348986365034e-01
2.492614445795897637e-01
2.241598137746004249e-01
2.446173518968237093e-01
3.129217695654419873e-01
3.436587454600156799e-01
3.565053599323430022e-01
4.576308651500471392e-01
4.738223401122436673e-01
4.966591116171858999e-01
6.076099009208049129e-01
6.427635492926037086e-01
7.219916761065079402e-01
6.930664922546271312e-01
7.593007923019654548e-01
8.937838771228671098e-01
8.811856749083523122e-01
9.566577948834568135e-01
9.506387331852808042e-01
1.076496074035827810e+00
1.038528822786469741e+00
1.060271426188374111e+00
1.066037809539591930e+00
1.115329822181784003e+00
1.093318439137993092e+00
1.070972114008387432e+00
1.014245372280990543e+00
9.619755100842634077e-01
8.964530153391467859e-01
9.062246412007664009e-01
8.093889546349072317e-01
7.528494654769988248e-01
6.735365379759491455e-01
5.910830464036795906e-01
5.768712891465163084e-01
5.358338160575218945e-01
4.720029145271308346e-01
3.624854211289549877e-01
3.742687331921963345e-01
3.198716338006309945e-01
3.176139098025894669e-01
2.821400380192308210e-01
2.434432652943141484e-01
1.896615026916924074e-01
1.545694724221817196e-01
1.438152751942741170e-01
9.064012236334566264e-02
1.730752129726682298e-01
1.558778770800846314e-01
1.319028882932600233e-01
1.798960415283075431e-01
1.583020906910982684e-01
1.815700669932047429e-01
2.192001510864333425e-01
1.590515627277996336e-01
1.590176682626473492e-01
1.944833505660934769e-01
2.006121690692889703e-01
1.627388206343352017e-01
1.395287750323284670e-01
1.864330171731275465e-01
2.170252107529145602e-01
2.147091947814492308e-01
1.809879743646818639e-01
2.510741682405518427e-01
1.861439683096968167e-01
2.100952038907068220e-01
1.991977391585828261e-01
2.324334497351295548e-01
2.010005832755621669e-01
2.133536308590368580e-01
2.588010006569769761e-01
2.409679986312202038e-01
2.434286277761676109e-01
2.703111144246241881e-01
2.566012799694045721e-01
2.829392211656088230e-01
2.545978561931308559e-01
2.498597339999153177e-01
2.545911349449792027e-01
2.617049824100605160e-01
2.364170056732745884e-01
2.694827546484097613e-01
2.342475232882751113e-01
2.745268930730130341e-01
2.816958717271101920e-01
2.441951889639546736e-01
2.395222774598514681e-01
2.120772205150764922e-01
2.705600216102316269e-01
2.701186681781455601e-01
2.498498352227403740e-01
2.181344117923298964e-01
2.230979938819525332e-01
2.476162137650952666e-01
3.101397362733298579e-01
2.331373855226280545e-01
2.262685769752099119e-01
2.551038686812148737e-01
2.156138526267820654e-01
2.160208097085589141e-01
2.493927961930394455e-01
2.575694323459541413e-01
2.595356340805159978e-01
1.991732615512684379e-01
2.439462326609629361e-01
2.185509478092425850e-01
1.493912143747366805e-01
2.029496814201537380e-01
1.345658242803473570e-01
1.897936319006641170e-01
2.330592359291319415e-01
1.866968317423520762e-01
1.888453236415628123e-01
1.469510539966408791e-01
1.833508381030092560e-01
1.418189850696313092e-01
1.214003929024408124e-01
1.650620557543031053e-01
1.652320724890672665e-01
1.646029366481195078e-01
1.703644238621205287e-01
1.324555098848264889e-01
1.629334885395445631e-01
1.276684853785818030e-01
1.312721067308592060e-01
1.367795025886374138e-01
1.048399259493709851e-01
8.365164530226168460e-02
4.366520327359912912e-02
1.216864847097640090e-01
9.609230121586335993e-02
5.278499336859664159e-02
1.082812954127557875e-01
9.550400192213662209e-02
1.523870424462269169e-01
7.590150806397075178e-02
3.930338194198368384e-02
1.169938354605613989e-01
6.698182118936239771e-02
6.684286894432460435e-02
7.533257515576395613e-02
5.874439300856929003e-02
1.080211668622969579e-01
6.173837929923124690e-02
5.853966224641600491e-02
3.681519264877831932e-02
3.851525663603472260e-02
4.629505423970738109e-02
9.099867453628898706e-02
5.228940468251390417e-02
2.319047504680098876e-02
1.729286047540503843e-02
-1.716853744957094058e-02
9.431055965534480834e-02
1.184631821770653140e-02
4.417797972980960775e-02
3.419221031301807739e-02
2.377047281641601201e-02
4.175078918691040725e-02
5.573306810184429361e-02
3.673599893034548702e-02
-7.221591485529813698e-03
7.684344095445067024e-02
6.810456161759979865e-02
9.344696616034493808e-04
3.349723946837031285e-02
3.116885765536051706e-02
1.232159181401555614e-02
1.395690648281634749e-02
4.715974233069821636e-02
6.046380479027806121e-02
6.550062645391463434e-02
4.069024121729306054e-02
4.071590349221473892e-02
3.775310989729454419e-02
-2.734902061621116015e-02
6.152683999760016897e-02
-1.231669482819910261e-02
5.207956356680751298e-02
4.530915822639114410e-02
5.974192008634750251e-02
7.592403486499246790e-02
6.342490544785858719e-02
9.451320924383431465e-02
9.318159767928278769e-02
1.269053515450447311e-01
2.346371370312447940e-02
7.609089500251194071e-02
4.315724190939668192e-02
7.293934131209955929e-02
5.007976521100938189e-02
5.747475689579605029e-02
9.923750675340314853e-02
1.079355409306134994e-01
3.199634346440818206e-02
8.338913474915185531e-02
1.181448515599363980e-01
1.100715913345277630e-01
1.080192091246143515e-01
1.343342086863848484e-01
1.177861424397552703e-01
1.080211887574463736e-01
1.195939032761888787e-01
1.445183833415163988e-01
1.220289601248977507e-01
2.210839289998931534e-01
1.632692908133401843e-01
1.616444275984270651e-01
1.632004942955044835e-01
1.671426183454312320e-01
1.488970251258004973e-01
1.570718053066638975e-01
1.753598270493964828e-01
2.314666915881818388e-01
1.541550291543134221e-01
1.691051823897811168e-01
1.936879748468401663e-01
2.193065374810459212e-01
1.887706446369931679e-01
1.754975663176553402e-01
2.167251305873572620e-01
1.760221111319785203e-01
2.689650857837087572e-01
2.092349613985830803e-01
1.852145882289299716e-01
1.812380881969650193e-01
2.207609832217501677e-01
1.976030169903458256e-01
2.482394834761611768e-01
2.003751203136896475e-01
1.615588230432926653e-01
1.942273051657845140e-01
1.851228570667327045e-01
2.195504579000940315e-01
1.989656590737625963e-01
2.150837312484334130e-01
2.328544000605256570e-01
2.479450036752386954e-01
3.069654846661061809e-01
2.876941300242866206e-01
3.340912686088570172e-01
3.579361181158541849e-01
4.046031255188736186e-01
4.157059229562938274e-01
4.901401858776575637e-01
4.890235064745457327e-01
5.410354370417372882e-01
6.234966856775554511e-01
6.775438167647336307e-01
7.399793630750973739e-01
7.521318172587116990e-01
8.476907590001007131e-01
9.363560251626427133e-01
9.405085780267880002e-01
9.969317936665316182e-01
1.094034065151494151e+00
1.062229961979100246e+00
1.128016141390876470e+00
1.131740266742270906e+00
1.101077367274985619e+00
1.135274944814421705e+00
1.096697304956661734e+00
1.071300112480535249e+00
9.801598445189496633e-01
9.936874321175480640e-01
9.565929121271186109e-01
9.184336484357419339e-01
8.318166032211601335e-01
8.320227196117316870e-01
7.068178140156634592e-01
6.905793966409744522e-01
6.188274701305189751e-01
5.265688521062508176e-01
4.740457368484735090e-01
4.175252012896887854e-01
4.152525338421059198e-01
3.647097620853764766e-01
3.294382670091103860e-01
3.067779360708749459e-01
2.516324904883595059e-01
2.624059447853315796e-01
2.400428325823571463e-01
1.806774255530112783e-01
2.177488658476307848e-01
2.261268278124985986e-01
1.674448618326220828e-01
2.352766157653721490e-01
1.926177035550477312e-01
2.042260918994606156e-01
1.975358351924857703e-01
2.266399927597376185e-01
2.569835787736949317e-01
2.245647656638377621e-01
2.129448927053651519e-01
1.936150378656283366e-01
2.062464932489742053e-01
1.717442932810527290e-01
2.018326716519125430e-01
2.563370742807979941e-01
1.948851101078519776e-01
2.584564708525532439e-01
3.063021335742464046e-01
2.339172053367871984e-01
2.394598257169637812e-01
2.576534788128128084e-01
2.472436046809436683e-01
2.739036164417591457e-01
3.038165300910290467e-01
2.831984533180037511e-01
3.077001228455001902e-01
2.733051075958666809e-01
2.626917033851640659e-01
2.482947585974132065e-01
2.278125379795864214e-01
3.155305453072559385e-01
2.916179522526576307e-01
2.482539756487670835e-01
2.521885456933580238e-01
2.953376090196780934e-01
2.534130778738920564e-01
3.193594681344750219e-01
2.978069136187777022e-01
2.956892829070031370e-01
2.635369602834411462e-01
3.141996743646587320e-01
2.872659910090603619e-01
2.713074268901486952e-01
3.257556816536020250e-01
2.783997773145441834e-01
3.016218201138972099e-01
2.870497618864721323e-01
3.358037751867267717e-01
2.728123054300373163e-01
2.628801782279328592e-01
2.342230533314579588e-01
2.449652503827854100e-01
2.398077808498138286e-01
2.820252482726545162e-01
2.673460071210994049e-01
2.401582097761921775e-01
2.598816728334177872e-01
2.302314462009287244e-01
2.264462734552516177e-01
2.206926218691145358e-01
2.048075068354584805e-01
2.466028305451273828e-01
2.314468038790140070e-01
1.957749168155107911e-01
1.844125580990604030e-01
1.882828427622187384e-01
2.285147683102239646e-01
2.540240453972217871e-01
2.143245771002967870e-01
2.033071428465358932e-01
1.979714072745501485e-01
2.167219946053345891e-01
1.778753634820867680e-01
1.989771425841032060e-01
1.472944086007291209e-01
1.240818334920431587e-01
1.549624706759238080e-01
1.822289174562126413e-01
1.531996081480806460e-01
1.269356615815629974e-01
1.343196094068997981e-01
1.546826958265423713e-01
1.248071608960988899e-01
1.601903768071880896e-01
1.365683296141596004e-01
9.383605375257372816e-02
1.425892907081489080e-01
6.703445188413559297e-02
1.023966794621669202e-01
1.123512721798892999e-01
6.637479447369520891e-02
1.175730770550647425e-01
8.835514234744828999e-02
1.058540387000774519e-01
1.177958153052680451e-01
8.004442535488071053e-02
1.031576845181828156e-01
7.410687696948478620e-02
6.281783026572057560e-02
9.471522753171740527e-02
7.471091917817938854e-02
8.676671723749226905e-02
1.241734969618103757e-01
1.812118233217683422e-02
6.399883683466799089e-02
4.208476170856378928e-02
9.682139481278340121e-02
7.170461466399535855e-02
6.584464440337843560e-02
6.957896794199452950e-02
5.585613042499601444e-02
9.207265142567809535e-02
4.506778101542342069e-02
4.117554003055667877e-02
9.187410237369261767e-02
2.167176004182396615e-02
7.916429979063976941e-02
8.256742451412980854e-03
8.910229510702438738e-02
5.260723590781733044e-02
5.769495526811650038e-02
5.516397441733569135e-02
8.897976995863463023e-02
8.084981199815011177e-02
5.966390852626586583e-02
4.619800642275084107e-02
6.076583964318131581e-02
1.079810264927265340e-01
5.930570579459651381e-02
8.227499607163582529e-02
4.392158047100186424e-02
4.365831990475432106e-02
8.214427976862526126e-02
8.302403493284563063e-02
3.362112804583698711e-02
7.113866115586287009e-02
8.924168379884095392e-02
5.216544657488138281e-02
9.080815631425814827e-02
7.697933630213388279e-02
1.350258115987229557e-01
7.218903027691001006e-02
6.892669682954688515e-02
5.508379182226379872e-02
9.990428408511009550e-02
1.086953898940766494e-01
1.316332459042283409e-01
4.005905202917015712e-02
5.919874126040768070e-02
1.177564806626960614e-01
1.165476270854793051e-01
1.023717044272998700e-01
1.333952075147380456e-01
1.900860003943976306e-01
1.052547164626028708e-01
1.428844641785763647e-01
1.408611814668458417e-01
8.217967659655617263e-02
1.025964551739718400e-01
2.371486430790789579e-01
1.326482052773823306e-01
1.432064843651858210e-01
1.175592876994578512e-01
1.153321354392614073e-01
1.052285966489329427e-01
1.399015601042183643e-01
1.776955329506127446e-01
2.583174955767369441e-01
1.739669734868564688e-01
1.470037098616071014e-01
1.692657552070510885e-01
1.780994516404609540e-01
2.338451429327906006e-01
2.150164051436786739e-01
2.170210076106136032e-01
1.417448097920516181e-01
2.256413464670916080e-01
1.625800718459972649e-01
1.888882383309166413e-01
1.742804672583530556e-01
1.928092385674942955e-01
1.865262944229885700e-01
1.939930672241809428e-01
2.681883683120706574e-01
1.751396659692351088e-01
1.621963407388037348e-01
1.880414360937447682e-01
2.203128528667959718e-01
1.462435371016391761e-01
2.587596044132391970e-01
1.588165124510434456e-01
2.213188582478871069e-01
2.846791977776420568e-01
3.179087929743570351e-01
3.085134009601653848e-01
3.405417516348004936e-01
3.324088451442460124e-01
3.805023760624757223e-01
4.676082979646870585e-01
4.824826099853440908e-01
6.074362698624007351e-01
6.667923428440580835e-01
6.724737533850465576e-01
7.013689784663076354e-01
8.489625796617367159e-01
8.699981423617837439e-01
8.707448185003039409e-01
9.650703708813218595e-01
1.049062610616496416e+00
9.985824916954871844e-01
1.038266904269374180e+00
1.118202611244151434e+00
1.138121267166405381e+00
1.083465814451399112e+00
1.057573516237297673e+00
1.096874512251882150e+00
1.136406923008328684e+00
1.077589107439323346e+00
9.819456286052035132e-01
9.268366742696293459e-01
9.253419892663459212e-01
8.454756069644993044e-01
7.934893134815338422e-01
7.037706128194348709e-01
5.815416292983135449e-01
6.615043740825663487e-01
5.090323739043393081e-01
5.079462318091729767e-01
4.480276059958603341e-01
3.849059256146444286e-01
3.893092679639457709e-01
3.113131568077734945e-01
2.852361104751145460e-01
2.565852572305272195e-01
2.344824213444314243e-01
1.516071064933843804e-01
2.035600017353410562e-01
1.691460599686472055e-01
1.422324990906565501e-01
2.091257468731919089e-01
1.501092237137987562e-01
1.563189152249387370e-01
1.861759159055887958e-01
1.659900247635501258e-01
1.780897190123605645e-01
2.021404316650596278e-01
1.703502537073290080e-01
1.718115171156174015e-01
1.479101924730593653e-01
1.527202454700499479e-01
2.091649153877656875e-01
2.601193238470091984e-01
2.049876716450593217e-01
2.226348395909076849e-01
2.222921154022691193e-01
2.347507594337965853e-01
2.405546897613814739e-01
2.695754270623710869e-01
2.305482284456336073e-01
2.562314964694658026e-01
1.973800496790846792e-01
2.069205381842059710e-01
2.681845002393444255e-01
2.985197573235199853e-01
3.044447749638805600e-01
2.879925250624271182e-01
3.114795672923107439e-01
2.115895168613740607e-01
2.405212781163734714e-01
2.313988901310483071e-01
2.311782440166890162e-01
2.696905458208806450e-01
2.711482001028192035e-01
3.215870404995786469e-01
2.307745310403698513e-01
2.420810580546650381e-01
3.084497715876640123e-01
2.634063309604638414e-01
3.163436922191334433e-01
2.455499831808996003e-01
2.814768974097447418e-01
3.315906296845600454e-01
2.646873506401080101e-01
2.462050867194548187e-01
3.012825282984208375e-01
2.656416235659261327e-01
2.752911661251875586e-01
2.626744219249014245e-01
2.182651192923678596e-01
2.744892685023133660e-01
2.791708045376593006e-01
2.594107156301005412e-01
2.476392254219298150e-01
2.357973394223694119e-01
2.256612434595812733e-01
2.042146003941774923e-01
2.092763855582187582e-01
2.218583502425249265e-01
1.857392799325306432e-01
2.328421956246987390e-01
1.668452568762198995e-01
1.758844227964168616e-01
1.798028420211962297e-01
1.757708992551825500e-01
1.532367069278923466e-01
2.250914457592255169e-01
1.365715252726792395e-01
1.903230849340004638e-01
1.291156740970993144e-01
1.438943260181791972e-01
1.591398932667734689e-01
1.027621097476984074e-01
1.014726017833518096e-01
1.401862553683607682e-01
1.184366444839349275e-01
1.838590749090627807e-01
1.202567823252292528e-01
1.160406478447599393e-01
4.821856535192032417e-02
1.123701901826415495e-01
1.543384331988231495e-01
9.985302495158586422e-02
1.292536695727686813e-01
1.056168581862814426e-01
1.271568156980995290e-01
8.303366606954007412e-02
6.683882274080558961e-02
8.550387543149394476e-02
6.509095476115939194e-02
8.437651390808517671e-02
8.323712961651361097e-02
8.600018803714887250e-02
6.304485779500301756e-02
7.018910081090298791e-02
2.181836047045953089e-02
1.805637148583123103e-02
3.775405689409622179e-02
1.794644438792733845e-02
-2.250264882108702832e-02
2.322037786952274932e-02
3.496099503191137103e-02
4.858908772277247684e-02
-4.150337592207752752e-02
4.451014770043108110e-02
6.170406016694104240e-02
3.241976733750590728e-02
3.335110099584436688e-02
3.224948150322839990e-02
2.321643068789807501e-02
4.362156440263977725e-02
7.166128372377612854e-02
1.378597014823274361e-02
3.098899446821579834e-02
-3.054572200456815226e-02
1.692381934870200444e-02
-1.702869329009317270e-02
2.537882548370346339e-02
2.922980781701992048e-02
7.221193566346360837e-02
-1.541647606135793797e-02
3.287144950979867253e-02
2.711548704143715294e-02
1.025126410896013210e-02
-2.838331184302186720e-03
7.145905367119016749e-04
-8.692408002354003703e-04
4.319465876936409536e-03
2.747492287559633040e-02
1.211358071171532956e-02
-2.354900654662765019e-02
7.107260239469070234e-03
5.172752799915016075e-02
3.531030362434135761e-02
3.281559407995065375e-02
-8.378901767467450499e-04
5.562676784030794186e-02
4.476422016062802517e-02
-2.045287335927146316e-02
-6.800295093506479073e-03
2.594658777405625671e-02
5.379259499324712951e-02
2.099542031259770541e-02
3.132556369047302669e-02
9.436486357379558765e-02
1.437544824774854334e-03
2.580705217229753434e-02
1.017945576427839866e-01
5.779202469160685252e-02
5.763045301955067173e-02
1.211824054289630248e-01
4.184434949930380260e-02
6.078250572691865083e-02
6.710019066089473183e-02
9.258385375381877891e-02
8.366009445537747613e-02
7.695619359049762909e-02
8.511219503337771886e-02
1.261385785411778815e-01
1.410687142478344036e-01
8.776132876112474612e-02
1.107220713526854694e-01
1.430233354863696127e-01
9.700034364708001733e-02
1.093020830985880071e-01
1.281539156047675487e-01
1.261534613533026039e-01
1.175670565329349215e-01
1.673841151725063703e-01
1.196466736000908887e-01
1.741160822343698344e-01
1.497993068359854130e-01
1.062728103558537585e-01
1.886317327073639138e-01
1.048567976722745987e-01
1.825995474813732200e-01
1.444400402299069464e-01
1.721169765242155369e-01
1.511383766897461123e-01
2.063249068256174379e-01
1.323366036059795969e-01
1.409449189768859356e-01
1.509140761616746818e-01
1.340335390847099128e-01
1.210753798148261617e-01
1.107167015797808768e-01
2.022543814099170556e-01
1.362420247327321976e-01
1.866448078184969328e-01
1.808390302231507318e-01
1.744621169424820095e-01
1.927246450080237483e-01
2.089776445808190497e-01
3.108045979105023005e-01
2.781002790831506588e-01
3.570591698072975162e-01
3.693611722253288820e-01
4.377518311167306053e-01
4.708712304798212123e-01
5.384138279710031227e-01
5.794389064277276624e-01
5.767380271708474337e-01
7.287628429431144417e-01
7.427696363876442609e-01
7.873733458136918939e-01
8.605697214822619623e-01
9.507595888736458667e-01
9.596433908448154249e-01
9.896719786049303913e-01
1.067928170341143179e+00
1.018421011932934883e+00
1.028679608547164781e+00
1.041847935277202764e+00
1.058538429079036058e+00
1.036558156376178097e+00
1.051569771436683842e+00
9.755795428463510666e-01
9.618111489487555232e-01
8.642533468464284052e-01
8.228103561263766519e-01
7.708938299019005846e-01
7.202246112100259001e-01
6.596711220569042577e-01
6.055769508419155400e-01
5.402910306685009267e-01
4.041322396318935972e-01
4.075732899319184921e-01
3.633852121479878017e-01
3.284976261567374989e-01
2.968823532594776493e-01
2.848444243577039070e-01
2.105012013918333980e-01
1.372204563145570932e-01
1.788228750014961843e-01
1.730564269079725159e-01
1.904694614050186641e-01
1.328890219891338265e-01
1.216453680625618344e-01
1.074910201112550256e-01
1.866129327906688173e-01
1.864464916276528939e-01
8.679737435836216985e-02
1.216002946169010002e-01
1.251170418176648091e-01
1.517737503063524562e-01
1.157731641891917712e-01
1.598181652246304096e-01
1.407606111602228705e-01
1.174248914347298389e-01
1.705946586427599110e-01
1.951708129708085715e-01
1.279558383619199824e-01
2.041554972805880996e-01
2.057639558697756943e-01
1.951977888516186754e-01
2.023860639113890247e-01
2.046673733893769054e-01
1.504241886809629947e-01
2.081343652857119420e-01
1.768692965049719068e-01
1.825121266267327458e-01
2.588319351032548621e-01
1.934877403543273089e-01
2.149148663604296683e-01
2.517067818648091593e-01
1.995919912745534042e-01
2.317295883562396630e-01
2.136747653403526237e-01
2.450077618192020856e-01
1.909140402274452364e-01
2.057674542805702222e-01
1.798668535641163024e-01
1.989317534293779666e-01
2.372364414234837959e-01
2.256874520424651254e-01
2.083590616211069835e-01
1.913571388361320347e-01
2.368123843146761609e-01
1.691134045366681493e-01
2.292517441266688771e-01
2.308709913377745004e-01
2.009184268997313283e-01
1.837477906855057574e-01
1.601399256035339058e-01
1.998782677387041518e-01
1.989211157424794207e-01
2.094048058168404836e-01
1.449316801306561320e-01
2.280170504766317052e-01
2.173643513443709596e-01
2.302361472259043251e-01
2.139589460394099862e-01
2.196911654159404148e-01
1.635183406901977998e-01
1.736081327742121649e-01
1.603004519021311858e-01
1.591989982126037761e-01
8.637897786317005888e-02
1.357935939257882418e-01
1.244803228338088735e-01
8.063489273846949357e-02
1.581985444420637432e-01
1.176692011547814942e-01
8.731359238489749819e-02
1.430835115366071442e-01
1.202810460448881513e-01
1.318668480866627968e-01
1.161181512329613752e-01
2.952258862613866414e-02
1.108295032095745203e-01
1.132214996509413873e-01
5.607153059546852308e-02
7.473822183526498963e-02
1.173006433087628309e-01
9.749244919433591727e-02
9.833722056652494103e-02
4.918327174102820470e-02
3.466230444581245435e-02
7.145376398233962978e-02
2.835562070812773505e-02
3.388365377720154586e-02
8.582413732826590924e-02
-1.622507511462589758e-02
1.772200781340027564e-02
-2.359428190849063856e-02
5.663405964288675820e-02
3.196408157756043533e-02
-7.126442917072622896e-03
-2.646958160020457251e-02
-3.979261863693490248e-02
3.172025458510676493e-02
2.223551215159954436e-02
6.077960776443989271e-02
-1.524019928135108073e-02
-1.929016904877754388e-02
2.157041386525714727e-02
1.003625203422994078e-02
-1.060010972322141323e-02
-1.237793765102906257e-02
-7.224690485532807294e-03
-2.173043281526314610e-02
-5.797629254684588673e-02
-1.356392872147526435e-02
-1.555136170327081624e-02
-3.433563656580777140e-02
-6.336835424696492247e-02
-3.681636929358321486e-03
1.897772403882899001e-02
-3.079253587596636477e-02
-8.332464508532103076e-03
-4.730472286950791749e-02
-5.183239909716475663e-02
-2.487454778777336423e-02
-1.978949820986101310e-02
-5.191152655364341534e-02
-4.301365115520471710e-02
-6.022541569862016608e-02
-1.975965088158758431e-02
-1.543899108244028984e-02
-3.438064435924745310e-02
-2.824255133445326832e-02
1.338538675319913412e-02
-5.720494734303686879e-03
-6.396492804045211811e-02
1.434291387476585578e-02
-7.391595389711465292e-02
-5.407531444597704628e-02
1.154511079407181257e-02
-1.159791404358662820e-02
-1.022785327881873263e-01
-3.222948325363485939e-02
-6.948393902501778796e-02
-1.998041340520361961e-02
-1.486857085214945279e-02
-5.922521727218974658e-02
-5.011078501415607012e-02
-6.494539233408078149e-04
8.018679585724775016e-03
3.691474606203816455e-03
-5.470632582489483309e-03
5.469721403931090270e-02
1.006006109073113997e-02
2.545941861856439864e-02
1.389570056693869432e-02
1.102411727456916596e-02
2.690695793711013473e-03
5.334230841798937028e-02
-3.173660514440907604e-02
3.890833838402950329e-02
1.045603355545175195e-01
5.848403721802443445e-02
6.400653083459133252e-02
7.541747960054320798e-02
5.540320964453009089e-02
8.938734784286679613e-02
4.283905106627310805e-02
-6.662921022751476519e-03
5.978271233989405214e-02
5.499528627457890562e-02
5.402043220934822643e-02
8.645040780710322448e-02
8.700947057715879840e-02
8.580868523429679984e-02
1.052034765685478934e-01
7.905614678046585242e-02
6.391228556053668575e-02
1.440129078709375121e-01
5.395591173125233869e-02
5.561116217030944581e-02
1.256078707972403952e-01
6.621483396094729468e-02
7.668186527504616823e-02
6.882539652406197139e-02
1.143734711095745760e-01
9.355956280556318450e-02
8.686896081962970639e-02
1.186999845991771052e-01
6.541235185355363801e-02
9.878549562440894216e-02
8.762616265570769003e-02
1.165465045216577122e-01
1.587731762642366762e-01
8.883511372572470977e-02
6.207824372139973679e-02
1.284401369699105511e-01
1.112820458494949150e-01
1.209716445878839530e-01
1.588268165585096370e-01
1.399906792955006862e-01
1.420720660886276576e-01
2.019776220734764149e-01
2.189601270922053589e-01
2.867553514054310693e-01
3.013237642763850754e-01
3.650388842824889846e-01
3.417969473057889673e-01
4.156911342549789445e-01
4.596912570252502106e-01
5.451164618240391668e-01
5.668789345958721304e-01
7.030064680544073630e-01
7.277584608786326070e-01
8.553994218131670824e-01
8.067611686375415481e-01
8.829784427725650975e-01
9.108942404312599939e-01
9.800751377661224284e-01
1.003398260207488457e+00
1.051767307209958258e+00
1.037449230046466608e+00
1.019020918328261915e+00
1.045385513559461632e+00
1.027592614646994473e+00
9.881250957173217664e-01
9.260166959933422426e-01
9.119322313806068614e-01
8.126821614210186784e-01
7.909862037468355922e-01
6.801513233852316542e-01
7.390940612659714359e-01
6.088604997612023784e-01
5.389909853300569598e-01
4.499942191164880145e-01
4.195555434302513098e-01
3.503425133802453573e-01
4.091476155544124804e-01
3.113679442903615202e-01
2.703627268978853748e-01
1.908203112549837210e-01
1.554437476802500717e-01
2.071910512844772900e-01
1.678299304163595740e-01
1.555750413708283098e-01
1.474826405181414168e-01
1.058093422640461190e-01
1.320400573727888993e-01
1.066206177357509749e-01
1.445115801466443639e-01
1.229901137255747512e-01
1.260655434388336382e-01
9.039137943862791957e-02
1.371210429107476148e-01
7.082908451394008542e-02
6.494928431875357511e-02
1.590076316333984829e-01
1.317661395176866479e-01
1.126521709987052949e-01
1.479185116781558118e-01
1.408641825218852617e-01
1.028023140781485489e-01
1.590444958575078227e-01
1.575346474454324130e-01
1.520514157278756440e-01
1.912211017058059181e-01
1.813966642708934873e-01
1.411261964247186862e-01
1.686015417408379402e-01
2.201343453151765051e-01
1.629647113517558310e-01
2.066141651660379219e-01
1.905458027968769952e-01
1.566927513456555232e-01
1.684318297039560375e-01
1.860997891455438147e-01
1.798240086109127167e-01
1.915480192991921293e-01
2.281849784792350233e-01
2.101843043442500059e-01
1.647193251125890490e-01
2.721243518697749608e-01
1.263450756722760138e-01
2.616733448495606740e-01
1.770420044922627056e-01
2.127814396244623596e-01
1.816920576078722149e-01
2.375392695858218883e-01
1.754622679696252185e-01
2.423303545647150503e-01
2.359988103799259829e-01
1.798880072530351648e-01
1.807777038219468557e-01
1.662792493243931413e-01
1.967739623333071008e-01
1.521093549731069028e-01
1.757870152737175118e-01
1.488473208677578152e-01
1.930197338935186746e-01
1.949321966902549386e-01
1.575518626812188461e-01
1.597212819033244913e-01
1.815773638544936341e-01
1.925976690054329588e-01
1.103342694177573691e-01
9.129194322320938193e-02
1.718106118851525643e-01
1.312801293365596644e-01
1.566927070286285306e-01
1.289599570419830421e-01
1.370659324265826873e-01
3.876233569935903789e-02
1.167721632570560553e-01
9.068424967736846143e-02
6.013637282934822248e-02
1.056013435282407709e-01
1.352885485674942545e-01
1.424165379938671927e-01
3.327342921865089620e-02
5.937573987100316919e-02
1.245813657147658571e-01
5.206655750564103541e-02
8.522836930530208743e-02
5.343781525310845049e-02
5.522404196104271218e-02
5.630509449351265433e-02
5.689080923406178436e-02
8.809206765658202098e-02
2.785652045346383859e-02
5.739037814478029076e-03
4.841551729775517288e-02
2.428324772966704986e-02
1.803239433010312559e-02
3.360830434591261656e-02
3.976703840806051354e-02
5.477510662042678335e-02
1.565897702767049537e-03
2.991560301415655682e-02
1.451989086345192859e-02
-5.229146588156353970e-03
-3.298753521576704845e-02
-1.751186928212044788e-02
-5.956923286040732846e-02
-1.784766772057361575e-02
1.541888779964178252e-02
1.079789125783819914e-02
-2.643854948988883305e-02
2.315358025394828601e-03
-5.000068101925139730e-02
1.397775701508820884e-02
-3.447920775650460679e-03
-3.674489035048000146e-02
1.153883051284503719e-02
-4.430859052837086975e-02
-3.191358874174986954e-02
-6.635651359184127629e-02
-1.612024861898693484e-02
-4.834471662146969106e-03
-1.746490248596243439e-02
1.553412442135267829e-02
-6.642276773723142236e-02
-5.927306020244769297e-02
-2.377002516456813014e-02
-2.947465892452677538e-03
1.724950871236694688e-02
-1.196030073304812230e-01
-4.863217301136318893e-02
-5.151678572054790156e-02
1.715290914950388240e-02
-6.719396675093836091e-02
-3.858577590515126915e-02
8.779071777694415213e-03
-4.034837801472527380e-02
-2.522565788780715967e-02
-2.286447122868930787e-02
-5.757385433448092282e-02
-1.035953633751077879e-02
-2.761813314545268419e-02
-9.116651059205671537e-03
-4.565562090592827083e-03
-2.469152318713013425e-02
-2.223185485443653422e-02
3.149022581568707707e-02
-2.629303778913753137e-02
3.921574817048279621e-02
-2.151993491412228232e-03
-1.321157203488227544e-02
2.666349788652158659e-02
4.386839390867742355e-02
-5.369269360224010468e-02
4.496218178784788105e-02
9.751035143387334903e-03
1.454421897575587652e-03
9.964476352023182715e-02
3.157233680943297843e-02
4.637530023230487103e-02
2.747513388448910576e-02
4.799959593112981121e-02
7.349163636552352719e-02
8.330505129410617493e-02
6.349506963792186931e-02
4.972236919888000511e-02
9.248729007806333335e-02
1.510291105369509779e-01
9.724395796510444667e-02
1.245677785928928777e-02
8.931132870073747732e-02
8.425005232670707001e-02
9.617450427623730480e-02
6.633712046488021707e-02
1.003938215821327667e-01
1.153011751184247480e-01
1.087741372517593286e-01
5.848372473519398290e-02
8.432410456941014099e-02
1.109167109485853092e-01
1.197948769533339758e-01
1.196018273718401359e-01
1.627937130960875334e-01
1.216690414443273860e-01
1.048826572494488268e-01
2.028198973790781012e-01
1.335383667109354688e-01
1.664064426864366175e-01
1.379782967990970666e-01
1.488858117134263526e-01
1.181000502673551084e-01
1.463422240488696791e-01
1.155644998264543782e-01
1.462974799660201886e-01
1.315695437470219553e-01
1.067978761823689116e-01
1.677819004787199364e-01
1.826515014036638740e-01
1.007719028749654716e-01
1.332297175200934380e-01
1.233126288321341052e-01
1.676763929288075938e-01
1.701693806683864663e-01
1.984402563729801838e-01
2.598769275568865722e-01
2.845889584692866126e-01
2.948306039951265611e-01
3.255755977674799628e-01
3.623553029631037536e-01
4.388518777637722135e-01
5.241242500672261828e-01
4.922010402319584865e-01
6.081181667925780188e-01
6.573267307205182819e-01
6.753741091319290790e-01
7.456808195199255973e-01
8.169593579805918271e-01
8.081442395003312074e-01
8.608304442219839592e-01
9.200545760744116564e-01
1.006075437270302020e+00
1.032607145752502786e+00
1.080856432086100494e+00
1.064708334656082389e+00
1.112541253147232068e+00
1.033521252008133162e+00
1.068607660090909572e+00
1.012478047499445033e+00
1.023143616651338350e+00
9.440545559483533022e-01
8.241511813217563542e-01
8.506344965454548657e-01
7.022121466174977567e-01
7.378179596086851255e-01
6.207109685393542575e-01
6.064464410869337962e-01
5.206634819578942475e-01
4.779051568364305336e-01
4.697368739764787859e-01
3.812659909749617215e-01
3.487915145062981392e-01
2.787310323813401158e-01
2.619646603080583724e-01
2.162871689944255438e-01
2.388544516156605457e-01
2.382957401350796478e-01
1.261841527884579039e-01
1.814177520745844652e-01
1.469693128486171951e-01
1.627006694227607353e-01
1.318148666860761153e-01
1.276234137954771752e-01
2.003517035050115247e-01
1.532068953700841119e-01
1.478410412222632420e-01
1.159035057739509628e-01
1.791447001821993290e-01
1.658549407169559453e-01
1.999360969874984795e-01
2.080349760661468206e-01
1.846312077607225599e-01
1.044599806360627520e-01
2.129361444625967603e-01
1.873318662247680511e-01
1.312018468235302548e-01
1.827760209653058743e-01
1.891116384469876122e-01
2.151857721530981982e-01
1.794467153258443859e-01
2.335526936831276990e-01
2.288321645931137294e-01
1.960268242658571303e-01
1.522928794063075908e-01
2.505661214314318097e-01
2.419400474427215175e-01
1.978900420647678182e-01
1.901656102524351966e-01
2.455523397742990221e-01
2.452871147835114785e-01
2.657061761777698705e-01
2.077502464607530186e-01
2.224825769824317623e-01
2.541270981309373678e-01
2.322277191998009527e-01
2.748416132446238058e-01
2.218542399816035848e-01
2.580146583447322506e-01
2.589235845448423778e-01
2.275452217232697971e-01
2.505278076286141520e-01
2.396261528067094582e-01
2.157679028597634663e-01
2.737218966250835051e-01
2.798873240008931673e-01
2.805336297374869114e-01
1.836985412398885464e-01
2.319290913362680451e-01
2.719047760592135932e-01
2.243866850383181843e-01
2.276204887667878374e-01
2.030286173160486263e-01
2.529856291593852724e-01
1.859586640595535523e-01
1.971521708841578457e-01
2.345081889601160208e-01
2.037259279369234566e-01
2.158209230911657395e-01
2.376653476246698704e-01
2.059259888654755566e-01
2.012659561676120035e-01
2.249301471650345663e-01
1.996615153158492195e-01
2.003229184060369428e-01
1.509877455066075402e-01
1.149884665156752500e-01
1.494770960281489869e-01
8.651151739483579906e-02
1.750714540892466808e-01
1.732475614000333619e-01
1.787328634371372627e-01
1.725526351367876743e-01
1.359818370229951001e-01
1.628172073255741426e-01
7.453126692873074388e-02
1.978573765926941452e-01
9.182311076322637045e-02
1.244339180844950266e-01
6.128989730565716915e-02
1.064845418445501540e-01
1.264872144571682899e-01
1.099368079720910440e-01
6.448320024416029361e-02
1.236766957008683526e-01
6.297202874309870690e-02
4.020644838979282876e-02
1.248761245173428819e-01
6.666714745143083320e-02
1.515958688859694002e-02
1.172074676391175602e-01
3.063043755407166696e-02
7.898390320178401425e-02
1.476391155419863599e-02
1.509487755724070804e-02
4.282809306640096569e-02
9.032284037381785313e-02
2.550873432948894473e-02
-6.806505889455359212e-03
1.603717557528358539e-02
6.771620378694573339e-02
9.434121947097770522e-02
6.694224814341780128e-02
-2.375721900063556408e-02
3.341512709564982420e-02
-2.760893470449007903e-02
1.966085298520382080e-02
4.423309412326839607e-02
7.089903667203113768e-02
4.968563529658125144e-03
3.379541467743790717e-02
5.081353715374026248e-02
7.511537178384493363e-03
1.206040419578519908e-02
2.917803542571946462e-02
-3.292494674771864055e-02
3.299012015613797533e-02
-2.762633545096825766e-02
4.451731244132304394e-02
5.872343406642444030e-02
-3.346236304952232565e-02
2.411853036015742038e-02
3.878983598437166919e-03
2.206520112787952598e-02
2.106500698995895232e-02
1.905308646428589825e-02
-9.724136028307382024e-03
5.759668532131937552e-02
8.294150243030734559e-04
7.887402829184299302e-03
4.083861263835096567e-02
7.509961190504621520e-02
4.230704976180473670e-02
2.338168173661811858e-02
2.343647817383766666e-02
5.915182415272582372e-02
4.861660772255356477e-02
2.543437228418707341e-02
1.688870621209456052e-02
5.790584529346158582e-02
1.288940877333547008e-02
1.054708663815280278e-01
7.220199699888080191e-02
6.661192677863315981e-02
2.618898160578329859e-02
7.646285862836554870e-02
7.390850455337433234e-02
1.089505812495209641e-01
2.728821215998838284e-02
1.038036629515293047e-01
5.675860940410046296e-02
8.903313110990263013e-02
8.610573747129933453e-02
3.672111309238413474e-02
8.040027135292968086e-02
1.293298677198067292e-01
1.238376184187992002e-01
8.329768490655450885e-02
1.268485962813148404e-01
8.422498345637811912e-02
1.773529917097171893e-01
1.154693493386106384e-01
1.526366153249081037e-01
1.165344642369467026e-01
1.500346286601135781e-01
1.077349692123003438e-01
1.861176783895043263e-01
1.555135684625209846e-01
1.449415920165884331e-01
1.780816982828281325e-01
1.995341346266662486e-01
1.712425136308705353e-01
1.761369676464735468e-01
2.469304475220482353e-01
1.745145262980953571e-01
2.322749455870394275e-01
1.706463417818880890e-01
1.392544554457302575e-01
1.281612368077600927e-01
1.545831587758129400e-01
1.591717392119888497e-01
1.792807096860406235e-01
1.709164046722279617e-01
1.640413698751534699e-01
1.820928858379026738e-01
1.494716135772555243e-01
1.604675924939142073e-01
2.358486609069883055e-01
1.800403382103364924e-01
1.770051791741723557e-01
2.591612322660898915e-01
2.108306647808423084e-01
2.786537310713343429e-01
3.361750010975573244e-01
2.433996547981639169e-01
3.101631699137847309e-01
3.093369565631792217e-01
3.788519248166404840e-01
4.369428645259254007e-01
4.347163598054586409e-01
4.989405807711454477e-01
6.074163036133046756e-01
6.557498108824343364e-01
7.271294100484152478e-01
6.936937981554989197e-01
8.365192631365485632e-01
8.490418398493535523e-01
9.624212711589359426e-01
9.837174298822530805e-01
1.055402524820491683e+00
1.060912769642947895e+00
1.083334387693243972e+00
1.098422804400439823e+00
1.126466138110962634e+00
1.086353096478647640e+00
1.101382032418949608e+00
1.099508174901294932e+00
1.074387605879627783e+00
1.041974900980430441e+00
1.002100092377564700e+00
9.723952476063124628e-01
8.852439783127293849e-01
8.479328675488905231e-01
7.520325472984665804e-01
7.618212655881664297e-01
6.275526722101177901e-01
5.925669637035908544e-01
5.598534883327577205e-01
4.614419900140817044e-01
4.532659525507702902e-01
3.864348485273493283e-01
3.336788237057265460e-01
2.813917447107627812e-01
2.827833213393096123e-01
2.861136626333888877e-01
2.307272181961700919e-01
2.184316750837108079e-01
2.394202551077326269e-01
2.014024059685315393e-01
2.423368203159209089e-01
1.658083566111571983e-01
1.885374166203195312e-01
1.813926984235314233e-01
1.582890484632011319e-01
1.993466401399552335e-01
1.567164837351340823e-01
1.985581828672020877e-01
2.121890544487524677e-01
1.957130057475899021e-01
2.342412594219286659e-01
1.889745390844186357e-01
1.962485287985260007e-01
2.176292969059905047e-01
2.289777228702558620e-01
1.840439214895088771e-01
2.394916193938293192e-01
1.777281865631685498e-01
2.147322955001418343e-01
3.152651292791925353e-01
2.640453901193873243e-01
2.672431210811934688e-01
2.997700685073937388e-01
2.670020260607925966e-01
2.734608025643733287e-01
2.667971106301942896e-01
3.327339875043092698e-01
3.040232337548778863e-01
2.785809410267611752e-01
2.980320595133917894e-01
3.313777450762838139e-01
3.177366484910871258e-01
2.957942267898870936e-01
3.125829153349915512e-01
3.198994125087912810e-01
2.900277626661921238e-01
2.887348154667719879e-01
2.801642591370450130e-01
3.116946347237060655e-01
3.254456286587317226e-01
2.689316381487999452e-01
3.191165517197671053e-01
3.201359753243765427e-01
3.418452020155159921e-01
2.684141592970293311e-01
3.162293042143936583e-01
2.894358856359658394e-01
2.458599964530196191e-01
2.790945418916783716e-01
2.879642432376511296e-01
3.131991438013028151e-01
3.175093490823843734e-01
2.959634463472028409e-01
2.589509660289652238e-01
2.404991239524393865e-01
2.597925132414348748e-01
2.671848084510782817e-01
2.358212262087110711e-01
2.250420283245532227e-01
2.400845776369089357e-01
2.634890847585878437e-01
2.941477733455942212e-01
2.258392643062124283e-01
1.860233338662347635e-01
1.783601400543050330e-01
2.366510387325875819e-01
2.235723534038055182e-01
1.554109691981511998e-01
1.838347229946855066e-01
1.773200625656350671e-01
1.816912885179715609e-01
1.845609870669905617e-01
1.916131257275938138e-01
1.688028604879965866e-01
1.211454108008502006e-01
1.534466169699714722e-01
1.571740566432383301e-01
2.036405929971340789e-01
1.342432759185634705e-01
1.476821263022993769e-01
1.471586455270295912e-01
1.276705683028647731e-01
2.092455010608616217e-01
6.892924312769801998e-02
1.149720825757589715e-01
1.220001747053597180e-01
1.153342318433640823e-01
8.131891062634033496e-02
6.157756285038047672e-02
1.274677323623694125e-01
1.104535282037015786e-01
7.144117730684219902e-02
9.582814703619939312e-02
9.901224105537559383e-02
1.159393519317427346e-01
7.654832892471009897e-02
4.739822815413070184e-02
8.842253948275355380e-02
4.073579515938321322e-02
8.712477463655290966e-02
8.326590093327772280e-02
7.571079637248312455e-02
8.396092494499887704e-02
7.995640494387677710e-02
3.088327201947702744e-02
9.898557653992925975e-02
7.796674338429357420e-02
8.345245343152510320e-02
8.015933438564754043e-02
3.842722447768093935e-02
6.162918664738500918e-02
1.023031669204787497e-01
6.710644981732158398e-02
6.651242425723409568e-02
5.180213491594650582e-02
6.395044123962731475e-02
6.539674357428575113e-02
5.677116858231637253e-02
2.234965077324590349e-02
2.955730135129597258e-02
7.810548495792020429e-02
4.428409218218162802e-02
-5.477136753082284537e-03
6.363364862197778971e-02
3.995088139557782803e-02
5.295087890763108818e-02
5.578029153671701379e-02
1.009880791902386665e-01
9.745379470161869007e-02
5.605031494598592540e-02
2.281373961093156183e-02
1.043313155189826702e-01
2.790017217963958185e-02
8.139097426680097502e-02
7.243575439915084235e-02
1.537504157682227091e-01
7.105247382912155407e-02
1.082941183211407060e-01
4.680648054141450798e-02
8.798193143361869584e-02
6.191136191052902527e-02
1.028493570814211500e-01
7.752043813797332428e-02
1.013176513955285907e-01
1.040452623843071966e-01
9.502945613780724998e-02
1.319336018871704042e-01
9.307397131471506491e-02
9.691266597125686166e-02
1.316799793828588583e-01
1.339246077372373556e-01
1.358602704422186558e-01
1.438282516936074118e-01
1.032091484997894326e-01
1.249315029060187460e-01
1.122121916311314416e-01
1.131885460018618311e-01
2.233711297712864807e-01
1.490176339634904923e-01
1.135300443935782777e-01
1.401188420627904607e-01
1.344444028508794409e-01
1.504382737658102320e-01
1.294047155858913389e-01
2.050772356789871964e-01
2.088683410172627042e-01
2.179057054085323519e-01
2.026589984401461764e-01
2.278867023117908397e-01
2.194059175014919094e-01
1.511771918934753101e-01
1.790247996381938989e-01
1.944487063224075440e-01
2.094440124121643987e-01
2.191321338998749868e-01
1.354569661089620181e-01
1.912469611464391872e-01
1.972527853615227977e-01
1.951211874197418539e-01
2.336070465202675916e-01
1.436382810623475781e-01
2.154572570650483687e-01
1.899150583758510702e-01
2.467558886931054407e-01
1.527883851375647084e-01
2.718418096027341857e-01
2.197699481334650373e-01
2.620344705684455322e-01
2.339659793152830958e-01
2.697768339108588820e-01
2.614448363744603654e-01
2.337595065506084813e-01
3.192371793437603356e-01
3.387824019544259935e-01
3.195360632622414876e-01
4.154468992824191242e-01
4.201934609250455033e-01
4.568206704367462345e-01
4.994202662961271799e-01
5.309153915851317906e-01
6.478111718367125516e-01
6.751581318015779098e-01
6.762895143977314394e-01
7.191216776031911229e-01
7.611750924790980921e-01
8.587688428883542002e-01
9.274492530698427162e-01
9.884338906897451871e-01
1.020781158817770429e+00
1.018379278626563522e+00
1.122446515689175639e+00
1.078792379549961211e+00
1.071467433917879575e+00
1.120172918522875483e+00
1.106059739820225873e+00
1.085855529114182705e+00
1.090146865090280137e+00
1.084213536630189711e+00
9.664007801610425830e-01
9.626709873763007463e-01
8.417608767188515806e-01
8.090175171943566612e-01
7.856742263965066364e-01
7.115562183856631862e-01
5.683554429829086319e-01
6.041576418376641833e-01
5.401610102717940842e-01
4.498580425480001033e-01
4.218218000260878231e-01
4.060337055002289364e-01
3.430469355772243212e-01
3.075748460510757676e-01
3.045638246831356977e-01
2.610567686656684594e-01
2.164181955990304440e-01
2.546497665279273126e-01
2.046291050896064390e-01
1.796152328058443493e-01
2.335790787368780819e-01
2.134048114940320928e-01
1.841798841293705302e-01
1.904589428136197748e-01
1.707325239176989695e-01
2.144707084605673719e-01
2.020631493174392945e-01
1.405992301028316516e-01
2.030379878171725549e-01
2.022937677026753478e-01
2.260443230503822176e-01
2.011061239981929427e-01
2.186632614357304216e-01
1.907188231705931325e-01
2.377360996684982075e-01
2.285396039654691847e-01
2.910707106635505026e-01
2.302193838297262318e-01
2.886376752280173097e-01
2.032063498549030733e-01
2.559457369248645531e-01
2.560719108393191279e-01
2.284082990485305775e-01
2.811711217231683824e-01
3.044026482158045943e-01
2.853406442769095830e-01
2.248266800999587645e-01
2.973223340576920393e-01
3.197960154386506604e-01
2.891122347939903414e-01
3.231655828238274575e-01
2.482513982078105308e-01
2.734356170690487864e-01
2.809125945267850755e-01
2.659120229713700101e-01
2.805323501002147113e-01
2.404242879838697500e-01
2.940496436317645013e-01
2.716052816058977526e-01
2.995598694928842676e-01
2.804449882995699306e-01
3.315836803256952958e-01
2.757384682084776384e-01
3.126538475073821211e-01
3.162349953241557765e-01
2.893980418042580438e-01
2.545418650427183072e-01
2.470443291667406560e-01
2.811558593886811508e-01
2.542691338220960939e-01
2.858262573011352004e-01
2.914891581883646277e-01
2.110777770753693439e-01
2.371371316263520268e-01
2.463366331932915765e-01
2.406478467735606863e-01
2.188673273748370229e-01
2.127048696071921485e-01
1.819386572648127309e-01
1.967606035951953714e-01
2.383489151932336181e-01
2.169803173796922280e-01
2.307436261500343255e-01
2.393812055948416895e-01
2.159812778170918934e-01
1.850710261439298121e-01
1.889392540352577976e-01
2.446595046026310005e-01
1.314539294312492279e-01
1.833358100253492107e-01
2.033013793823857940e-01
1.696787247214295580e-01
1.379743809900933482e-01
1.449065308877279246e-01
1.459052175744077473e-01
1.200857694858195462e-01
1.438093508694753830e-01
1.295922083346794096e-01
1.629131706977081095e-01
1.571201235386749107e-01
1.105221386533899869e-01
1.037085061387783003e-01
1.220258830835269509e-01
1.401747827397037405e-01
1.162466376834456194e-01
8.703345012186272656e-02
6.625137377284082141e-02
1.049827174812044822e-01
8.236313971538550271e-02
7.710324155270098512e-02
7.549869369732582769e-02
8.420214419534133299e-02
9.404529895429755704e-02
7.693657099260745036e-02
1.302908200988679155e-01
9.782955132276957566e-02
6.718009585610795753e-02
4.852115093279781022e-02
4.877971267822547863e-02
1.672162966311952978e-02
-8.756530568986922031e-03
9.821965270306162732e-02
5.441258141715642205e-02
1.567953114306274917e-02
5.540468529569374939e-02
8.015261863962234307e-03
7.190168680462609430e-02
5.252137953361044054e-02
4.448329578543138568e-02
9.398921979743611599e-02
2.430386117512003952e-02
-2.149951280757112643e-03
2.869845544517804492e-02
3.714331756794003736e-02
2.801731444851368949e-02
1.678469232427619653e-02
6.304872836504241129e-02
5.919022027256851115e-02
5.619132494168203873e-02
4.413109572409468218e-02
7.481393281674433848e-02
1.663358452337431598e-03
5.352062633205414977e-02
4.023462289364575228e-02
3.245258242431467433e-02
3.563925491123711570e-02
-1.664618246474341631e-02
2.540226379978811205e-02
1.066210078301524540e-02
1.537177959872779165e-02
-3.907928963286268209e-03
-2.021880463854631646e-02
2.588490976253419312e-02
6.763790405108587034e-02
3.115407056654575374e-02
6.270359765540618746e-02
8.756483869788007912e-03
4.609954764270682293e-02
4.696320102143023562e-02
5.935278708639862150e-02
4.475211360901375918e-02
4.223035068727422348e-02
-1.123123262588216105e-02
6.189526588903663390e-02
3.093977154815888420e-02
1.339998933746417431e-01
9.063713302129158822e-02
1.365488364512944530e-01
6.070396367393196546e-02
8.191116811933085717e-02
8.959138502915642288e-02
5.276828141830405827e-02
9.902193431389250122e-02
8.203199002555756902e-02
1.196937659831075612e-01
1.285607418246321465e-01
5.749202932279871142e-02
1.477191636947969011e-01
1.841768962813336297e-01
1.020612517450708301e-01
1.582514651022260688e-01
1.077941540581942859e-01
2.124519803867821188e-01
1.408926575478156584e-01
6.872362853824290352e-02
1.889695734124153814e-01
1.656465527640311741e-01
1.856083421195444949e-01
1.027253682823955766e-01
1.775480515976124440e-01
1.610279521427318561e-01
1.018112708343781453e-01
1.387118052464949014e-01
1.067702112945640158e-01
1.617583037622949416e-01
1.567033609451020937e-01
1.621175205424073007e-01
1.690243278747393940e-01
1.634914290022886352e-01
1.644108746003104526e-01
1.439008411669977783e-01
1.206851764829087181e-01
2.160806486039908714e-01
1.203404339129151568e-01
1.754163063611261231e-01
1.265348113351531245e-01
1.907832647452247232e-01
1.470593064188900068e-01
1.937659202779137835e-01
2.296377964805731420e-01
1.423556537220672935e-01
1.923793778219065886e-01
2.874971109984382767e-01
2.529240004813412823e-01
3.312728114335104501e-01
3.034438593571907594e-01
3.527234913707618102e-01
3.731040395124128328e-01
4.450047128954346398e-01
5.359919736445627469e-01
5.626384958730074048e-01
6.588460206558207632e-01
6.963472497760362367e-01
7.738414357364815643e-01
7.693499014648902401e-01
8.507939024668297323e-01
9.110150734533527528e-01
9.551019838511350946e-01
9.660578030342801270e-01
1.029597669931164194e+00
1.008311551982035370e+00
1.062880949097132932e+00
1.104778107477387250e+00
1.077491145948850981e+00
1.020446110867409661e+00
1.054781257410002171e+00
9.932575127381382263e-01
9.579134699985982770e-01
9.318401633493481606e-01
9.096001059964704538e-01
8.107948088486289784e-01
7.266464228836404526e-01
6.745536370171858476e-01
6.065396837564813737e-01
6.039095396633986645e-01
5.216846910581928176e-01
5.033837412410367973e-01
3.992383301574294330e-01
4.039774505034796070e-01
2.701221480207698367e-01
2.763797172099608512e-01
2.629718141597258696e-01
2.292134771176447539e-01
2.403462877225329974e-01
1.921083148190897427e-01
2.016625106408736490e-01
1.818267015382865337e-01
1.088900023147139351e-01
1.300161279798498493e-01
1.824809655782211881e-01
1.467098313194321046e-01
1.543987070696804798e-01
1.602651434732491886e-01
1.483033151407922023e-01
1.334844306307673423e-01
1.543209974549178964e-01
1.806736557615027106e-01
1.639885531812698416e-01
1.680367049598990858e-01
1.498402592044747461e-01
1.367157860761664678e-01
1.896095301834924418e-01
1.643802187014111460e-01
1.276521078188428970e-01
1.708976423542242773e-01
1.795742459777295852e-01
2.363110889662603242e-01
1.891988813077487286e-01
2.135275529413454831e-01
2.770634668051694116e-01
1.767632702015593249e-01
1.901460678188779119e-01
2.397156905816675565e-01
2.121403725502725157e-01
1.924459545546929884e-01
2.188978585747881622e-01
1.789716996793905002e-01
2.298967981125359383e-01
1.806232999689309504e-01
2.343394857100364326e-01
2.655862559851883131e-01
1.751036802486204691e-01
2.287629658108236430e-01
1.933777653579026312e-01
2.047195637777267652e-01
2.601177698285970230e-01
2.705818555917696711e-01
2.741168108080023202e-01
1.840157352638861488e-01
2.736148421394805075e-01
2.452071643496202824e-01
1.963761968691430659e-01
2.333146475889239235e-01
2.370404278979969526e-01
2.374986974167747067e-01
2.787745437534073778e-01
2.201042651579361298e-01
1.737317814957676509e-01
2.395725449503886550e-01
1.977067863606323805e-01
2.136190195801101477e-01
2.504048830695226879e-01
1.791138017389528325e-01
1.775722899140543820e-01
1.645251067022067692e-01
2.074455163106087574e-01
1.470628061868433367e-01
1.215460665253597777e-01
1.528624641148267904e-01
1.440197609466373763e-01
1.532740029039053320e-01
1.633173319138206958e-01
1.249747117529860507e-01
1.350956037514453312e-01
1.393676847009175379e-01
1.278223917375975738e-01
1.311098978972390361e-01
1.197043315090981636e-01
1.597061897562040422e-01
1.218238368001278715e-01
5.503281865355078017e-02
4.221554214284990725e-02
2.943221442313788058e-02
7.126439609891704885e-02
9.195282704122301198e-02
4.846339622077364129e-02
6.895538674146478586e-02
2.367457366308210742e-02
7.078628780884270444e-03
7.404065183607413947e-02
4.278761760113258816e-02
9.773860874254976239e-04
2.564767767786066410e-03
6.274704193608443559e-02
5.588639462859853330e-02
1.686202729561242508e-03
-1.164516175444709270e-02
-1.120153128394009434e-03
4.581283321851768037e-02
4.408487588739031654e-02
-4.798030079640465406e-02
7.750617875574399018e-03
-4.674526527438338519e-02
-1.713766126685601493e-03
-2.334531973443560240e-02
2.343848187324460569e-03
6.418152959436075611e-03
-1.232931505292580304e-02
5.378931240236396738e-03
-1.429762829951673059e-02
-6.963342633426930495e-02
-3.678404773413439244e-02
-4.093846685952387543e-02
-3.799072269931477730e-02
2.427353903461348938e-02
-2.919251439824331260e-02
-4.324715700792762518e-02
-4.434378878719336115e-02
-1.078446359717862013e-02
1.437129798594065366e-02
-4.360393141360192903e-02
-2.454456419271770773e-02
-4.380108582870385903e-02
-6.021259792224094298e-02
-9.770820222473264316e-02
-5.223996766235419059e-02
-5.226335201358771332e-02
1.288398664882401540e-02
1.307070330255899471e-05
-3.533289027107462676e-02
-1.228539429200336403e-02
-2.315634959963730477e-02
-6.384435210740836697e-02
-6.921833648483147194e-02
3.859616148470225439e-02
-1.141703049275925169e-02
1.005518670096590406e-02
5.661765377612995587e-03
2.171106494665085013e-02
-1.639321048004627884e-02
-4.042302845580385967e-02
-3.911524871761773436e-03
1.037898838968338150e-02
-2.707891939946069707e-02
-6.893288431796616711e-03
-5.674036424288710773e-02
-3.920859192118329728e-02
-2.731452548959404508e-02
-6.032320459278902453e-02
4.100036792578307110e-02
8.859184691330013184e-03
3.689713586411397239e-02
-6.430090241816906194e-03
-1.485773337819270776e-02
-2.253162337296717860e-02
2.459598749700744880e-02
-2.233785192854318563e-02
1.847679922056267438e-02
4.752831417675365544e-02
7.768541383989897853e-02
2.609491409835492520e-02
6.714442192550205968e-02
4.326195990476004727e-02
6.233302373190188761e-02
6.241482074914760786e-02
2.204772423921353558e-02
1.617471701655747579e-02
7.912150241523116523e-02
5.822656222937195453e-02
8.119460781225158741e-02
1.039916543131547966e-01
1.269270030610422928e-01
4.682054809363091902e-02
1.103541001704522739e-01
7.390093203578229630e-02
7.830092493980464474e-02
1.310756567048767529e-01
1.035744751361869498e-01
8.571889408378574604e-02
1.280807244995917360e-01
8.478516876403645319e-02
1.584577848441842962e-01
1.133411304486836579e-01
1.085636139379456688e-01
1.338555920088750073e-01
1.299492548569916028e-01
1.325529886592692330e-01
9.825953162714554101e-02
7.267037467106754467e-02
9.783573653055267771e-02
1.363347609620385592e-01
1.049833001066157873e-01
1.335935730659900122e-01
1.193437485488918759e-01
1.059012291436862707e-01
1.495058383057558393e-01
1.413169825200067953e-01
1.509431690205177701e-01
1.266721844711202472e-01
1.582371907716405568e-01
1.873806456874489990e-01
2.090314295964479652e-01
2.120226590786171705e-01
2.788554935442653648e-01
3.012902426768800934e-01
3.231645965436438783e-01
4.177007406007095525e-01
4.449363016132195092e-01
4.267374239615213116e-01
4.832956902748656303e-01
5.909570695542315510e-01
6.756092818783465681e-01
7.338594414567929380e-01
7.431693586103442772e-01
8.614185912864122940e-01
8.845860490909835949e-01
9.160514889903199620e-01
9.759943392101384507e-01
9.978823574953510356e-01
1.049053504499282141e+00
1.030428383518269042e+00
1.057890999651367236e+00
1.032653171368765666e+00
1.009417821407606608e+00
9.466794748299879325e-01
9.538189374801189224e-01
8.538354774476799580e-01
8.463772309837740426e-01
8.586380779917743844e-01
7.023698234944800722e-01
7.253720753782573194e-01
6.666293970483520015e-01
5.609557287027211459e-01
5.080227384682495240e-01
4.226463516478988769e-01
4.258562953518565397e-01
3.352392860949941489e-01
3.511277402471972287e-01
3.324093250514540410e-01
2.296168665151369914e-01
1.666819208664578611e-01
1.698376271926746173e-01
1.682476160127846232e-01
1.004374660464153191e-01
9.028901591500151924e-02
7.719616587246788675e-02
1.160219881737406811e-01
5.478661916879834504e-02
1.160406112049548188e-01
1.095715240988501260e-01
5.337139697115498432e-02
7.735434235260860159e-02
9.619376220202968675e-02
9.618739876530964239e-02
1.758479306140942056e-01
1.593962889611388323e-01
9.089449747324140905e-02
1.084298181400497052e-01
1.051683358652859973e-01
1.260926176966534196e-01
1.054732026503065467e-01
1.097819299906054868e-01
1.451959340595559977e-01
1.566213377670752083e-01
1.813415191855163866e-01
1.182550235110261944e-01
1.189672123159316031e-01
1.329824850975496464e-01
1.503721898204828655e-01
1.992485805245166608e-01
1.807524024499508331e-01
2.067391670718465302e-01
2.307995548542874364e-01
1.456181238238052067e-01
1.843190421979378768e-01
2.177423021778933654e-01
1.583761195742228733e-01
2.462615828189844147e-01
2.055184252318150162e-01
2.588413425074811980e-01
1.921385208301936154e-01
2.038885657108344407e-01
2.107489383907324432e-01
2.414404561001805005e-01
1.756906136105542970e-01
1.989899301021318401e-01
1.310729723907508304e-01
2.058717533080626216e-01
1.283147234127591796e-01
1.942045988819577629e-01
2.193945241127261692e-01
1.893003322099695851e-01
1.822139567623183853e-01
1.964051083071561288e-01
1.534151353955930941e-01
1.376446648296713038e-01
1.795336198027671082e-01
1.863309285570706741e-01
1.762382605637016209e-01
1.562528499256649051e-01
1.574499718306716922e-01
1.713449167359185066e-01
1.793123615445775809e-01
1.791897089469307314e-01
1.825347118703782301e-01
1.095476354182827461e-01
1.212056243549016477e-01
1.213703098521283774e-01
1.098841729430538317e-01
1.269312096248186028e-01
4.998781255681829239e-02
7.061081125245130541e-02
7.000048021069421589e-02
1.300637282745604195e-01
7.289068813400789715e-02
7.657370088938769692e-02
9.082403017158091618e-02
5.999183816918263190e-02
1.026123214327904626e-01
7.172643994985211657e-03
1.168904673686865375e-01
7.156079328699288533e-02
2.161132741036386057e-02
5.798988425689177023e-02
5.884011040400019543e-02
5.754066297605459068e-02
2.088265988889707880e-02
3.100666445212577754e-02
4.078428217779854481e-02
-1.162688219319547855e-02
1.677926655567914954e-02
2.768216846029927097e-02
7.367295990633326852e-02
2.123836424109986493e-02
1.212091613055905209e-02
3.079334274428248419e-02
3.761271568759892020e-02
-1.320743669111901913e-02
-6.502003351677373977e-04
7.384745844756447630e-02
-3.251776642652069726e-02
