1.012828660829197869e+00
1.092575419972647177e+00
1.030236031568361632e+00
1.020997384732570179e+00
9.679366663036219620e-01
1.021279347903061518e+00
9.526731716501636305e-01
8.498531586265667404e-01
8.133169358826336515e-01
7.280879510523531328e-01
6.558241901646887362e-01
5.917300241080699630e-01
5.735410299898514586e-01
4.728358734897995519e-01
4.234354348217314601e-01
3.969853902399860801e-01
3.271477773922136234e-01
2.546127454874466123e-01
3.242270406355013956e-01
1.658336256243018447e-01
1.621976865567822390e-01
1.224459689113953920e-01
1.165026087588288684e-01
1.154119151319579761e-01
1.512231523181160608e-01
5.309077304272281222e-02
1.164981697724523368e-01
8.202808409048911731e-02
1.781596608981853014e-01
1.226641449359228420e-01
1.290516314045465629e-01
7.518005470611258123e-02
8.663602659714503273e-02
8.961476775919115234e-02
9.345933053514865474e-02
1.279086318809990463e-01
1.097653987119158181e-01
1.307880916099452562e-01
1.354626806266343853e-01
1.512229547924089090e-01
1.269153824052764723e-01
1.794799973634051138e-01
1.500103403493419085e-01
1.074923681262858199e-01
1.977270182040718471e-01
2.166059857008192646e-01
1.496720213203007466e-01
1.758569165500686593e-01
1.988577121267746661e-01
1.913900475279604607e-01
1.614747438648563849e-01
2.439508524286422841e-01
1.855990116820677716e-01
2.320425692506454252e-01
2.094966566554593013e-01
1.813328918896693065e-01
2.183216236193786797e-01
2.423340107025883927e-01
2.615004182583648973e-01
2.528466228894806767e-01
1.886857847402193811e-01
2.434487905912139372e-01
1.755507858914059083e-01
2.302774123563678665e-01
2.362082140777916339e-01
2.206124105578465000e-01
2.322340685639582292e-01
1.406026959654984587e-01
2.025538049922794293e-01
1.967669682896661387e-01
2.230933628703496985e-01
1.830917241786252925e-01
2.250198179528359876e-01
2.285657687245623293e-01
2.161558576986888913e-01
2.071374629649386234e-01
2.120393712283603627e-01
2.234594448274118683e-01
1.747410531172947368e-01
1.695690440587798720e-01
1.540183313608146642e-01
1.672947677379004183e-01
1.455248397218498191e-01
1.881249192653069446e-01
2.153766711700085545e-01
1.625770788652031174e-01
1.407041656495409687e-01
1.513763569676857268e-01
1.232123771506223736e-01
1.422768726712971832e-01
9.513451290663772764e-02
1.684427092777521229e-01
1.043500763996649816e-01
1.480057099798570697e-01
9.756607248112536546e-02
1.440246006784753341e-01
9.346851146450366188e-02
8.343131613314595796e-02
9.334949762028553477e-02
8.377211704867999764e-02
7.014673344511514197e-02
8.973191426989743369e-02
4.415151062439606755e-02
5.883165460231506994e-02
1.063069198748433641e-01
7.418402264101653376e-02
3.459609677181991333e-02
5.650585611298242911e-02
5.080739795302624540e-02
6.610943970313898355e-02
3.582209030744542416e-02
4.914930294886635936e-02
2.682155667142090832e-02
1.439108322565590264e-02
4.769138520721786373e-02
4.504814911811685224e-02
-1.512548604198336172e-03
5.126947863295540364e-02
1.430569302888474309e-02
-5.706441624785212746e-02
1.642071651264578880e-02
-3.625791817601142775e-03
6.142105410894195539e-03
4.221434709238183758e-02
2.528945854821323946e-02
-4.464772818551948630e-02
1.562582879927748580e-02
-1.885499213305794064e-02
2.809852669933286806e-02
5.821502969232242308e-02
-1.428724805859577646e-02
-2.890274107594955483e-03
2.393914312701624428e-02
2.504209578014342935e-02
1.150913414639227403e-02
-5.540439755843641623e-02
-5.809794562854377759e-02
1.304222818507713710e-03
-5.751204859862107943e-02
-8.702631319646904340e-02
4.082796472262742449e-03
-1.025741643609949377e-01
-3.701022780334275314e-02
-4.214337769659570743e-02
-7.152406899948667018e-02
-8.314994950580181787e-02
-2.451033279519286567e-02
-2.150557058407227828e-02
-2.024022251965475541e-02
1.365924936865672845e-03
4.682579141316613874e-03
-5.648930915090667748e-02
-1.769679892180022959e-02
2.158421432393269751e-02
2.213994940069179823e-02
-8.281700436137896804e-02
-1.937869490969777037e-02
-3.289813266270464470e-02
1.426347063305467844e-02
-2.153428301305537751e-02
-1.815690402568928552e-02
-2.304228522775232657e-02
-1.448090776470203379e-02
4.752067194284170792e-02
-7.103134150878850916e-02
1.069517494751351730e-02
-2.841226014841241598e-02
-4.407944431537916957e-03
-2.379166102640414143e-02
-1.712620182571327615e-02
4.113735684332504861e-02
6.728141567739726048e-02
7.447716734465422567e-03
8.792239642625477442e-03
2.331492652463832901e-02
2.708972590386819063e-02
2.458170472766641954e-02
9.969780589132139909e-03
1.398386293046584641e-02
1.512363801615443717e-02
1.990667043300230893e-02
1.994867125871454053e-02
2.934216795445900028e-02
4.166101983554336419e-02
1.276698018437412985e-01
4.822930955525597113e-02
1.103440882317476973e-01
4.575991034542913755e-02
9.714967320227481384e-02
7.900433321488149752e-02
9.991953913532153342e-02
8.757971240257471368e-02
8.366961229992901650e-02
5.639564267622090843e-02
1.047288912802914751e-01
1.092276679159555342e-01
9.052001295859087027e-02
7.322952782734011568e-02
1.366817319876340031e-01
1.159131131708311530e-01
1.145816614440598735e-01
1.930627172675039582e-01
8.026398886752482420e-02
1.759568864042143910e-01
1.386504676843396122e-01
1.126174122334298311e-01
9.919722833238008020e-02
1.198328016218384029e-01
1.038644515322856149e-01
1.224963280950408240e-01
1.194945729279700275e-01
1.290068614028816174e-01
1.464691938856619580e-01
6.367264598152756749e-02
1.615964714442101879e-01
1.562469065333728091e-01
1.229725042134494767e-01
1.989078000217980591e-01
1.501905755381647556e-01
1.140027057648278774e-01
1.556251241630495774e-01
1.658949880917304220e-01
2.065494951911555355e-01
1.831576145092123353e-01
2.104245868284316534e-01
2.592703327485745279e-01
2.504056216590844763e-01
3.082372506283388436e-01
3.159570010831174725e-01
3.562598387978256897e-01
3.792999075304775980e-01
4.341037340717846527e-01
5.353913738727315019e-01
5.921163082834889346e-01
6.903351088423048676e-01
7.563443930943125615e-01
8.057110717425085555e-01
8.572157663117777604e-01
8.800086118057705020e-01
9.951244711602746928e-01
1.020933209347695936e+00
1.080876411223370193e+00
1.069105306161141522e+00
1.114998307566126279e+00
1.112313635441612547e+00
1.124755972457903042e+00
1.058583508812598328e+00
1.053941778024205300e+00
1.095110131080999860e+00
1.009498384943992910e+00
1.010038132807798750e+00
9.412671962252672220e-01
8.972807497520749465e-01
7.999733001462988602e-01
7.565523042339754589e-01
7.366723244820935212e-01
6.804094535492393181e-01
6.198416169055021019e-01
5.812584781931801059e-01
4.836639369253657450e-01
4.022161752691479908e-01
3.518920901390444889e-01
3.853172746953053007e-01
2.822832214416524654e-01
2.678371219847099916e-01
2.048882611934010889e-01
2.079731154685661443e-01
1.665990251110539555e-01
2.217098794611078172e-01
1.510085749048454551e-01
1.687666139846447921e-01
1.325883279155394834e-01
1.890825146318076411e-01
1.508851467651729783e-01
2.177915478684576134e-01
1.938339783168762098e-01
1.815108387023914305e-01
1.323283555362309571e-01
1.852028044655900929e-01
1.973739763804523983e-01
9.010693307653991346e-02
1.674588331706882982e-01
1.860085595809327919e-01
1.954470060705197909e-01
2.128842159600162487e-01
1.885973296007761313e-01
1.616273181668234638e-01
1.826056638085186701e-01
1.695702712972504966e-01
1.731838155536696011e-01
2.241583552250647760e-01
2.587216322102510180e-01
1.896048491084202925e-01
2.178471427785527714e-01
2.116101637982833739e-01
2.495075949909315860e-01
2.356405354795169382e-01
2.536557838386022112e-01
2.237983907441378206e-01
2.649954265865064884e-01
2.261358048896458528e-01
2.522987747099147970e-01
2.697824114594871148e-01
2.828584803909440781e-01
3.091129093862897137e-01
2.861415142109212106e-01
2.611758320736608519e-01
2.725789757941139424e-01
2.923455220510143282e-01
2.208800179834995436e-01
2.710268991472649658e-01
2.978306241245102792e-01
2.581873654063418511e-01
2.690032579447729222e-01
2.616518218666376572e-01
2.673109968377575529e-01
2.632915412664059707e-01
2.244629401896704735e-01
2.879374551301445706e-01
2.454045729920317498e-01
2.079835807448790763e-01
2.381162551970391061e-01
2.132653811908729047e-01
2.968246948161066823e-01
2.133625267747186194e-01
2.231133357696587771e-01
2.483455718911406207e-01
1.664918430842434460e-01
2.136809514983011860e-01
1.895095089645265352e-01
2.313969095889105154e-01
2.169472907315863064e-01
1.723358074113167659e-01
1.845543905751949598e-01
2.197546694261598155e-01
2.211006020295026853e-01
1.358990176105673853e-01
1.918972748342490098e-01
1.944503996092461773e-01
1.267872418682575442e-01
1.854461929502808082e-01
1.607540400077515363e-01
1.603010372733659761e-01
1.581010829610390855e-01
1.535596517869973199e-01
1.302489013553746744e-01
2.090377895928844654e-01
9.671218999298698826e-02
1.434589694154829176e-01
8.091911697389697622e-02
9.386712201117532184e-02
1.276722033500539144e-01
1.299532332304448867e-01
1.135973789338967088e-01
6.448983734708996218e-02
9.181363695541172598e-02
1.242756180270288696e-01
9.100620400153770773e-02
1.121422792692702425e-01
8.663274660272463068e-02
7.097347507797054089e-02
7.950606265868753741e-02
1.676117633920777214e-02
-7.061790475532160605e-03
7.459325464635939429e-02
5.406811105366746140e-02
6.857142112870580342e-02
6.440231056755701955e-02
4.211711391599382015e-02
8.824279054981484793e-02
5.815860564468276761e-02
3.898037624496555192e-02
2.198408799269636546e-02
-1.852666672809109849e-04
4.010048545030510392e-02
1.008993882111899609e-01
5.249338322325229622e-02
3.118114706148000792e-02
8.983439177955306054e-03
4.117769436536986016e-02
5.976469120334032548e-02
4.040915507030769932e-02
4.489997064556928291e-03
5.906442921482232128e-03
1.826452739780349416e-02
3.732239159233633613e-02
2.163448200836744911e-02
4.958843796409649618e-02
7.900165627998570472e-02
2.000100074121664850e-02
6.155347673065925118e-02
4.343740953052734749e-02
-5.774018572602103438e-03
4.713525149908249362e-02
4.049564622207024733e-02
6.337628580617316043e-03
2.400611017341363826e-02
2.049271371057857782e-02
1.051515078055313690e-02
6.354431385516069730e-02
4.258738304251372120e-02
6.483555391590832551e-02
8.470951465226583821e-03
-1.438868781672680841e-03
8.969675151013950520e-02
1.090016770308015193e-01
9.002955562286162061e-03
2.890619715527841666e-02
8.853198113499075039e-02
3.059116544446308095e-02
4.267348475131942098e-02
3.378253659853738822e-02
-8.735852084883893864e-05
8.466053140859400306e-02
4.495580703428037062e-02
5.850848385609036528e-02
9.025985274874102904e-02
4.437540231508545902e-02
3.221583336214568771e-02
6.258454189587009386e-02
7.431971129810521770e-02
9.134371173669933452e-02
8.825049761273062732e-02
5.790907388055352434e-02
5.062346102380904656e-03
1.005385845796934324e-01
9.744854367803637563e-02
1.288166696097465813e-01
6.841402529995760373e-02
1.093339977008332686e-01
5.444663370279374109e-02
1.496668736400532662e-01
1.196771854392425505e-01
1.363403508588615365e-01
1.688649074884107093e-01
1.439440083336439025e-01
1.084937470529595827e-01
1.390571846588294358e-01
1.535382786074669659e-01
1.377697567725300887e-01
1.766664466990149340e-01
2.117008477471942485e-01
1.629929168721271082e-01
1.427906349071542402e-01
1.914741887931957764e-01
1.285165189293888122e-01
1.887769761368129628e-01
1.773939096927368564e-01
1.599357588898118743e-01
2.081503598161677238e-01
1.843833963929893405e-01
1.500296880023909152e-01
1.920203867735284509e-01
2.550693490933851337e-01
1.962504468163313587e-01
1.850369177393920983e-01
1.913343065779483099e-01
1.835178470884483160e-01
1.987360246055683843e-01
2.196400178743411202e-01
2.174705051198413674e-01
1.495710981403341466e-01
1.428442898449228393e-01
2.077681778833970760e-01
1.491929109581535684e-01
2.013766398331353069e-01
2.138482614644838242e-01
2.668016254390765396e-01
2.548680171288296714e-01
2.133110712171462364e-01
2.662312818785290691e-01
3.059004826517854880e-01
3.089563798956765361e-01
3.284927556243787961e-01
4.337916573662624620e-01
4.243880283510200191e-01
4.989032974514913121e-01
5.543135085384792715e-01
6.039154820102838883e-01
7.227262338849688161e-01
7.207938751266820265e-01
8.010676222300285865e-01
8.264414530544417214e-01
8.832909449131127744e-01
9.960771786807309791e-01
1.048696837071938059e+00
1.035015894987113994e+00
1.136724342095299267e+00
1.143017161806525461e+00
1.137990471771979095e+00
1.200036658515129195e+00
1.177293638752997529e+00
1.129500940504772455e+00
1.125478159410352230e+00
1.101950227561950157e+00
1.134299613417071084e+00
1.056128246307021845e+00
9.680380045389133103e-01
9.010624731530942899e-01
8.312578878704796059e-01
7.461382306640271800e-01
7.447419074620044155e-01
5.925711975319979397e-01
5.770374124108528235e-01
4.857926218086436876e-01
4.852489627284787277e-01
4.723329952020047795e-01
3.715679573009275094e-01
3.747840223423386519e-01
3.490114728406480404e-01
3.961187367923915126e-01
3.111627080096351916e-01
2.623384799304758763e-01
2.644103426015971814e-01
2.244649539451151476e-01
1.670076076304527202e-01
1.897176510829515217e-01
2.018982820628461017e-01
2.324754623953977639e-01
1.905526971671656911e-01
1.568717714812454811e-01
2.313091298902227588e-01
1.451370509945490717e-01
2.137234284983770827e-01
2.768902054104641630e-01
2.008456520051288829e-01
2.459234505534822757e-01
2.403899019985768493e-01
2.101773054039784983e-01
2.520636836589689733e-01
2.595131656024922684e-01
2.770964569668330491e-01
2.520312937079101090e-01
2.789662468056467448e-01
2.525015745763699027e-01
2.361733318436459450e-01
2.757676363225215477e-01
2.994098122472832468e-01
2.780558675897835119e-01
2.313310782782247166e-01
2.792160464833605693e-01
2.985427401120201440e-01
2.815883834038916400e-01
3.111137660889612411e-01
3.080873764785515001e-01
3.279233048706720610e-01
2.666313655500061608e-01
2.768034542556345734e-01
3.114902753613862929e-01
3.277075389167423691e-01
3.371851756324126814e-01
2.219273890200687271e-01
3.264187082719055555e-01
3.153619411828471053e-01
3.226330005724962757e-01
2.968485156867167185e-01
3.245195606855271753e-01
3.030958151163626879e-01
2.683410582282194645e-01
2.320410168776402271e-01
2.196451169110867907e-01
3.100961958668060348e-01
2.563104337639177110e-01
3.005219842049881018e-01
2.839487462823331865e-01
2.771106579947745230e-01
2.653408218768816829e-01
2.981214966911412412e-01
1.971595080820347512e-01
3.008118565973830205e-01
2.609747477024233486e-01
3.000705833523646948e-01
2.486798838590519312e-01
2.701678202779743132e-01
2.305292906136240383e-01
2.467025433857623906e-01
2.241111520479305286e-01
2.879759203345561569e-01
1.691941541598531717e-01
1.937277680917556533e-01
1.775086041259196223e-01
1.531882077723964730e-01
1.921350966258681958e-01
2.737496310551710277e-01
1.978356803643312178e-01
2.400064704068733124e-01
1.602048363255708097e-01
2.204862121627414739e-01
1.785126820514685853e-01
1.679750186518288446e-01
1.685995639112457534e-01
1.579423741367100842e-01
2.372082570334722029e-01
1.419518766483301997e-01
1.547393332275426303e-01
1.776125328918943813e-01
1.217922100139012809e-01
1.941201184995739459e-01
1.072643154988852515e-01
1.585036642694174769e-01
7.884212622839137374e-02
1.209675984809910759e-01
1.507223205465682836e-01
8.960672167406025235e-02
8.641694964971105564e-02
1.092009276389456635e-01
1.102697486258588933e-01
3.842474997315896423e-02
1.002965297354759117e-01
8.838165075270798532e-02
4.741807496061489074e-02
1.124713783112064186e-01
4.114611054551193386e-02
4.036623742183361591e-02
5.304020456630560709e-02
1.306991754333240441e-01
5.637677534205073893e-02
9.687713377452381036e-02
1.250439274774103882e-01
6.458851009377900021e-02
6.306027446863099462e-02
5.709434650513542375e-02
6.338781193443297768e-02
2.828052936909668594e-02
2.143713510419070767e-02
4.038601399824136989e-02
5.645406185811328859e-02
6.499715492693379504e-02
3.837061941343437865e-02
8.106202784614402468e-02
6.570753891587063911e-02
8.093678068652276902e-02
1.118821800343795109e-02
4.329958949843980276e-02
7.304029861018335179e-02
3.248030479613109311e-02
4.228023455236196160e-02
6.030499999963766233e-02
2.773145888335903919e-02
7.612285618714619007e-02
4.527304244432753255e-02
7.621290599848659642e-03
6.800558797155810409e-02
6.261955322163857696e-02
4.377345516841203710e-02
4.976380459584892058e-02
4.384364922126905706e-02
4.927904782234389380e-02
8.764170329080608890e-02
6.101522757966554300e-02
6.718023473374072629e-02
1.816763239360431187e-02
9.350199713202216045e-02
7.571074569484828598e-02
2.878634623797202835e-02
4.948212056535764014e-02
2.837163666139534343e-02
3.234445904649321107e-02
-8.170641780963279477e-03
9.015028969010424609e-02
4.844583877319674770e-02
1.084596711541375158e-01
6.502674581962544775e-02
6.927289276217163394e-02
5.591854729622156017e-02
1.075619104555738115e-01
6.806997128069164349e-02
3.294216257909086260e-02
5.999142800578489282e-02
8.616173540482344184e-02
7.717769280230662998e-02
1.123045378177964931e-01
5.900767258829115597e-02
1.021368467832586557e-01
9.849101716891292546e-02
1.573777352727136758e-01
1.358678456744160379e-01
1.230361510805132730e-01
1.126842564810184855e-01
1.220632845534763422e-01
1.646610392563545577e-01
1.412473725508687217e-01
1.816192540760000196e-01
1.617959036121869032e-01
1.715235703400442291e-01
1.314055199286358055e-01
1.434675382387941012e-01
1.872764758944138463e-01
1.743905292603478152e-01
2.049368193844747221e-01
1.385987275052653067e-01
2.212324174528624288e-01
2.157380560350038723e-01
1.744270385181961869e-01
1.810780503987653445e-01
2.245512198252014313e-01
1.466689198925677506e-01
2.195326944653147594e-01
1.724940077452747078e-01
1.894470262137983030e-01
1.761914625604250328e-01
2.144197979853336711e-01
1.770796304297631019e-01
2.141509767520209939e-01
2.378629342717615835e-01
1.769726098828667271e-01
2.147190383755732124e-01
2.169009684817342354e-01
1.903671936416720389e-01
1.897261663226729178e-01
2.321276392655692855e-01
2.699194953980947886e-01
2.092352171400740923e-01
2.193841038985175629e-01
2.393090262802287649e-01
2.876497800049217513e-01
3.183710110007726413e-01
3.343931531959081771e-01
3.184193125714744332e-01
4.134999354588700937e-01
4.319838910121368558e-01
4.667630518377941518e-01
5.487402476997397249e-01
5.677704786425576966e-01
6.739736229312935922e-01
7.289126403099812634e-01
7.867404057924116678e-01
8.098056986310973038e-01
9.051804523509999756e-01
9.418460865412651151e-01
1.025334137099809029e+00
1.037346919469967821e+00
1.091320607874942450e+00
1.124562265424713603e+00
1.147570815886239659e+00
1.144864049559363384e+00
1.162546277244230541e+00
1.161206362413695237e+00
1.106663082006927867e+00
1.101073658454311932e+00
1.067037042467861685e+00
9.691361606241575277e-01
1.012297106198014607e+00
9.183380776743446106e-01
8.033108505266763899e-01
7.882212334272419296e-01
7.156823764523218001e-01
6.433150565111959152e-01
6.233780007842363302e-01
4.325214581273001402e-01
4.645508099635811128e-01
4.214110909323089960e-01
3.548204623538729896e-01
3.373856463074104695e-01
3.352485294202927624e-01
2.994511245609235983e-01
2.087744219116910716e-01
2.711279594313649732e-01
2.240995820278699480e-01
2.532853037779859151e-01
2.465455607919917191e-01
1.604372454348175214e-01
1.577077358800909879e-01
2.006318921571605407e-01
1.877097348094031171e-01
2.256708783929396722e-01
2.429188422559672156e-01
1.991210771502726073e-01
1.570813891767175174e-01
1.670840497473479180e-01
1.409613340023061490e-01
2.307522615295206359e-01
2.188459663763568375e-01
1.577262637422555125e-01
2.450250298322604603e-01
2.045554024948538774e-01
2.496486276856672293e-01
2.593531060250542364e-01
2.721790142377016330e-01
2.548249429632480911e-01
2.229870420277972609e-01
2.277346658796549628e-01
2.436727142198041873e-01
2.625388741518243640e-01
2.727494688667313483e-01
2.856033483804188422e-01
2.997955116922516039e-01
2.518782709231395800e-01
2.384502895088934371e-01
2.947651558429635332e-01
2.616695729712227858e-01
2.585178458530789647e-01
2.607008216861063654e-01
3.302587930323135357e-01
2.566319720195665011e-01
2.381129841262858704e-01
2.596100395282232021e-01
2.488082056537889164e-01
2.860819788451117729e-01
2.479801018849459582e-01
2.903876683334918885e-01
2.661502473959717618e-01
2.247517335926363935e-01
2.815241242489464613e-01
3.384581069223990824e-01
2.420735562472347280e-01
2.403614067698571777e-01
2.434745491569275666e-01
2.554631107604891094e-01
2.591453334383295171e-01
2.683971467761097629e-01
2.793509522857484662e-01
2.101974334301827396e-01
2.521946006395333062e-01
3.220597919346767091e-01
1.730851191815380996e-01
2.614002126285533412e-01
2.275264963263924634e-01
1.879883377328783745e-01
1.938360672203482959e-01
2.578557189443456688e-01
2.054986332895709089e-01
2.479152084799642330e-01
1.795711417352430783e-01
2.233048922152141014e-01
1.835847508536494754e-01
1.756115140890068815e-01
2.182106916480963110e-01
2.444735820133664694e-01
1.461385939002721179e-01
1.396520150069934241e-01
1.476070292940747930e-01
1.070182670571267480e-01
1.710197686937995898e-01
6.547158145970916054e-02
1.272478732082273634e-01
1.676355864409368734e-01
7.958010748839042248e-02
1.185384346512634718e-01
1.316438367230286788e-01
3.999525761975074312e-02
1.498884105467525873e-01
1.237496101067830090e-01
1.051407948753904503e-01
1.059526063945570445e-01
9.869850136418498177e-02
1.050043567591224525e-01
3.190676856517814242e-02
5.314129084465674807e-03
1.020374275587378476e-01
8.310608016316645141e-02
6.431201972668426636e-02
8.647859567653637392e-02
2.056389354109382575e-02
5.255256208808135182e-02
7.107921985151066657e-02
5.028381540620087409e-02
6.792833377791829275e-02
-3.329957571125323479e-02
3.656885547629160071e-02
7.701308873532371202e-02
2.116443408259631107e-02
-7.129127599213768741e-03
2.764423112485939887e-02
4.443928346283162328e-02
6.685765779721354607e-02
4.699642333244731518e-02
-1.997998123089549799e-02
3.389161046020933155e-02
2.105150229918526655e-02
2.873877147901900131e-02
1.374421386411475710e-02
2.472996021491664573e-02
5.523923457708227597e-02
2.401960290013835722e-02
3.162294178844757969e-02
-1.565664841463310433e-02
-3.099141593311011827e-02
2.522452835477765470e-02
6.671561018429865431e-02
4.199240225370836493e-02
-1.809701549394902506e-02
-1.160373741086148137e-02
3.204335952544531962e-02
3.051332156981645741e-02
-4.625886329112226941e-02
2.764484238378596415e-02
4.299395890092765765e-02
-1.071530272026000041e-02
-2.804122077331586485e-02
2.943035410426778076e-02
-2.010093748249740936e-02
-3.183430268271218722e-02
1.224214125214772610e-02
2.604666927044876033e-03
6.011440153406820072e-03
1.534358492957587500e-02
-1.458885132810733808e-03
3.906635582443920840e-02
1.751224936202089646e-02
1.195309097525107736e-02
2.834519718764393764e-02
4.164392478079012409e-03
2.478816035144704166e-02
-1.277354490466639167e-02
3.709218151818841069e-02
-3.188802747556609973e-02
-1.820041866588852086e-02
-2.186737055813156236e-02
2.971374593014095358e-02
5.242922172863735686e-02
9.647025341693964834e-03
4.020913813243592871e-02
6.425064801829484529e-02
3.001624286810563105e-02
8.530466770932747245e-02
3.377177600802680479e-02
2.433334808914711100e-02
1.344337361992443136e-01
4.008133866516360583e-02
1.314532699149626727e-01
7.477958837702818051e-02
8.207155714248916267e-02
6.672448377205292269e-02
9.918719189253066837e-02
6.499793322659869199e-02
8.600175599356285616e-02
9.696774170132128889e-02
8.865122768764288619e-02
1.344389005089532407e-01
8.566359820190863616e-02
9.120771818175414658e-02
1.181472529265571864e-01
1.029147868447289060e-01
6.805747867040995436e-02
1.000612591960111791e-01
5.295875238382754396e-02
1.384126052832566622e-01
1.117464761919605004e-01
9.197389447264531226e-02
1.493237610027466633e-01
1.537606686168629944e-01
1.499215147589466612e-01
1.331942370890135952e-01
1.796807746889975965e-01
1.103071585421277062e-01
1.106637318908753054e-01
1.379398119437066916e-01
1.631994224976604790e-01
1.525230250648983432e-01
1.423720166917344931e-01
1.015783968434434276e-01
1.100499981905929403e-01
1.539696926499498630e-01
1.546249376220876215e-01
1.444188911614382731e-01
1.635501223169867069e-01
1.506880431312501711e-01
1.260974282383615086e-01
2.059249959616644143e-01
2.363097602291706623e-01
2.160292816685281669e-01
3.037685391220111830e-01
3.147767428557837199e-01
3.561702241232646560e-01
3.663734929783913352e-01
3.532463253742639253e-01
4.805500201999810539e-01
5.271943101732601278e-01
5.582329240989489794e-01
6.440778538761888772e-01
7.059669705016580199e-01
7.744324190028835098e-01
8.187274259486398975e-01
8.954283332594363820e-01
9.783216524252269508e-01
1.000802022801866364e+00
1.027447933018682091e+00
1.085290216460789825e+00
1.084723073961927131e+00
1.082423035929620747e+00
1.067096615045199925e+00
1.116952376982959017e+00
9.968326385115078292e-01
1.029158825240176656e+00
9.382748233187957476e-01
9.400410073989855508e-01
9.339677637320514814e-01
7.983523236050020788e-01
8.137471195216368081e-01
7.642083909086985205e-01
6.743131030921627467e-01
6.142666086072875453e-01
6.037691563645386505e-01
4.592515439258864074e-01
4.441711623991683733e-01
3.821421477438894376e-01
3.553084475318307733e-01
2.817291451700527083e-01
2.221576984566104307e-01
1.988205135748371266e-01
2.349768084389184941e-01
2.088248676240714863e-01
1.370971331865206699e-01
1.436792484258220814e-01
1.389790950437398420e-01
1.502281449953744852e-01
1.124557414312874620e-01
1.241146295167114277e-01
1.272052459011655257e-01
1.146434783693631998e-01
1.543252893911674639e-01
1.531578751510112302e-01
1.341699613163973570e-01
9.299103303496869533e-02
1.640758495895912605e-01
1.161332931114759937e-01
1.575373918164868769e-01
1.179238519614235481e-01
1.990636192204027211e-01
1.329637674838209105e-01
1.607853479680842745e-01
1.838188736187904015e-01
1.692359286723427725e-01
1.732634788262447656e-01
1.368686060528787329e-01
1.515092553227945227e-01
1.621752569146289458e-01
2.059458684062074607e-01
2.168096562518360415e-01
2.045244350639623954e-01
2.485100377997581933e-01
1.939206446431245290e-01
2.145232940267770005e-01
2.060372636045772199e-01
1.903140613733196596e-01
2.016871119567358317e-01
2.506233713968323840e-01
2.393510380635824886e-01
2.172481806090491019e-01
1.752036118883776306e-01
2.098551657334071507e-01
2.071053173834443983e-01
2.243410306662420584e-01
1.673506498561440070e-01
2.618430991073780745e-01
1.930360479553078490e-01
2.258244681066451931e-01
1.893178745021437404e-01
2.152096520294877469e-01
2.121289898136329566e-01
1.713685970322238183e-01
2.248469794811982503e-01
2.278446871421076492e-01
1.895636909507535384e-01
2.015878992533216008e-01
2.023913833610585800e-01
1.675071518260060344e-01
1.936568841714187139e-01
1.838279910603400069e-01
2.050332367914566023e-01
1.912011635939385445e-01
1.521784609615156603e-01
1.240335281856572019e-01
1.530457577716926587e-01
1.440030204898671284e-01
1.624163169364232773e-01
1.249954120367691573e-01
1.508718410283996225e-01
1.648792697341357472e-01
1.175592317152781563e-01
1.275270589427265067e-01
1.100374209112477686e-01
1.315208132907506877e-01
1.383859049317974210e-01
8.496133852787010610e-02
1.190598922721574082e-01
1.114756401373139805e-01
3.415376664279124591e-02
1.083982169783674759e-01
8.632903816061415769e-02
5.883506630874953125e-02
7.124019888154646540e-02
6.288183386870971336e-02
7.077362981695556332e-02
6.678923544991448302e-02
3.500823708096298392e-02
6.517497106501209114e-02
8.377714115894344116e-02
5.875117252625459974e-02
1.684321760292591813e-02
-4.266076566729337660e-05
3.558261371356412350e-02
4.310844936944950578e-02
-2.365539315051743557e-02
3.427060573557302869e-02
2.024952031477517123e-02
1.963408580803265024e-02
4.107007068726860333e-03
1.094073572098044206e-02
-1.728763384348571547e-02
1.181146658122800286e-02
-2.483879015722605110e-03
-3.409780312412589998e-03
-6.066995268048915035e-02
-7.295539548148331777e-02
2.333688543470827104e-02
-1.277172385306141189e-02
-6.993775188709246138e-02
-2.712908677722731393e-02
-1.763286743790551392e-02
-1.229803725425112487e-02
-5.171086913570362154e-02
-8.797569669651499058e-03
2.057959325117738464e-02
-7.694413563631430364e-03
2.186873824916857334e-02
-6.771801308867483882e-02
-5.875017541193764542e-02
-5.534046504694121321e-02
-4.508117686992477863e-02
-4.644706534430768918e-03
-1.702965891546794064e-02
-5.072918688095948148e-02
2.520541857816491205e-02
-7.399333269819896586e-02
-6.139174852684008143e-02
1.768184231235869763e-04
-4.478318143832352161e-02
-4.134942348822392283e-02
-5.859263395711461486e-02
2.532519255972662253e-02
-2.425038356804846279e-02
-6.499093052414503524e-02
-3.138626219030782316e-02
-5.700872327681808654e-02
-1.929606132978201050e-02
-6.852936285854976939e-02
-4.786430769854528589e-02
-1.466668226783401224e-02
-7.326255562827596601e-02
-4.868283836862559444e-02
-2.090337660851750157e-02
-1.877057964121640193e-02
-2.811667074322925924e-02
-2.732846880758122571e-02
3.526056905214777770e-03
-4.305710089714142458e-02
-1.877219846616546076e-02
-4.249809194066740681e-02
-3.113484498563753866e-02
-9.807842002879346710e-03
-9.822486107643693676e-02
3.455249056041248545e-02
-1.007035317305107758e-02
-6.046917637437994320e-02
-2.158602561623705618e-02
-9.576239789604000519e-02
-5.158456980995949209e-02
6.952453521041554452e-03
1.676062129945255635e-02
-6.837466244091788825e-03
2.978728861788366988e-02
1.651070806947796399e-02
1.404425808353699373e-02
6.234959450843375467e-02
3.798254956015358758e-02
-1.186752205922052272e-02
6.123504606161032926e-02
9.242991278672413324e-02
5.291839205899224324e-02
7.241728748360728996e-02
1.028487515872556629e-01
8.639735669369866256e-02
1.126163618706368663e-01
5.211779896131520096e-02
7.069950033970792691e-02
9.785359671336832377e-02
2.888262998115032065e-02
1.264962371702601229e-01
2.357738749065207973e-02
9.914928686772922495e-02
9.890602331724138163e-02
1.098382071084501865e-01
1.136638581954790839e-01
8.726648487328449166e-02
7.499353746338673077e-02
1.100514421235794932e-01
1.306020702517287635e-01
8.108485347621278982e-02
1.375017429047538375e-01
9.668751093402566665e-02
5.604943189581253205e-02
8.494972153099245027e-02
9.520462029706198981e-02
8.719622822641399928e-02
1.194803624873597148e-01
1.092409241467397762e-01
1.518122645685300587e-01
1.455116367853110659e-01
1.680300099343851050e-01
1.621251489713624039e-01
1.124315110113903587e-01
1.841369168694617642e-01
1.451527017790648355e-01
1.755404984289525849e-01
2.013597901210988916e-01
2.486634090111140838e-01
2.148845996956981752e-01
2.981378425018612610e-01
3.261782882435028674e-01
4.171435725200924316e-01
4.166746365860237722e-01
4.784931299120910309e-01
5.399358425734894773e-01
5.753664101911957207e-01
6.278601021972866070e-01
7.095924326973288565e-01
7.563326201820599337e-01
8.408984359414443110e-01
9.257557942199504675e-01
9.509690834228329281e-01
9.791998638919061637e-01
1.006272803601673482e+00
1.043348406779205817e+00
1.076419212765434841e+00
1.053999857120974992e+00
1.081659578598964666e+00
1.010120688247402532e+00
1.017538799492423429e+00
1.030473075630401469e+00
9.351338583114963132e-01
8.603315340071284734e-01
8.491421969480279497e-01
7.971585825262094138e-01
7.290886834974470432e-01
6.716107018420665042e-01
6.152418301036025605e-01
5.167514195674675070e-01
5.246355804682154567e-01
4.556374999591724095e-01
3.750601789420319743e-01
3.298746947820896946e-01
2.892109413682180663e-01
2.660920637320586257e-01
1.800919546382901415e-01
2.313932790597874045e-01
1.435097359328617594e-01
1.000193724614856783e-01
1.147231356314054040e-01
9.500331655307350798e-02
1.516877633031761263e-01
1.338374778706066803e-01
5.634822808216217310e-02
6.593662661216870280e-02
1.483928172157448211e-01
1.268465043643489942e-01
1.154710677359711279e-01
1.214502708797462610e-01
1.385632619122352804e-01
7.937749043300788843e-02
8.103901602145249794e-02
1.094920407325558898e-01
7.851458207547751256e-02
1.062097403807856222e-01
1.507726667739506254e-01
1.421258546925930066e-01
1.863959897557708190e-01
1.481943337338435251e-01
1.299816613073936922e-01
1.715717340221608045e-01
1.622674026556023830e-01
1.729411638690155906e-01
2.035485985224824990e-01
1.502633263457273105e-01
1.573394654860653663e-01
1.585559476295383963e-01
1.978393572336633044e-01
1.903616808691346307e-01
2.130236107199093565e-01
1.356895522999626291e-01
2.004414473939170327e-01
2.435265787323813158e-01
2.102220008052100575e-01
1.985589325105342196e-01
1.969214281175834802e-01
1.757189909700096475e-01
2.360523415122767754e-01
1.891345866285271404e-01
1.820776795072332199e-01
1.640654801632116799e-01
1.560615050960938166e-01
2.043388273840344993e-01
1.992558802936386653e-01
1.993728864825176639e-01
2.062748795881756414e-01
1.654973812442614434e-01
2.111501284930854816e-01
1.592326495565505873e-01
1.987419896837457622e-01
2.165171931348489898e-01
2.068616001110853420e-01
1.215669764906974204e-01
1.980857914463400593e-01
8.886153081388935282e-02
1.627951692009886875e-01
1.882744712865515591e-01
1.722921180230394256e-01
1.676496579381158702e-01
1.780665154365234371e-01
1.694220913812769513e-01
2.044445384415294609e-01
1.448268969369243819e-01
1.269201413314567928e-01
1.494694352053669295e-01
1.076320860615126024e-01
8.839373688762228176e-02
1.229720826628039332e-01
1.007959278680804760e-01
8.442710758589989928e-02
1.682801938628223082e-01
1.655869321447112630e-01
5.294545459186769665e-02
4.601853945669914792e-02
9.686064738735714053e-02
6.919647163634781717e-02
7.311520926526671182e-02
8.109863712213198628e-02
5.064688905299776639e-02
2.582451660404089938e-02
5.405595628308192124e-02
1.023946613033623332e-01
7.594859501930581458e-02
5.922304019512898698e-02
5.909279634153050131e-02
5.800958689146064329e-02
4.843079580282235591e-02
5.535128394715410627e-02
2.774191534460664771e-02
-4.165319662425583103e-02
1.076793005454036029e-02
6.445203444902833367e-02
1.371587720621087608e-02
3.336555899754013038e-02
-4.204266048328714200e-03
4.546317404512157517e-02
3.303722440001772426e-02
-6.513669689230387749e-03
3.782123586133626786e-02
6.346715771751232360e-02
-1.823959089738591555e-03
3.443597551001136015e-02
-1.128862981471971325e-02
-2.868924468257134930e-02
2.622403614196181648e-02
-3.664269697836826378e-02
-2.865785899396207023e-02
2.381009667115672329e-02
-4.638653933176900557e-02
-7.604238119886613800e-02
-1.097753580042805377e-02
-5.938174208713912355e-02
4.985709061735323078e-03
3.879149109147470714e-02
1.808217775025337815e-02
-4.332656310303758390e-02
1.384637393836795488e-02
-5.664629858772239623e-02
-7.907962467791788963e-03
-4.939777359372009985e-02
-6.144717456635538644e-02
-7.858868754091445641e-02
1.532262036723681248e-02
-4.601008260046633713e-03
3.545665040601683748e-02
-4.408395814573123905e-02
-3.535133335712299651e-02
-3.168133589272918715e-02
1.205668598288311272e-02
-4.311883514198426581e-02
-1.014899740354917659e-02
-1.738769563930361167e-02
-1.813641329890739590e-02
-3.072718625384600333e-03
-1.051877196366478306e-02
-5.288063458418847118e-03
-1.437473635591223972e-02
2.735955728635998743e-02
-4.139623519006342678e-02
-7.236237672580694835e-02
-8.056801120444331832e-02
-4.842931545915293151e-02
-1.373672814206164904e-02
-9.251442299051448881e-03
1.077533965450704415e-02
-5.781691485597885427e-02
-3.835465693555699385e-02
1.933344079426535869e-02
-1.693422814110965777e-02
-2.876998219446597754e-02
6.147399820035276408e-02
-3.119472293802355578e-02
3.885734153045845851e-02
-3.884419153649623646e-02
-2.424601620263715576e-02
-3.525866025313462160e-03
4.479847255599293809e-02
1.199533028036354337e-02
2.624407644331562539e-02
7.206499067292951310e-02
9.057638479319762848e-02
4.828698400390860762e-02
6.776967500887068341e-02
9.920470703203496110e-02
9.180429646132803878e-02
8.423002643937593792e-02
8.233896689613556807e-02
1.089963976171824805e-01
5.141420632964258802e-02
7.176331332333237001e-02
1.085743691922870513e-01
1.211209039466262655e-01
1.282814060363530184e-01
9.372601817990525164e-02
1.080918483028227295e-01
1.095317340496068242e-01
1.302887367561330889e-01
1.405316592545944321e-01
1.185033854952689536e-01
1.304544828950188473e-01
9.027896517896241702e-02
1.437395217443995510e-01
8.204092024126800886e-02
1.092386038083269229e-01
1.119017920596713372e-01
1.264057939208042547e-01
9.216372002539027775e-02
1.403323359358650546e-01
1.114844276387356309e-01
1.827278317570233679e-01
1.328822002552203230e-01
1.470134834093999865e-01
1.412495417584960222e-01
1.509230514799495548e-01
1.880829199440857691e-01
1.489376792786286929e-01
1.607503480055225142e-01
1.155902619257186958e-01
1.973774018417557563e-01
1.998457733558278160e-01
2.149720055550594922e-01
2.114479618213492007e-01
2.610240401366588636e-01
2.908027110819014771e-01
2.571621765556702521e-01
3.571459535840638133e-01
4.245454633448021986e-01
4.972161646450562467e-01
5.102424892834780401e-01
5.753180718846698793e-01
6.082926987028018928e-01
6.991483216984815119e-01
7.649976278148793440e-01
8.119737757078280271e-01
9.085775249657512820e-01
9.082254964994721513e-01
9.835676478997726901e-01
1.015702472388424926e+00
1.063798725644879095e+00
1.111861455594350234e+00
1.081626883202285061e+00
1.078726874727840679e+00
1.227200819744326488e+00
1.088237115404830035e+00
1.030640591187508281e+00
9.934424699663855218e-01
9.986824301457324360e-01
9.599938171109065888e-01
8.835753052528307894e-01
8.802731963028339601e-01
7.500108062520750574e-01
7.574028041020854918e-01
6.901703805954596538e-01
6.567266206377686544e-01
5.503959928045711880e-01
4.415303241284324054e-01
4.341093125512996975e-01
3.786039213328655784e-01
3.393715088378821965e-01
3.253949510769812981e-01
2.818963905435649120e-01
2.351464760916112673e-01
2.272607045196034237e-01
1.950327321708263117e-01
1.359310124545433651e-01
1.508667334850129493e-01
1.787706348959725855e-01
1.084574120967347344e-01
1.531143530838447731e-01
1.369888705655571137e-01
1.499156993153633599e-01
1.640239735153226630e-01
1.918097024957981511e-01
1.407467142274935468e-01
1.601516456391652021e-01
1.465682799687644533e-01
1.812852754173850112e-01
2.124352416555461420e-01
1.823247929831048331e-01
1.846246221458977266e-01
1.583927610168027189e-01
1.884631218808433539e-01
1.738968147127114838e-01
1.450651039691464028e-01
2.159036093257739874e-01
2.075132224097971934e-01
2.118164326254774743e-01
2.247484214040998685e-01
1.569919117541332954e-01
2.081066457295317473e-01
2.382915152957510163e-01
2.245120604790885044e-01
2.475892288669279961e-01
2.138180154998906290e-01
2.469953488235119010e-01
3.063804337897780838e-01
2.096516384406726385e-01
2.778085346653739740e-01
2.630724381601718953e-01
2.324655639769248328e-01
2.997177736827416061e-01
2.194667909840569697e-01
2.583571174653089830e-01
2.364964197454784978e-01
1.852761829475842448e-01
2.284764966575454359e-01
2.656390465417135527e-01
2.655224862573214439e-01
2.768753255028277849e-01
2.099103463561164673e-01
3.078634108918201218e-01
2.342404320836745657e-01
2.706395406877207255e-01
3.045321302837100674e-01
2.165490183463518459e-01
2.494550845965986530e-01
2.484349042430153698e-01
2.198656980884133305e-01
2.284187513705517036e-01
2.337453220238790708e-01
2.085311321764185266e-01
2.308613283564088237e-01
1.792406536464050404e-01
2.346385686098536316e-01
2.049388768767210212e-01
2.460359000782727790e-01
1.882318259286634987e-01
2.272250115503893775e-01
1.894282563102186734e-01
1.882490781037438610e-01
2.154615972607006602e-01
1.228982990281470983e-01
1.533735406011504376e-01
1.991376213415364527e-01
1.770686807252986050e-01
1.411750683246209837e-01
1.549433822052153631e-01
1.043463408047775320e-01
1.966037394491733648e-01
1.084338291248680419e-01
9.861906959236285686e-02
1.086749000738567728e-01
1.163469900976415033e-01
1.143454453377817787e-01
1.169084204052928122e-01
1.511084336210280210e-01
1.322965283471512765e-01
8.209662832246140962e-02
7.869811046749972117e-02
3.365748196280637233e-02
1.156890417091084311e-01
6.904922087453121970e-02
9.513833865634149789e-02
5.198314870505753998e-02
5.306054602443448232e-02
1.391320843821278741e-01
8.929872813777146867e-02
6.181152469005073147e-02
6.809708230590170996e-02
8.423182475966342619e-02
5.650733527646804866e-02
3.743515533739772555e-02
-1.492813142208920460e-02
2.686429354101404349e-02
2.973870898145625219e-02
2.114083965329974918e-02
2.790880470464688484e-02
8.806731587691377094e-02
4.366576084738678365e-02
7.140616763282291168e-02
2.213002092849737645e-02
3.817801619747776543e-02
4.793567835856705345e-02
2.660581228188720754e-02
1.018802237066751548e-01
6.037813907926505713e-02
1.490057738234383013e-02
5.076563983473013353e-02
1.147693362965576322e-02
4.629921444748000270e-02
2.998435902192796848e-02
1.179778724119037031e-02
1.824568565170094081e-02
3.057189174045314706e-03
8.704070272361352778e-02
2.174848556619618511e-02
-9.395709148229069996e-03
3.317877927447693970e-02
-2.374918657228397567e-02
3.786163653251232997e-02
4.225138407901696952e-02
6.443564864933654102e-02
8.902621544713638924e-02
3.443178184277011916e-02
9.294037865304512203e-02
1.360737622266440516e-03
7.029528216529754014e-02
3.888457841636167034e-02
2.611232073186047289e-02
-8.265035852521022963e-03
9.015722139665693913e-02
3.890104783152829176e-02
3.170101109286378727e-02
2.218558455155740516e-02
1.172648488161825708e-01
5.985577959693964833e-02
5.219736807502638881e-02
3.606053761741750963e-02
3.409527423245108102e-02
4.962890571861884592e-02
5.072472682165268809e-02
4.344167322176180346e-02
3.891101570619913408e-02
1.154873292863166645e-01
6.603478812503764395e-02
6.462543357674990774e-02
8.671082335284541198e-02
5.512892079964522296e-02
9.044200325421489217e-02
5.938026090937108953e-02
6.609762079904649146e-02
1.053715363233903857e-01
1.234345676206255460e-01
9.478181416221445610e-02
3.442432317981514861e-02
1.236998912786991672e-01
1.546263859447958855e-01
1.042581200393898483e-01
1.258706267761982855e-01
1.492029502260122376e-01
9.968025101235092333e-02
1.140369702558086396e-01
1.716517636579513728e-01
1.336541016545805816e-01
1.099836384390170119e-01
1.512082905358097529e-01
1.166804764283927154e-01
1.670069490739531093e-01
1.303166502297975204e-01
1.380030345484072329e-01
1.691946703468370228e-01
1.647988466299034893e-01
1.950601752626513752e-01
2.128861937606037202e-01
1.490002887873136395e-01
1.881778758595360479e-01
1.959818861378870847e-01
2.154449611825983435e-01
1.511418087323134762e-01
2.077677608144561927e-01
2.285313661056221357e-01
1.760148971699099785e-01
1.888844287605752903e-01
1.889298271366463000e-01
1.813179403073980900e-01
2.146790960253129321e-01
1.975150072393876133e-01
1.745920878283392930e-01
1.482678527494866449e-01
2.162157024514524961e-01
1.940257742984954903e-01
2.357704847006867888e-01
2.656425924562943464e-01
2.486388724299283537e-01
2.701391309397850327e-01
2.668163316807367069e-01
2.757359964618562032e-01
2.718541539949215213e-01
3.284454945418495697e-01
3.679524002995648857e-01
3.736225681204181082e-01
4.110352378962696673e-01
4.755015778332191689e-01
5.285281461869071329e-01
6.096524211212810407e-01
7.015742645794643684e-01
7.248368494120587258e-01
7.946858091351503006e-01
8.408084500277540618e-01
8.881439886875055478e-01
9.622249255310014737e-01
9.640245397614810585e-01
1.050711245942428151e+00
1.090759168946421775e+00
1.076925791817818334e+00
1.158030730980021072e+00
1.169512726878435105e+00
1.129466791462715891e+00
1.145014965075852986e+00
1.119238214348702742e+00
1.059705960700667804e+00
1.003552773025061295e+00
1.046086087721417091e+00
9.181788367574180709e-01
8.992724229350042009e-01
8.413229761095202264e-01
7.772109396884319121e-01
7.242293410751102778e-01
6.584488210771591854e-01
5.698098219134238862e-01
5.578335719487221844e-01
5.371828059762016050e-01
4.311447873584731694e-01
4.457843425412930105e-01
3.605501890807933374e-01
3.239870825259580367e-01
2.883083205160238971e-01
2.790730960879379552e-01
2.392530330706641173e-01
2.784797874568201159e-01
2.391733592542814868e-01
2.324794642226030439e-01
1.776393086421320933e-01
1.990548049752701720e-01
1.915550648152227753e-01
1.835010030902433920e-01
1.158638309930609955e-01
2.015355962137439227e-01
2.145104789092397990e-01
2.352873448643501564e-01
1.858281087882227012e-01
1.989769596308700872e-01
1.981710697580372216e-01
2.430779534796222996e-01
2.613080175708047959e-01
2.208545830461683401e-01
1.970603930878431775e-01
2.335128333270150014e-01
2.656068081762948951e-01
2.264675903786018685e-01
2.758584722718270266e-01
2.490208716903745123e-01
2.441845189338618105e-01
2.612265609645008646e-01
2.704720585636679053e-01
2.659568864025674273e-01
3.191476860936137694e-01
2.291980390036775783e-01
2.388247245115253936e-01
2.188957257239504128e-01
2.702622673269424181e-01
3.656222250634676429e-01
3.157399826238181384e-01
3.052161254688085523e-01
2.735182512227834484e-01
2.978850063850859708e-01
2.879713830447833689e-01
3.068203161870496354e-01
2.500357263424527465e-01
3.332963016646331433e-01
2.459817336425061673e-01
3.293220417163202351e-01
2.981886147762146111e-01
3.058699669659829534e-01
2.682200388062057073e-01
3.176696459290110908e-01
2.723652305732947032e-01
3.157676663329426203e-01
2.994724201516451023e-01
2.336012366682333197e-01
2.836534382462759796e-01
3.051500094998778057e-01
2.890420797026235222e-01
2.713170823408337928e-01
2.927911379419821380e-01
2.575566792167759411e-01
2.317486480243855229e-01
2.647638037376215947e-01
2.113807300938666811e-01
2.616629848557273097e-01
2.094613274593413732e-01
2.779087769075999081e-01
2.207012421492031695e-01
2.621385027113781740e-01
2.104129649027476623e-01
2.275773620471705783e-01
2.391392626380113851e-01
2.454284061576919584e-01
1.914651029781320735e-01
2.045019764963094122e-01
1.666733487469964359e-01
2.338927893580186046e-01
2.037683322186062407e-01
2.135061811206590277e-01
1.416397225878809341e-01
1.448335801009345836e-01
1.627189049293441270e-01
1.849614328838011523e-01
1.521543950368499376e-01
1.458928073997881047e-01
1.383082801198681211e-01
1.599181549810558267e-01
1.613093507395249038e-01
1.321251332394158817e-01
1.656371136575385816e-01
1.200574271805251725e-01
1.614562907427935790e-01
1.264881442360279995e-01
1.295894569157515774e-01
5.631637371434348310e-02
1.242462053456530463e-01
1.206567744715952989e-01
7.692250792795207737e-02
9.202949870970812685e-02
1.084109146463850815e-01
1.000401050268184405e-01
5.763598920649971868e-02
6.750133571747851668e-02
7.143859643832954631e-02
5.010060460853731079e-02
1.386468747221085152e-01
1.162788193515728041e-01
1.012483782149574685e-01
1.285272389080596434e-01
5.357293662042787730e-02
3.805297677661166611e-02
6.080979702830623113e-02
8.412636014862921729e-02
5.669312617888237066e-02
7.663761859469295223e-02
4.085397779350120884e-02
3.583508712033958710e-02
6.962850565728521957e-02
7.207858683847456760e-02
8.487104860115024518e-02
6.145671617031953082e-02
1.001556560265483287e-01
7.422281906958766440e-02
8.965054575947242754e-02
6.832905745802972386e-02
7.161136891599989562e-02
8.524857523276882509e-02
9.598127227274430573e-02
2.617448543209148493e-02
5.725588116080855550e-02
9.346333114995322711e-02
5.576241420474559868e-02
3.626289064936719098e-02
1.269652872485224626e-01
1.008059659526601426e-02
1.665033664457576945e-02
3.808658930670886372e-02
8.712724889923365024e-02
4.613271922057897434e-03
3.862894912038769557e-02
5.114632131387452513e-02
7.624746646907773484e-02
7.925185197990441965e-02
8.358804150242976627e-02
4.519254693285935237e-02
7.736036183482916662e-02
8.799215795628345660e-02
6.600160561108489587e-02
7.978652029655136646e-02
8.823867509735459913e-02
6.281136107762899656e-02
3.940654326349149472e-02
6.643648298447829559e-02
1.175071398913860587e-01
1.344528529694619667e-01
7.900375679560833753e-02
1.052282456083185602e-01
6.486619792359950287e-02
9.345396076319754941e-02
1.285219045656476600e-01
6.798713181732274347e-02
9.989449570983804927e-02
1.176068155870492182e-01
9.476186049979465342e-02
1.434297186472491548e-01
1.026191319676213326e-01
1.103682635979006954e-01
1.450877484877932111e-01
9.829250367915409736e-02
1.813614398448683829e-01
1.279404540495240883e-01
1.836596474770015586e-01
1.712123240353663201e-01
1.214313786091552605e-01
1.424666780664907428e-01
1.504925051828190918e-01
1.675297706991121238e-01
1.513524651826879397e-01
1.351034866066668505e-01
1.546721330925888704e-01
1.633782308012931561e-01
2.040294238002765825e-01
1.968579473282947578e-01
1.531246530350460489e-01
2.005787074804176451e-01
1.979045159736373960e-01
1.638497779667243415e-01
1.815110575250387104e-01
1.745900447033988945e-01
1.625745590478686331e-01
1.672548754643717328e-01
2.187317952979439262e-01
1.580161914426522207e-01
1.892607053135227368e-01
1.408409435152659095e-01
2.553382958242434997e-01
2.388906412710685712e-01
1.957966532277586047e-01
2.165889844664619923e-01
1.895132658712543328e-01
2.369898943485007625e-01
2.040423583668008189e-01
2.276436092312255355e-01
2.174820322950462848e-01
2.799095799752529534e-01
2.483996050411138024e-01
2.964433724355365896e-01
3.539701845611519793e-01
2.889031189165606195e-01
3.960123813256262726e-01
4.689480500054075129e-01
4.397509575619338862e-01
4.499692226753392310e-01
5.485036764607030824e-01
6.087554281974620896e-01
6.784539819505257530e-01
7.015616344422157535e-01
7.537281554371431103e-01
8.661652662306804640e-01
9.036230312484252458e-01
9.750444756212386377e-01
9.669231196241010462e-01
9.939578634374007793e-01
1.114012561478606278e+00
1.117148370845050920e+00
1.177206179773085948e+00
1.132510120817593835e+00
1.132987314979894355e+00
1.120975692002904589e+00
1.107448997580187111e+00
1.084837813115270944e+00
1.008706876664230201e+00
1.073777655975632905e+00
9.929624998667656577e-01
9.056661942981356628e-01
9.313961522802569615e-01
8.425019146370134049e-01
7.381056484222906500e-01
6.789349810583380496e-01
5.360064776165218703e-01
5.350157516694908910e-01
5.229391593697186869e-01
4.731975104529623222e-01
3.917388604686969922e-01
3.902773289262986278e-01
3.123894025755863946e-01
2.929782188715871483e-01
2.823901340761749701e-01
2.595000616703862506e-01
2.620423762203178963e-01
2.553379969334595434e-01
2.326545641894018912e-01
2.013646443264692776e-01
2.057073747643801132e-01
2.052389279784274378e-01
1.885931690461537524e-01
2.165323372951437064e-01
1.186891811029138488e-01
1.991624898085574691e-01
1.456171648337408753e-01
2.002866391884305930e-01
1.913434572655952626e-01
1.983065363561771488e-01
2.000177115958899354e-01
2.232500084999639034e-01
1.931607084014945186e-01
2.117886351790798649e-01
2.053895728506303642e-01
2.072161192794070295e-01
1.775916373245828295e-01
3.090275166337868029e-01
2.231246299801632471e-01
2.429529475016627971e-01
2.384148046661402343e-01
2.786524364211476756e-01
2.459638974556395963e-01
3.025163636311369864e-01
2.179000944040757615e-01
2.115946498394136732e-01
3.090310847895416657e-01
2.516050452444038021e-01
2.409743671984153068e-01
2.774481134378701808e-01
2.780029303650907169e-01
2.054108926298891802e-01
2.693714515109791874e-01
2.562364036270328160e-01
2.615689042835737110e-01
2.322010374789476306e-01
2.840230962578477736e-01
2.731809194353395087e-01
2.725635601054040569e-01
3.118292603995354573e-01
2.697976360983215804e-01
2.987209824887352982e-01
2.307580658946608021e-01
2.507887238556240628e-01
2.145146757683773220e-01
2.590164279115630963e-01
2.459071205998588638e-01
2.224645164809694875e-01
2.402350150750899860e-01
2.535589889470267755e-01
2.435369859390316694e-01
2.155685328622939656e-01
2.422999755175986036e-01
2.296494558737562641e-01
2.331308860663076910e-01
2.917977630246479381e-01
2.244281340016477111e-01
2.422010906898580396e-01
1.974616384199336938e-01
1.859821539451651795e-01
1.949144197925838651e-01
2.385924794272877569e-01
1.396412776316370563e-01
1.939403016455860107e-01
2.045843733958263577e-01
1.465323700255093953e-01
1.998997895664741675e-01
1.484086810230960674e-01
1.593960462910499476e-01
9.967473583278839422e-02
1.734107517522893993e-01
2.212786441921072433e-01
1.644472794076933808e-01
1.148106868688266585e-01
1.518849474016850387e-01
1.348462649645822686e-01
1.093281299327806405e-01
1.281405426378411649e-01
9.697925183027894525e-02
8.337750192089238288e-02
9.494345665443756910e-02
8.641744949359478345e-02
1.370493194644135104e-01
1.130433324171336296e-01
5.762842929677276793e-02
5.595307378249553959e-02
5.259366106716972106e-02
9.181051536647601152e-02
7.358978020441162005e-02
6.300908396378744614e-02
6.397876056431386904e-02
9.260018827115723550e-02
3.088230260718560077e-02
4.297623135135019562e-02
2.653613005943266170e-02
6.422283654442645373e-02
6.444050092925229789e-02
-6.649415731185033193e-03
5.113126492325970052e-02
1.097968329379968126e-02
5.694394147799264339e-02
5.013746423336251645e-02
1.796165235776501362e-03
2.787662331103350766e-02
3.927493063722353739e-02
5.535799273074475113e-02
7.179006620680204731e-02
3.946659341005939736e-02
4.798098377377938567e-02
3.571744982985482209e-02
5.472987132583034126e-02
4.569492464149640942e-02
-2.015052686822697836e-02
7.923203284635072646e-03
3.522415502528526698e-02
2.643878521580949464e-02
3.615286010402293804e-02
3.744372070539924574e-02
8.115103387264534229e-02
1.577706781125123511e-02
4.761484531202576920e-02
-8.954468086525779746e-03
8.226325742282887543e-03
2.552379152115557756e-02
2.371533416869023997e-02
6.178026033626161928e-02
4.691069070967610229e-03
-1.603260997156255585e-02
-2.440221215757336706e-02
-3.058437211618853652e-02
-3.489577331296987023e-02
3.973043309151967628e-02
-2.181291553375838341e-02
-1.534191087567483673e-02
4.096856600028649792e-02
-1.494988956301667588e-02
-4.221360174439837271e-02
1.882712404440678097e-02
3.353937611340138125e-02
-1.485048002333607710e-02
4.991225378492790410e-02
-1.277547021392838426e-02
6.275529840028287731e-02
6.419211874225909387e-02
4.558132826157296896e-02
6.948797836140892248e-02
3.599456733666892699e-02
-2.355219891182180978e-03
5.687616012444714209e-02
7.915149038081779886e-02
4.475266034476890059e-02
4.489431598411641744e-02
3.698191546910453709e-02
4.109431706747763979e-02
6.648259442655893303e-02
7.691713035044807356e-02
5.172718633722014209e-02
8.054519307909699388e-02
9.480501972632646157e-02
5.200907687538808277e-02
9.934897770953154961e-02
1.100236547076686444e-01
7.125387410033774682e-02
7.206007770150119063e-02
7.668967956505350070e-02
1.043896018685014082e-01
1.175392262908299124e-01
1.353655227301697461e-01
8.149776222546893656e-02
9.942593394699504594e-02
1.010738658208724383e-01
1.597553175482986365e-01
1.345351091521730658e-01
1.458014298298598299e-01
1.714014745820211794e-01
1.217635476801666311e-01
7.690626400633916726e-02
1.541389385642978338e-01
1.142927922463396195e-01
1.562792929115174589e-01
1.656608548238676926e-01
1.386052185301752393e-01
2.155542311436317859e-01
1.444423521616929329e-01
1.535063107869714671e-01
1.148531852542593601e-01
1.507686934284592217e-01
1.270932581491817370e-01
1.167078336077148198e-01
8.762292950167255290e-02
9.135713360991394583e-02
1.457254515796242711e-01
1.618927100778528860e-01
1.594069555982730590e-01
1.722239927617393029e-01
1.367222512447055505e-01
1.957392110698152332e-01
2.171774562678513709e-01
2.221295411315690749e-01
2.238699095278377238e-01
2.657273891807983013e-01
2.782412348594611173e-01
3.132741588823709789e-01
3.574721141932921675e-01
4.098386340770773240e-01
4.279307075721938691e-01
4.881857162092102520e-01
6.393176886719249552e-01
6.509001436482603209e-01
6.743970259921083787e-01
7.405707979704273525e-01
8.051945615278732760e-01
8.390985894551398205e-01
9.324213186981580304e-01
1.019788791517125315e+00
1.008918815931242552e+00
1.079174894926977046e+00
1.148364473287971421e+00
1.099867288769501128e+00
1.098996595223579620e+00
1.107407016744300199e+00
1.077928997585084980e+00
1.035254620318249996e+00
1.036780754151104489e+00
9.607773107442549865e-01
9.078097347492877223e-01
8.515612703990659282e-01
8.243797678305978538e-01
7.053311395014392193e-01
6.649906756845367362e-01
5.815003521433871336e-01
5.758318470600505279e-01
5.224400224221247280e-01
3.847183414346309061e-01
4.344139135686769793e-01
3.717096274549662183e-01
2.875915227964507825e-01
2.639756689326944739e-01
2.619224804572883314e-01
2.514245197988866920e-01
1.979154008359442218e-01
1.650527950215077144e-01
2.089399441778075905e-01
1.352400610308703843e-01
1.718874019350417059e-01
1.459724851230501386e-01
8.354518615258167691e-02
1.190634363827025172e-01
1.032708650717684279e-01
1.410798455074800672e-01
8.605296246422501627e-02
1.420795205833446095e-01
8.135554627331535726e-02
1.217106497461647174e-01
1.396260482277749404e-01
1.410344977532949629e-01
1.502854978449251755e-01
1.836376942376107546e-01
1.635312022799099152e-01
1.539836266349458582e-01
1.974797155941217797e-01
1.630192559445463873e-01
2.026790827215722013e-01
2.183585527189887132e-01
2.086971226118433942e-01
1.601582770556261304e-01
1.869445842023726434e-01
1.527829903892372887e-01
1.987452452109369494e-01
1.482398854987808934e-01
1.713395873348180776e-01
2.094320171094954663e-01
1.791792275878302809e-01
1.932992414276588078e-01
1.969077833891717533e-01
2.469240636414800905e-01
2.168420466697096316e-01
2.117997471925272823e-01
2.294958965349059021e-01
2.295342240970078274e-01
2.264181501463230772e-01
1.983807234946987907e-01
1.389063873126293314e-01
1.617266588788513482e-01
2.370390256834361276e-01
2.365769885644789239e-01
2.349363457833167079e-01
2.192736581663903284e-01
2.430828170724601278e-01
2.043531549011129711e-01
1.871653810493744963e-01
1.725556763616354905e-01
1.730364710753895252e-01
1.972444739535254843e-01
2.030621708381347423e-01
2.153648740233960468e-01
2.250082308751522597e-01
1.996663564651365019e-01
1.849486773069994316e-01
1.912537408625493152e-01
1.776190901174230230e-01
2.013823098358619723e-01
1.756364046530133893e-01
1.293175395847527276e-01
1.604524962306445590e-01
1.578291445847652130e-01
1.541855731206108471e-01
1.833539539541360897e-01
1.399416314543749651e-01
1.641765855347016578e-01
1.004468658719576968e-01
1.257814661624573893e-01
1.347650508792253288e-01
9.338016674662016903e-02
1.364969972667230969e-01
6.044763569663732378e-02
6.283726028124098084e-02
1.011975962234794441e-01
7.351990370420122267e-02
5.624708400927468099e-02
1.479703139761950614e-01
2.193934276680062356e-02
7.294058128382956141e-02
1.801082928622963625e-02
3.619771790076430074e-02
4.616062983657671231e-02
2.555777324407190743e-02
6.355501171139912864e-02
2.095952359700323231e-03
3.453470369879704793e-02
1.831485859699057833e-02
-2.992193063826508598e-02
3.594708104078235544e-02
-1.339703231779112644e-02
1.807264639719820959e-02
-2.790633033627196169e-02
1.814198916025681202e-02
3.541102863627512698e-02
-3.647726709654997013e-02
4.227349160105635384e-03
-4.477233441452092150e-02
1.029651990335973821e-02
-3.893015836499926635e-02
-1.196583205150784576e-02
-1.899589100000289091e-02
-1.350781378827620866e-02
1.063550960483127666e-02
-5.068903929851236584e-02
-1.890013500000487998e-02
-1.522030299995669883e-02
-3.214934492818286027e-02
-8.310562104539126471e-02
-4.382820833644419933e-02
-1.302068887125872737e-02
-2.376555268294132384e-03
-3.673432985730180900e-02
-5.335827818229020580e-02
-1.559102869551983600e-02
-4.774500882615007741e-02
-6.124318404561507334e-02
-5.313055956379557354e-02
-3.636405760674327886e-02
-5.886356519816671878e-02
-3.875008495937513897e-02
-3.520490760554849385e-02
-1.437794784886876204e-02
-8.534162175249421223e-02
-3.845675297312841495e-02
-2.378080576299978349e-02
-6.317352420931590662e-02
-4.421793398979538547e-02
1.813468638324289284e-02
-6.788813365490341256e-02
-3.955256314243864313e-02
9.221746389432919355e-04
-7.378750488145330300e-02
1.159067829346623751e-02
-6.119654148395824167e-02
-9.751989832472456043e-02
-4.298410061782203390e-02
-3.866979614947442523e-02
-4.423355937859327347e-02
-4.685371429019653811e-02
-3.700293172524819763e-02
-2.417933022692045700e-02
-8.329274797668421992e-03
1.551418263291047539e-02
-1.113719045366273336e-01
-1.842521634969162408e-02
-9.496403792491531215e-03
-5.452303607544353725e-02
-7.632450668365853286e-02
-1.334889947124089787e-02
-9.615006781613408271e-03
-1.297748900380214787e-02
1.735280896483930302e-02
2.470854413705023123e-03
-1.170431028229967918e-02
6.815157094128089510e-03
1.705847255052488076e-02
9.289210797460707714e-03
-8.380797675001071256e-03
1.531911244895524382e-03
-4.067773183539252074e-02
1.206598484591869802e-02
1.546054361797215282e-02
1.241015184021093953e-01
2.586699864975268437e-02
8.639124727401142900e-02
9.127924441837130531e-02
2.759205656970997039e-02
4.028505613230770610e-02
7.772941543993061586e-02
9.099180257706543373e-02
1.008162994007311963e-01
6.468815448890849473e-02
1.297011645545542435e-01
8.105336519927741623e-02
5.621377383707443220e-02
1.214430152481051073e-01
4.131432031351421619e-02
1.071884417912364329e-01
1.458203120915526063e-01
1.203237342010577138e-01
1.339431954045300355e-01
5.703635624052627584e-02
7.002348084134771278e-02
1.049948391805299586e-01
1.048674053005740070e-01
9.217726399989027708e-02
6.602018558721223229e-02
1.415314917590342614e-01
9.310904322089977314e-02
1.694486020527142256e-01
1.581299617200093710e-01
1.106197933858062421e-01
1.236592398432232870e-01
1.207921022587819804e-01
1.129462252056419314e-01
1.400073961588071958e-01
6.674123057202285825e-02
1.483247116372481966e-01
1.561319354349798294e-01
1.695862818311763276e-01
1.408737316704505027e-01
2.284845863114219611e-01
2.476997662123942567e-01
2.380412453369711856e-01
3.747387385708073060e-01
3.287328987366632815e-01
4.114960243121761896e-01
4.794920406483461628e-01
4.833980810658020655e-01
5.861114286956855546e-01
6.535286126692585462e-01
6.436685252771663368e-01
7.181819714154332734e-01
8.790293323266199499e-01
9.223541417860630087e-01
9.378138154473050214e-01
9.675858805389841999e-01
9.968045616540099907e-01
1.043368342419471517e+00
1.075463822858533369e+00
1.079202758363402737e+00
1.115421440675046227e+00
1.141296580208837730e+00
1.049021610142817140e+00
9.927414724524922240e-01
9.319951028930252290e-01
9.259233552005936563e-01
8.300222582601523014e-01
8.158934234577220890e-01
6.804791639650803470e-01
6.542450585914707517e-01
5.690962026359911441e-01
5.587364262086189637e-01
5.060218085857596249e-01
4.762692131218332903e-01
4.014004914637133159e-01
3.392431483936274583e-01
2.702722965938534339e-01
2.852960936994233809e-01
1.823465555541244620e-01
2.310561498243139944e-01
1.302706937728138892e-01
1.880893832423218004e-01
1.541586622073584378e-01
1.129055782679672382e-01
5.779374218453832424e-02
1.202254318479073769e-01
8.543438035930277230e-02
5.624061349969652901e-02
1.036720818290033930e-01
1.100316977348747838e-01
1.147655339220429310e-01
1.021601138394771235e-01
1.262312657916958847e-01
1.254882546008511957e-01
8.899134702977697098e-02
1.346780252121565213e-01
1.108813734470967260e-01
6.212701167548956988e-02
1.420097646243717870e-01
1.564429750602246427e-01
1.027296305692371459e-01
1.475553553661453632e-01
1.918412430298781224e-01
1.633419966565207992e-01
1.441351718931772330e-01
1.855326569160686279e-01
1.498629867137181715e-01
