9.501074456563259885e-01
9.097248596876498228e-01
9.678402749617427414e-01
9.378803844301908388e-01
9.108613631578013070e-01
9.279171379895380101e-01
8.127201854286389970e-01
8.171944085381022127e-01
7.138610729953973610e-01
6.675567663987641565e-01
6.168658274083007598e-01
5.042597643823478748e-01
5.208081970597685517e-01
4.775538011806899630e-01
3.600633128507684799e-01
3.122810605560548680e-01
2.678140386661090888e-01
2.072253338136624545e-01
2.070109379883238732e-01
1.870772370911749083e-01
1.622332908512840177e-01
1.813047947140391802e-01
1.453776666352663283e-01
1.566340859521219986e-01
1.009986294852896482e-01
1.547876417840053920e-01
3.876693990573894938e-02
1.409338178455342705e-01
8.640215278009200084e-02
2.955495813563370489e-02
1.266795151909466954e-01
1.462637930242117745e-01
1.227486937633562869e-01
7.139928878895016040e-02
1.195014353789583539e-01
1.194107211108902805e-01
1.045220222208483596e-01
9.656724339586886252e-02
1.538474679190356686e-01
9.478565912327616139e-02
1.773772060856079469e-01
1.515289987500896829e-01
1.520557685236126333e-01
1.356066460827698994e-01
2.036970174901989172e-01
1.655759424394740442e-01
1.617908246289285479e-01
1.421981152510884139e-01
2.013636617836942200e-01
2.055918730810720185e-01
1.928321725086592497e-01
2.146101716467568310e-01
2.203583200495792538e-01
1.928607886841885166e-01
2.207443473942082846e-01
1.139438828039970042e-01
2.102669560201960719e-01
2.234640120621819437e-01
2.071991359922408238e-01
2.418228938395545757e-01
2.063877059896969124e-01
1.818097327831733334e-01
2.137648466881675313e-01
2.472960989041868840e-01
1.893652816763636282e-01
2.471734929914199685e-01
1.954305408536826660e-01
2.048748481638509589e-01
2.278052292712956506e-01
2.175666856461160037e-01
2.111040544246908790e-01
1.882983434654858512e-01
2.288986948837239965e-01
2.353221587346429888e-01
2.173427958456148890e-01
1.904479591753690804e-01
2.035010072101142153e-01
1.881640984771032199e-01
1.545557712981462384e-01
1.889990162908608828e-01
1.986238576454840976e-01
2.051075072885421569e-01
1.246017166228698125e-01
1.882697163808417784e-01
1.032573483679894988e-01
9.799382377490042928e-02
9.314300391781493715e-02
1.768654587293914948e-01
1.620614074282950012e-01
1.819570900020839876e-01
1.547451955506866650e-01
1.094749592472342437e-01
1.042324383065184323e-01
1.149220549335409486e-01
1.279297275255376898e-01
4.191655727373633927e-02
1.232150335901167904e-01
5.911254218288697349e-02
2.819756957691794963e-02
9.242041148624964564e-02
1.163040443405034263e-01
6.395825110440006567e-02
8.868066344720801353e-02
6.355319887212240726e-02
5.509175978966512205e-02
2.020461394687757956e-02
6.300249952021658162e-02
4.958672133962235135e-02
1.736769530818817187e-02
2.409408179165255237e-02
4.569330139061834190e-02
-7.733166060340385117e-04
1.315301615724280559e-02
1.027289476833573301e-01
3.033452045088286253e-03
-1.619827965503641692e-02
7.550590270145629557e-02
-3.766782832990304974e-03
-1.107497509376480921e-03
-2.062493367534837252e-02
-1.322688577972869206e-02
2.149748358434218354e-02
4.773257005321096536e-02
2.653711241539993132e-02
2.713691921535173884e-02
1.864895363002511131e-02
1.396119171467133380e-02
4.489264403839902245e-03
2.574472976578319472e-02
-3.793792618114752435e-02
-6.012257404981589948e-03
-1.219080263005923453e-02
-4.299636297229121606e-02
-4.953859750242824156e-02
-1.307499946975135621e-02
-1.604853737125513935e-02
-8.508643799278935160e-02
1.784586651721360023e-02
-2.977015764401184927e-02
1.812119403016246993e-02
-5.899446281233061695e-02
2.391863665345322909e-02
-5.000376036307973421e-02
-3.993323504350752146e-03
3.057308536562913792e-03
-4.946214478464221187e-02
2.925181271252165829e-02
-1.049618227548459667e-02
-2.048080556188856122e-02
2.981530801337007805e-02
5.056164087482013098e-03
-6.908801911313844357e-02
-1.472333878015603947e-02
-1.713059462562997737e-03
-4.018588778010944579e-02
-4.035945971553083628e-03
1.728906980679164457e-02
-6.050905039973408783e-02
-2.421391991242381747e-03
2.016855540179648271e-02
3.672074318493225714e-02
-3.570840797328772576e-02
2.156955986467059411e-02
-6.259293132235201063e-03
1.282854450385021230e-02
-3.386464402541550234e-02
4.864786312099262516e-03
-3.029775764717948863e-02
2.172061724737736968e-02
7.029672614542234466e-02
8.766197959041779897e-02
-7.353302155939510365e-03
2.611289958891736818e-02
5.464401947589023201e-02
-1.792038320868060558e-03
4.438369807712658210e-03
-1.106749212496927967e-02
5.366526576979934599e-02
3.848236771543660228e-02
3.170704733290526101e-02
5.397652299545312865e-02
3.902738421021977044e-02
8.144575012134215586e-02
7.034483310416475565e-02
1.232425838569622678e-01
9.146695770541801718e-02
5.313984464197656077e-02
3.958514182525493807e-02
1.285208544349626947e-01
1.563331117602117515e-01
1.746252585321564910e-01
1.491803119938105160e-01
9.617561072261546218e-02
9.402833750524976220e-02
1.707574124028430895e-01
1.229511834397740422e-01
1.356198013614945408e-01
1.319631600032435681e-01
1.292406884831827363e-01
1.268735124133640035e-01
1.423130314441203303e-01
1.596526192921912113e-01
1.673956275967590779e-01
1.747400925932397209e-01
1.285207527187185728e-01
1.283163938291143336e-01
1.276976853062273543e-01
2.012448571631964278e-01
1.363367635443434867e-01
1.215107118375252371e-01
1.253936810732567964e-01
1.556870973278472459e-01
9.678436180954121115e-02
1.171060827446196995e-01
1.723787625231879839e-01
1.724443079494168973e-01
1.627441325397006866e-01
1.967765791585214530e-01
2.179905888827119997e-01
2.256238787386717626e-01
2.193658009452395530e-01
2.400116254462139331e-01
2.858136182383777535e-01
3.245987004543060550e-01
3.491815868146972424e-01
4.345717079753910750e-01
4.754329308299280465e-01
5.104696754559361338e-01
5.661210090434983799e-01
6.248327492074059464e-01
6.257419272281465883e-01
7.450213870282917927e-01
7.884392862190771067e-01
8.919366499608007981e-01
8.169450906654063260e-01
9.607973737858825913e-01
9.889944457402372047e-01
1.004199603916683614e+00
9.614654323081656129e-01
1.003859096522679240e+00
9.988036858610811475e-01
1.030335470645764806e+00
9.768734565426119287e-01
1.000115951108198287e+00
9.266096032414241623e-01
8.892026943207028689e-01
7.926689779500588617e-01
8.298768444096584762e-01
7.295743379328258893e-01
6.824896571089443809e-01
5.792571923921119303e-01
5.807702210820083755e-01
5.564846205054903017e-01
4.114896403217898624e-01
4.292856101579374806e-01
3.754202996222463229e-01
3.305302998032223494e-01
2.498866853736383953e-01
2.767362199599979200e-01
2.438771664852585896e-01
2.196970065741423450e-01
1.821906414715293299e-01
1.703155852864666753e-01
2.078413676466213389e-01
1.935501895603885525e-01
1.874784990025823994e-01
8.743363359430236792e-02
1.185641053291926483e-01
1.906791591021582133e-01
1.367898027555268514e-01
1.551338182582860936e-01
1.519476909237798268e-01
1.808045307688998793e-01
1.914423886168840072e-01
1.767315520210873403e-01
1.459512965001960039e-01
1.879726428562004115e-01
1.095370622953643486e-01
1.907936856398412817e-01
1.854352991228912506e-01
1.537240718191465738e-01
1.881700298414212547e-01
1.562999186569222210e-01
2.024822106274603850e-01
1.524120957070806692e-01
2.118929554617368372e-01
2.000828801701034498e-01
1.950146462171618578e-01
2.344501642782697848e-01
1.859623926353170531e-01
2.754149008475359484e-01
2.979292414356796703e-01
2.430279611495151926e-01
2.027125396469004470e-01
2.258985990542583810e-01
2.074153126286004678e-01
2.861645151813408949e-01
1.874755020683664397e-01
2.508616236701478597e-01
2.764802043866703141e-01
2.007564371719928187e-01
2.798968472604237978e-01
2.251665589678022994e-01
2.832830882697788821e-01
2.518281625119850320e-01
3.167440660063173818e-01
2.808462857286737058e-01
2.263571540093456402e-01
2.841521068943951289e-01
2.289940291950199325e-01
2.445457756856749265e-01
2.524011324429420444e-01
2.496321330109515790e-01
2.540261757122831421e-01
2.654895338649853609e-01
2.186942996899616243e-01
2.235184462702801689e-01
2.566861773116131951e-01
2.153273836154458165e-01
1.803599190327311863e-01
2.752517439656146925e-01
2.198880602343676327e-01
2.180990888795273364e-01
1.546006808021485601e-01
1.928045967810820549e-01
2.169350579932294298e-01
1.849154415330589440e-01
2.350480898327747814e-01
1.626465182043542179e-01
2.627866135364888556e-01
2.299128788233882892e-01
1.180772787786752986e-01
1.877781820779784172e-01
1.695785985555366693e-01
1.769305254933726812e-01
1.830190582393170229e-01
1.561579048911547474e-01
1.678720836600674504e-01
1.665127411968735649e-01
1.600700851722469398e-01
7.498822724920377325e-02
7.979803242577432343e-02
1.244350169499038872e-01
1.093530635460306794e-01
1.342363594974110286e-01
4.208784820846699082e-02
6.351255739773656317e-02
7.083752536379694931e-02
9.602362280622314672e-02
6.391024228097197390e-02
3.497773889623095878e-02
1.984349188963921429e-02
4.648813988315267376e-02
9.745598873457189670e-02
6.815787112446806961e-02
5.157208156222954643e-02
4.932949601212122115e-02
8.980516714164567260e-02
2.189672704821759783e-02
7.875328827963527789e-02
2.977699494884098602e-02
8.301123164313832514e-02
8.598337974588346477e-02
1.135730030173023597e-01
6.164524467215723447e-02
9.547936323332235908e-02
5.004822210448070519e-02
5.152276363458828390e-02
4.981438356188007399e-02
6.058566261926266738e-02
4.309225762645120528e-02
7.484083804932492590e-02
4.744947872672782008e-02
3.533294700462640686e-02
3.364982126984528837e-02
6.663206367813240272e-02
3.953839188949909850e-02
-1.524965431743493735e-02
4.338998708810203053e-02
7.132965904646307309e-04
-5.800828277910324154e-03
3.605912903142471232e-02
5.781662640959044086e-02
-1.487612970087653225e-02
3.079666159701288652e-02
1.588770241089562663e-02
4.682456169559497811e-02
2.434695428090178498e-02
3.310050364104957787e-02
4.859813189484732399e-02
1.070426211998339039e-01
5.826731322925025880e-02
2.296288634647767474e-02
4.144551208739001569e-02
1.299747422539347663e-02
8.752342672770618837e-02
8.466356134854680082e-02
6.286190474678780837e-02
1.790709087424372653e-02
6.781261539560699825e-02
6.409566619201098603e-02
4.243136850649666114e-02
2.908290745625729395e-02
6.277761375372656327e-02
5.780991606960253493e-02
8.303692253285230307e-02
1.060220279204860394e-01
5.741930346494811266e-03
6.326974539456627078e-02
8.100192665617009236e-02
6.262872114087537911e-02
8.107444274421320152e-02
1.134980943896170547e-01
7.515017097645651512e-02
9.898212654428678592e-02
9.721728330156756415e-02
1.638413789600918768e-01
1.675347591288003646e-01
7.717090476160758106e-02
1.544578677243376996e-01
9.671198892536203573e-02
9.298515340291947651e-02
1.584909570157304604e-01
1.689127991201268275e-01
1.350523336848551137e-01
1.591766323979509345e-01
1.386276389633006589e-01
1.482071372134634302e-01
1.812785001417173969e-01
1.855913824669903900e-01
1.000140700411056571e-01
2.008307371815767073e-01
1.318641429339557081e-01
1.986928810224690700e-01
1.889886046168365030e-01
1.789749068279566924e-01
2.256857644083763992e-01
2.227573179575981777e-01
1.858475706083275447e-01
1.486705705386645038e-01
2.110538687806135238e-01
1.585896321971989043e-01
2.060087506836651428e-01
1.798305449654346300e-01
1.809041858187743768e-01
1.961757247495032885e-01
1.930630769267576152e-01
1.806054903337326323e-01
2.095361983685576357e-01
2.340261035049719107e-01
1.659989725611235589e-01
1.803657779330375688e-01
1.876449278154045663e-01
1.903282388229792232e-01
2.720759298472996135e-01
2.038360280967067284e-01
2.747692721180138298e-01
2.166155103702269713e-01
2.218384353811866105e-01
2.810538433760869648e-01
3.050406895846199951e-01
3.338765689235743683e-01
3.780680662975282047e-01
4.155361792199622761e-01
4.344745434361209635e-01
5.157920450418392866e-01
5.428769696326491978e-01
6.467902770215088193e-01
5.797823036184477363e-01
7.001688300802355602e-01
7.930940311767473716e-01
8.294438853022882974e-01
8.824159808139121486e-01
9.460304580526975871e-01
9.478570609258950563e-01
9.814481870597877577e-01
1.038049790285436202e+00
1.024628010078469487e+00
1.025916852116623090e+00
1.091054282124146013e+00
1.093110170769882483e+00
1.050645735403654246e+00
1.032702528244980655e+00
1.011462714147733255e+00
9.997649892909385994e-01
8.727255233612413177e-01
8.566242965203433313e-01
7.921586424477410349e-01
8.121347039767262688e-01
7.654518718233653818e-01
6.967323410119397042e-01
5.484273388832960894e-01
4.717930860956786043e-01
4.767895766169955030e-01
4.375622501601802994e-01
3.975202478322251154e-01
3.481827374770914418e-01
3.418204696831806944e-01
3.492406413930578268e-01
2.403442662308819533e-01
2.683552506636931456e-01
2.297794765164024589e-01
2.859663926240918475e-01
1.295645358662104452e-01
2.778055923692813733e-01
2.072492412197240452e-01
1.697371673295773042e-01
1.778925335397327223e-01
1.965183924237746127e-01
2.469037126806634397e-01
2.324851348101578674e-01
2.282147823748795212e-01
2.295934680362880509e-01
2.065876476635574999e-01
2.212099621229993984e-01
2.209235306780025776e-01
2.258729630942190036e-01
2.312108470180937458e-01
2.601622936535598618e-01
2.420218316729818020e-01
2.637708109151732927e-01
2.148023114716419990e-01
2.235054283106510387e-01
2.533555075020393343e-01
2.639969304564605546e-01
2.356982984249479385e-01
2.684691829789307427e-01
2.097667845695764810e-01
2.010467165066360806e-01
2.995146509795297285e-01
2.877090082937115989e-01
2.833912904692630907e-01
3.208415365481354087e-01
3.191247546591228224e-01
3.050364691263372507e-01
2.681652394695937525e-01
4.046647423226920059e-01
3.662994075951385708e-01
2.294850756278413451e-01
2.791568395071499786e-01
3.395976115990620436e-01
3.125443843221750728e-01
3.271848019391316309e-01
3.023566652111175923e-01
3.050967398086972815e-01
3.204655983606384262e-01
2.616676688712056276e-01
3.043158039160998030e-01
2.793507595729566306e-01
2.894543614636193585e-01
3.030548124681476385e-01
3.220475913099752341e-01
2.881008890155795643e-01
2.678588793306315163e-01
2.314393643222325547e-01
2.977111883183380381e-01
2.443395788894593967e-01
1.838277046820819272e-01
3.309194090565730217e-01
2.600888091017776738e-01
2.317967501122996377e-01
2.420974608733373057e-01
2.052707118615663129e-01
2.749524052344767266e-01
2.811330776961493139e-01
2.590535838332219676e-01
2.935768892974144340e-01
2.120562549719947620e-01
1.811407197406644798e-01
2.070041724621571322e-01
1.910511056328044188e-01
2.022704921305020775e-01
2.011524582938992722e-01
1.667500819307735638e-01
2.115048386641188993e-01
1.963606036404588751e-01
2.019974480306900022e-01
2.444795805985433002e-01
2.302856188950949401e-01
1.446930590374100323e-01
1.179879991815869361e-01
1.561559674567085665e-01
1.060720113686516586e-01
2.510379808361439813e-01
1.394375101130325145e-01
1.149348821229006362e-01
1.315144477894976127e-01
1.749006956462992035e-01
1.343906195595623021e-01
1.204256961220511180e-01
1.367138909280705694e-01
1.567179114226801839e-01
9.518665634192735592e-02
1.169603659696041714e-01
1.217429148241709891e-01
6.425538797757246456e-02
1.193339667806182225e-01
8.894828049800884706e-02
6.814459057938448971e-02
1.202541583685432375e-01
8.538544719725332799e-02
7.157946091638228703e-02
8.087842012693727267e-02
8.818160650096615316e-02
4.357940182065135615e-02
1.032799573694952316e-01
1.773954800341689952e-04
6.049463497118217487e-02
8.132024130557824471e-02
6.184351312147168267e-02
2.997722512044065715e-02
6.718093554213587504e-02
4.208418837640136995e-02
7.497090718841512014e-02
4.427743087913363351e-02
3.780345186277283415e-02
6.850058084556112648e-02
7.724445936037867277e-02
-1.252281487509718932e-02
1.140370749028593311e-01
7.334777421295318733e-02
8.498024792769547087e-02
6.773104386090671170e-02
1.763519354753063928e-01
9.294157241934930536e-02
4.991021782586503586e-02
6.381945022638418896e-02
4.213632865959492102e-02
4.839656168112736051e-02
6.689414455548790828e-02
9.072975947936412489e-02
2.600550508511402514e-02
8.856688577699572962e-02
5.238532494012365648e-02
4.855308625434848896e-02
4.107042443187165770e-02
5.344737956524010097e-02
8.333447210627784041e-02
7.227347798684360947e-02
9.517480694324700896e-02
3.095865617496124794e-02
6.467866136814046096e-02
7.589285026699058023e-02
9.492206267837252631e-02
2.411897987077307043e-02
1.006308897026090832e-01
9.572014022469890748e-03
1.044881993636385259e-01
1.045326387597040052e-01
4.858884500950497176e-02
8.100405377611311075e-02
1.257030267090058218e-01
8.954643006366515279e-02
5.897734892519014560e-02
1.064565935489190651e-01
1.202236390244461883e-01
1.004059625269858175e-01
9.161483174103858540e-02
1.750082404112558720e-01
1.173791795601006882e-01
1.521913350160011835e-01
1.013190791240285993e-01
9.005602425488752616e-02
1.437782503487604058e-01
1.732509174722381140e-01
1.288773028447923741e-01
1.375236017333912319e-01
1.490998361217606427e-01
1.392004343707897718e-01
1.702145260371307478e-01
1.507511277894943436e-01
1.683940217284873309e-01
1.622425523954457716e-01
1.772300080170982062e-01
2.334342705818065744e-01
2.015432035815982459e-01
2.120573159595221524e-01
1.766408669384749441e-01
2.154280559083218693e-01
1.834697297948990613e-01
1.280686050928499520e-01
2.653814648758246464e-01
2.111113050580336326e-01
2.069707318098875926e-01
2.102299540908086350e-01
1.920560773800628895e-01
1.919164160053025980e-01
1.944497355425442164e-01
1.903998158405955099e-01
1.705839130569964945e-01
2.258270159785013553e-01
2.365064573115236435e-01
2.324391097704899545e-01
1.920663089595040784e-01
1.915352879867073255e-01
2.086925186430438062e-01
2.475325576140535722e-01
2.841211207675773398e-01
2.899548592055712359e-01
2.920566649014618155e-01
3.241027315497082006e-01
2.973816661282281948e-01
3.486893418395501376e-01
4.699007239438932060e-01
4.229339975751991165e-01
5.202649104852928863e-01
5.644719068441864662e-01
6.177540550989850665e-01
6.766973269284553005e-01
6.319501528747704100e-01
7.430165979304658164e-01
8.281385340646960636e-01
8.686448663365916589e-01
9.137468393707256498e-01
8.791784215588908102e-01
1.013455604281581879e+00
9.930876744361861741e-01
1.013614659737889889e+00
1.045800875552639120e+00
1.024302829073651999e+00
1.060444438079165774e+00
9.883093109758791517e-01
1.000015416484231201e+00
9.749476697773973299e-01
9.343231112703295205e-01
8.877399145796827096e-01
8.074713115947663722e-01
7.503461350067689439e-01
7.231643668982461470e-01
6.470875625084159255e-01
5.543834225144619321e-01
5.415186782619327843e-01
4.727359586705771610e-01
5.185377586004999984e-01
3.895336207729562239e-01
4.032528630084444288e-01
3.729567102146699176e-01
3.006110848720748852e-01
2.519818182743239210e-01
2.007775623566610823e-01
2.438708375346100854e-01
1.564919123862787143e-01
2.036968586200640086e-01
2.161869498115430721e-01
1.535700342118749007e-01
1.978693155627674061e-01
1.032634715455712504e-01
1.944426696608230754e-01
1.991390205114109413e-01
2.103829042903319069e-01
1.811974666030213565e-01
1.559440707420945704e-01
1.787608283061762338e-01
2.169255277075868016e-01
1.863274623528961282e-01
2.028598539444741999e-01
2.302093344640843697e-01
1.873960761816499399e-01
2.163042400661032150e-01
2.463586627468037360e-01
2.371343803287159768e-01
2.903327136379565410e-01
2.355663160821212243e-01
2.090534510969705995e-01
2.411328592995815312e-01
1.874769414964224667e-01
2.429269433222926433e-01
2.560703762189526222e-01
3.209307125006690131e-01
2.961756154409970199e-01
2.110179715625261077e-01
2.387704325307315190e-01
2.600172707705706299e-01
2.021736570295592228e-01
3.224343004728543738e-01
2.930690286988744120e-01
3.255726353358392999e-01
2.549764995442504456e-01
2.495890754667932088e-01
2.263882730184925696e-01
2.544372628994416297e-01
2.598528555393038175e-01
2.568291891947616090e-01
2.383792865786350523e-01
2.584947127283649948e-01
2.347967280593533657e-01
2.727491118675178794e-01
3.322737696411829367e-01
2.551592496699664481e-01
2.447084020264296278e-01
3.274596590591346001e-01
3.098244807815910828e-01
2.299240619183071932e-01
2.195841533638683007e-01
2.570560056596857823e-01
2.602356816646314019e-01
2.347513250229697479e-01
1.633841016613265251e-01
2.191566328445667122e-01
2.930934968934078566e-01
2.453127185739632232e-01
2.094045014950667860e-01
1.550380162394633943e-01
1.738281385712590055e-01
2.518737376034597131e-01
2.114625784720945978e-01
1.741747329109228914e-01
1.766984988231982412e-01
1.720569872809926959e-01
1.963197939611917020e-01
1.799725444667522878e-01
1.748854398516731523e-01
1.963904512716857786e-01
1.754586565024712219e-01
2.138627536845308375e-01
1.552396591330678921e-01
1.639058778671135808e-01
9.852804759107426646e-02
1.451941148158471528e-01
1.383182179341985174e-01
1.949129014344763433e-01
1.508923561139469405e-01
1.467754920715016453e-01
9.955590213083639894e-02
1.188804503621769121e-01
7.639941516092305096e-02
1.047309727612659169e-01
6.016599396887332973e-02
5.236105814839000366e-02
4.980737044340964592e-02
9.394421384824938603e-02
8.963418892676813798e-02
1.163746894994082820e-01
9.828000751435224391e-02
9.840307191707033108e-02
1.405928935161696383e-02
7.597491679142524823e-02
6.773019798209248266e-02
7.056092263188334934e-02
5.164559625023300293e-02
8.655347609296314138e-02
5.763462771159062054e-02
1.960255871641081865e-02
4.083056023053216466e-02
1.451775525389560097e-02
4.441077773684899699e-02
2.889363850491512981e-03
1.337210446620112556e-02
8.084046859997051637e-02
4.103982466964332942e-02
3.267139087963601835e-02
2.404598950822211395e-02
-3.312943802320012648e-02
5.076436447093514437e-02
4.706031374721725974e-02
5.537849623859324860e-02
4.463638767474943647e-02
2.166459875372488131e-02
-1.739038235855676177e-03
4.183867165719128839e-02
-3.922641173274033638e-02
-5.851636524951796779e-03
2.375494691375985498e-02
2.234202455991820060e-02
-1.881837638698741905e-02
2.864904424701029267e-02
1.464517969453502273e-02
4.837725259540437937e-03
8.088237457655387402e-03
8.677839418127896581e-03
1.029864110888215577e-02
1.620888670452824698e-02
6.346999846107863330e-02
-1.922242790318767075e-02
1.838440903934945511e-02
1.689848624131210647e-02
2.709440333091354264e-02
2.930932766926196836e-02
-2.988133764126285966e-02
5.710841503891347926e-02
1.109340404774809136e-02
2.289093647556286401e-02
3.442439742258136121e-02
2.964168668911349239e-02
3.514429474144011023e-02
8.824935128617501096e-03
6.205566895099179359e-02
4.821126403322468362e-02
5.510568897067379124e-02
9.042405475484353861e-02
8.196999003502689063e-02
9.088801614055166608e-03
3.796537200042291588e-02
4.341015320270802391e-02
6.019898253697134050e-02
6.303784591875258303e-02
8.645514021235839452e-02
9.681596783180357324e-02
7.414753803814477795e-02
9.972790150763052863e-02
4.441019388410125807e-02
1.131482670708095217e-01
1.064597235507813711e-01
1.002350754856431159e-01
1.204663728843105713e-01
1.405610821972647917e-01
1.157280928233858364e-01
1.342584196074486369e-01
1.432695492104118506e-01
7.312005301892293696e-02
1.391777195088401975e-01
8.254982347142293675e-02
1.311578647455909907e-01
1.185654053184366924e-01
8.646190735368843028e-02
1.094624705496170247e-01
1.488274020517103280e-01
1.580873120374046981e-01
1.555209822738896630e-01
1.296516852927002694e-01
1.183732992152759789e-01
1.529777656734442604e-01
1.133906157052972236e-01
1.367842927525315111e-01
1.407390370986064676e-01
1.136684939843998626e-01
1.197516414236636101e-01
1.633288680228192624e-01
1.135918364355718024e-01
8.406650868172323154e-02
1.672063874917318615e-01
1.502022113469225206e-01
1.230172781065939219e-01
1.483759458667354425e-01
1.675107335328980818e-01
1.977888634883524510e-01
1.947115831849175194e-01
1.772753372017662754e-01
2.504294734339980733e-01
2.104152491539443837e-01
2.982249653930034161e-01
3.485609926056383312e-01
3.353441391615799017e-01
4.178465509556401059e-01
4.199551830042276834e-01
4.943494513607565310e-01
5.014359418763237874e-01
6.398576422435476863e-01
5.737610136592857790e-01
6.505981562245044536e-01
7.973202308341744704e-01
7.623209087046155519e-01
8.454020116113083461e-01
9.308924935222594454e-01
9.303634279708061783e-01
1.008431734441841865e+00
9.423546204284828365e-01
1.028139445780394956e+00
1.008201879155239622e+00
9.858163047225706466e-01
1.019475952910453120e+00
9.587327799504780090e-01
9.375032948455193083e-01
8.743579238965468736e-01
8.631595959576101595e-01
7.415124671882074026e-01
7.537254380763307449e-01
6.955097808786457891e-01
5.903058077655444214e-01
5.595723373732232053e-01
4.531738786035891531e-01
4.687551666887752044e-01
4.532143458327329011e-01
4.143723827777188173e-01
3.420108491428068831e-01
2.910350332480362012e-01
2.385938719749653714e-01
2.150771493381585520e-01
2.179689297440632334e-01
2.064185946309245179e-01
2.132817686161682103e-01
9.963839179211399222e-02
1.264308525245232684e-01
1.060517555311880217e-01
1.474185049789441537e-01
1.011942789416678395e-01
1.766624825090261086e-01
8.698119468277144828e-02
1.035317318268829945e-01
1.076289909932105632e-01
1.394858431997910708e-01
9.866559712259839743e-02
1.244317754399942438e-01
1.214143396228040961e-01
1.250923465471436846e-01
2.092070242086093157e-01
1.164228397809061732e-01
1.306900512067113995e-01
1.604192690491252349e-01
2.016492193027609736e-01
1.463279109112646803e-01
1.514475639966919585e-01
2.207359828058161333e-01
1.309278062939614462e-01
1.486924467399657335e-01
1.919634434172100557e-01
1.170082201285900236e-01
2.059244770523081525e-01
1.904260407419544054e-01
2.517619311467716448e-01
2.301929891848719378e-01
1.612271266017618054e-01
1.626948809861262502e-01
1.892514950301315002e-01
2.626344132454271341e-01
1.979086102830484306e-01
2.397088296378095118e-01
2.400505336532079426e-01
1.940721991871538488e-01
2.523702241500104249e-01
2.061879675930413103e-01
2.214043682195818152e-01
2.228953661573937206e-01
2.099022971261976234e-01
2.063472784744685429e-01
2.834199267795006194e-01
2.219752741495280846e-01
2.001361195959184269e-01
2.068999422537438349e-01
2.098302432950592544e-01
1.784314579934988820e-01
2.258872926389337288e-01
2.418118069035320450e-01
1.512144052091495550e-01
1.616213350687887851e-01
1.840583386641354846e-01
1.816348928636282722e-01
1.845577663029155380e-01
1.305571923108153898e-01
1.543828500086146249e-01
1.540319119715658491e-01
1.622099542828217833e-01
1.451631620345494589e-01
1.912363689364669217e-01
9.810290898025827988e-02
1.293880939739119051e-01
9.106126107955050952e-02
1.867744590268267391e-01
1.138978400017295056e-01
1.233322086053020572e-01
1.200006851253798967e-01
1.035032864085094761e-01
7.692062705976790427e-02
1.277117191779527094e-01
1.385051640009192231e-01
1.277523255741573049e-01
1.106039226492798178e-01
6.814156775292512513e-02
1.291587710469433159e-01
5.738838663262786632e-02
3.761413986078022270e-02
7.289474855027655575e-02
1.033430982775866286e-01
1.139407917779665380e-02
-1.036228121927766643e-03
7.217418976125938856e-02
6.190525373653615882e-02
-1.378718550535790871e-02
4.493062618109290585e-02
6.194341498493278336e-02
-2.323843634412307152e-02
-7.924856992647180687e-04
2.429590192509969299e-02
3.333684423202806779e-02
2.132985323388423421e-02
7.339702086702988570e-03
-2.583428098677239756e-02
-5.144697308032587790e-02
2.551913147679592958e-02
3.373113199919645921e-02
-2.600413679106891585e-03
-1.205984472438643984e-02
6.102519602859762804e-03
-2.833327901844308327e-02
8.768478608914762051e-04
-1.320996364893939345e-03
5.529042531326119891e-03
-2.627826257011364047e-02
-1.692899706460358755e-02
-4.984850223932746349e-04
4.734068941466122726e-02
-1.920549703982290385e-02
-4.210132060568860801e-02
-1.513696352207027224e-02
-4.246360500999819126e-02
5.550320493193268423e-03
1.599154736845867508e-02
-6.047798227905958751e-02
-3.904690331244699969e-02
-5.537607530882714818e-02
-4.068171002719202234e-03
4.476268471999325649e-02
-2.468881144174540215e-02
-4.594875159478058191e-02
-6.001838015249616465e-03
-4.208116201902883935e-02
-7.796383357774862299e-03
-6.392521134808620831e-02
-6.374783913890998133e-02
-1.577541379708113922e-02
-5.128808083403572221e-02
-5.019077459801630364e-02
-2.553974556661869205e-02
-4.211706384912049239e-03
-1.412979246568039915e-02
-9.897836476445091847e-03
-3.755430058084911066e-02
-2.088760717199548630e-02
-2.835970676188235770e-02
-3.705588543078028319e-02
-6.268637830706844105e-03
-1.650509018543232231e-02
-2.620857735649760600e-03
-2.744933579190100142e-02
-1.722037255672232564e-02
4.736181035900149938e-03
-4.721379951166531502e-02
9.176467860907741581e-03
-1.503520101371325773e-02
4.073217208002261058e-02
-1.949408503007349011e-02
2.575503153189505345e-02
1.960346197775158367e-02
3.217214522929476295e-02
5.378393158038029254e-02
4.352950338468438568e-02
3.356001425269291433e-02
-6.892677470735457390e-03
-1.221631583843616614e-02
3.518670305910080731e-02
2.271031889338272908e-02
9.657389511222441714e-02
9.192413567237861516e-02
1.653019326267199385e-02
4.539322439630206346e-02
3.429387108743198881e-02
4.852722501126724430e-02
1.428648347759881032e-01
6.846171896010291857e-02
4.790158819967015730e-02
1.336806735197119123e-01
2.070933135456856644e-02
1.110995509312119600e-01
9.016634096388173591e-02
5.908205822658802592e-02
8.422676927411638925e-02
8.465665611202771723e-02
1.278773566825363583e-01
1.237937264727294873e-01
2.610091066565664586e-02
1.373342082208005022e-01
2.527575185570871824e-02
7.674054303388420928e-02
1.129395734277526542e-01
8.911905644762982415e-02
1.096865931603654420e-01
1.375954928017735224e-01
1.514777962465725103e-01
8.609939570994083746e-02
7.925353101927579136e-02
1.339006561784053528e-01
1.411491711795221371e-01
1.494450481063128167e-01
1.370971855392830452e-01
1.593435827830061990e-01
1.122288413126628220e-01
2.010251466741258541e-01
1.872217296632471273e-01
2.089959980355689251e-01
2.346130052448892056e-01
2.234790756938809797e-01
3.222325468017277483e-01
3.512232973705116668e-01
3.195347888244253198e-01
4.208476417312861373e-01
5.139572255979268922e-01
5.603733113189599546e-01
5.663152172560652620e-01
5.738815359311568720e-01
6.791732483299965928e-01
7.697374912240043665e-01
8.073394582797178698e-01
8.223379869962299527e-01
8.948492977905866397e-01
7.902290351815448588e-01
9.051721966112700191e-01
9.481504936016922347e-01
9.721933592046667627e-01
9.631850209911122507e-01
9.902950990180408031e-01
9.605992218171299779e-01
9.358755179820409387e-01
8.871603042668542161e-01
8.151375325284102580e-01
8.131341374889150542e-01
7.162258601863161767e-01
7.408674423702145129e-01
6.017936550966436204e-01
5.749336418101052004e-01
5.715173456151845244e-01
5.128429198280988199e-01
4.379071109004015194e-01
3.328770849312566726e-01
3.371817192565843002e-01
2.563960393258052362e-01
2.680056785254760765e-01
2.440079605161790677e-01
2.221477590536136415e-01
2.146746062058685622e-01
1.239641416369673954e-01
1.151135729562544757e-01
1.290004579434893550e-01
1.405255008163887043e-01
5.786818241078298120e-02
1.273923989575323212e-01
1.182473965705530816e-01
9.427522021999183710e-02
1.173073635121636149e-01
1.058022268265128851e-01
1.364161616114916986e-01
1.344488102430487497e-01
8.393226006474807654e-02
1.180388842232289182e-01
5.763702489741515111e-02
1.030750844169897595e-01
1.433658367440154846e-01
1.321582386642247420e-01
1.173752665280591717e-01
1.095941302896301650e-01
1.357910877419563622e-01
1.104754743841492026e-01
1.680847496005464237e-01
1.666480348065102479e-01
1.132463845786885054e-01
1.699726428053641436e-01
1.706782604462687147e-01
1.440187392147274648e-01
1.425444166861929429e-01
9.501648848010901816e-02
2.109212977590889659e-01
2.464842695332718492e-01
1.586189938257076548e-01
1.589148374643966077e-01
1.730436226949388367e-01
1.938924510642562049e-01
1.550351722549166422e-01
1.824012930906065699e-01
1.661574445084043894e-01
2.344755198812701336e-01
2.194712199948360976e-01
1.983506912789564924e-01
2.179043981270190333e-01
2.150878752539244210e-01
2.243260643130829401e-01
2.266744686405417486e-01
2.065522789115943336e-01
2.187730249451822206e-01
2.262541688775624726e-01
2.066915717404250175e-01
2.229218379010635687e-01
1.719260695017088558e-01
1.829391882411312009e-01
2.143970318641731654e-01
1.777111068081639045e-01
1.826846947026665446e-01
1.826097016451515842e-01
1.384047142319284052e-01
1.624171140291692794e-01
1.329365359721778883e-01
1.761273159556490386e-01
1.571588766116054081e-01
1.032627945133952341e-01
1.222973166288346819e-01
1.683322445140620072e-01
9.105939588926681427e-02
1.271858233994566378e-01
1.666482570662160823e-01
9.558773796570624315e-02
1.449647252819412369e-01
1.567338583072662161e-01
1.019823080187359787e-01
1.181368958393412827e-01
1.076227052120279637e-01
8.205932670847854160e-02
9.842254367581852736e-02
6.712776259048748584e-02
6.226300696614155833e-02
4.144997006134693712e-02
4.391338921178677968e-02
6.993273974365715739e-02
-9.735982148521178658e-03
2.287938685620449081e-02
6.116243579480623582e-03
2.140768550210457588e-02
4.286423234384396930e-02
-1.135755522286394786e-02
2.403847351305311852e-03
4.520454890527317304e-02
5.980264259544567501e-02
-7.530165796641938303e-03
1.752886576989158562e-02
3.516240129586556407e-02
-2.146489965393146709e-02
5.987515970241900909e-02
-1.232981045928279590e-02
4.576663288458053536e-02
4.100250361263220455e-03
-6.546068130677297481e-03
1.476921794627976403e-02
1.681724548544391573e-02
-2.994478669428904047e-02
3.301625040534349187e-03
-3.346525870318931006e-02
3.066540466289058298e-02
2.996627991815978276e-03
-1.437071836863661883e-02
1.494998501965608823e-02
-2.762201309210009920e-02
-5.948308033175574161e-02
-4.034814185011695309e-02
-4.846716662551851795e-02
-7.890531240107151456e-02
6.157123712116963077e-03
-5.450374700928298927e-02
3.531951234561919728e-02
-2.896100107535359153e-02
-4.968207877953252638e-02
-3.768994512822362170e-02
-2.873753524039127094e-02
-3.212035749976457216e-02
-5.358269147449096215e-02
-1.717846508706260406e-02
-2.418867407009350767e-02
9.393701943028465173e-04
-1.710441264561223668e-02
4.400106293685594055e-02
-3.248227112615872242e-02
-1.797439140686433318e-02
-8.590615124502688771e-03
-2.885843523358822341e-02
-4.932280289100472032e-02
1.624450324055676242e-02
-5.313651634714328109e-02
-2.451513944638166950e-02
-4.553999249467403226e-02
-5.540001728354344845e-02
-2.169460152119482427e-02
-7.932914767298970132e-03
-5.942891865488304781e-02
-2.276890410908326279e-02
-9.834188313278955512e-03
-3.477015763989101810e-02
-3.004727277483340217e-02
-6.620199087221258216e-03
-9.080713857189250809e-03
3.433167717974860977e-03
-8.498226861963359413e-04
2.961340804204076055e-02
5.830231865268598046e-02
2.172781602150994362e-04
5.719206874734102108e-02
3.279783680987985450e-02
3.034768727630199336e-03
2.545251479183759796e-02
1.452493165870924474e-02
6.940875393826871631e-02
6.818977303852502558e-02
9.607112730022397684e-03
4.476113416018193125e-02
3.674886608930210546e-02
3.948326521144672474e-02
2.344439815470435867e-02
8.665964364324188485e-02
1.350449330335714571e-01
1.201969711352057074e-01
1.391324258316669893e-01
3.936058049284962834e-02
9.700407351175355242e-02
1.325466136886541690e-01
1.019755133625401822e-01
8.420020836820604759e-02
1.290886684428228237e-01
1.301458365834717301e-01
1.016736197650843498e-01
1.000134158886977626e-01
1.332026723093792109e-01
1.476287014807451392e-01
1.047677859158248070e-01
1.531295048677864812e-01
1.643384728619446400e-01
1.081319317262819935e-01
1.146577365838446078e-01
8.906370066080723791e-02
1.694952868199072482e-01
1.219345618527745284e-01
1.335942297376688792e-01
1.728296596511214589e-01
1.052716149351921454e-01
1.259003265070857691e-01
8.969451981563979215e-02
1.069658401344181498e-01
1.172074686606691951e-01
1.741544795855177463e-01
7.349697028821433609e-02
1.718130839692260659e-01
2.001589484073935665e-01
1.658363394250297329e-01
1.785022157622427885e-01
2.343137820910332347e-01
2.472669795404854876e-01
2.510242550269058959e-01
3.386423445595065362e-01
3.467414591452922523e-01
4.336772123411397617e-01
5.007744278158605677e-01
5.247793091666458354e-01
5.537173460567886840e-01
6.099367963304780371e-01
6.258899292167007244e-01
7.373518821517182076e-01
7.928067762631209048e-01
8.461508701709890001e-01
8.789242541176324197e-01
8.900140345329166092e-01
9.453192107050019111e-01
1.001814792114549046e+00
9.367132270923841375e-01
1.047515511144027522e+00
1.029975215387987975e+00
1.050170035613503305e+00
9.298914673757204818e-01
9.397279499771020728e-01
8.767760011561440692e-01
8.602268363296320386e-01
8.177515744344008297e-01
8.071308629437299320e-01
6.819050782103673880e-01
6.534804157544694680e-01
6.536984830536786140e-01
5.749701976162735484e-01
4.978172827256543420e-01
4.128760076901241138e-01
3.813296245428748898e-01
3.486610412957849015e-01
3.059631467489202228e-01
2.650619800883704524e-01
2.264992697079263595e-01
2.689404068472037723e-01
1.788070729229796485e-01
1.530635256167071356e-01
1.436521135110710445e-01
1.908169172004301750e-01
1.719403315049171377e-01
1.460358742965069956e-01
1.140060171663631605e-01
1.402035136743894073e-01
1.781758557968745882e-01
8.823250938085699935e-02
1.130320347490743338e-01
2.098481377249785118e-01
1.510762163671038605e-01
1.926943342945608983e-01
1.883296230130114546e-01
1.347789068804974288e-01
1.635679879224613276e-01
1.354036968529953033e-01
1.748489426359037813e-01
1.586546152138899601e-01
1.774363354330036058e-01
1.678593619096772072e-01
1.645566369337920221e-01
1.446902368357545487e-01
1.513384438270805321e-01
2.505356109054701075e-01
2.663821462789326411e-01
1.877141845268011089e-01
2.928906342061291523e-01
2.481319973363379505e-01
2.227335036439083704e-01
2.532213372460375700e-01
2.063669931873813590e-01
2.353373191970013767e-01
2.195885411931090825e-01
2.238011306130145983e-01
2.468304697932480196e-01
2.105966563435657801e-01
2.428198680381008223e-01
3.030082619425500945e-01
2.538093835941672705e-01
2.655949164462735879e-01
2.027612761791070251e-01
2.431435836061281719e-01
2.447092164020980842e-01
3.244918660049684878e-01
2.329325971480006308e-01
2.703380349462597976e-01
2.878763094660996003e-01
2.286653045216066049e-01
2.140890580395373721e-01
2.481102519680646323e-01
2.287951024417117507e-01
2.045258042300480417e-01
2.490537966113681445e-01
2.812283237512154810e-01
1.997794557940681115e-01
2.497159263174143773e-01
2.065059287451406211e-01
1.972802882821993453e-01
1.903126431750654657e-01
2.317268227312827555e-01
2.396698954961262729e-01
2.001046275601041369e-01
2.304630258164882262e-01
1.918871245004876158e-01
1.488481503791669047e-01
2.225248186523108296e-01
1.777626367829353293e-01
1.843189718872789429e-01
1.665174675859528997e-01
1.253250276472725189e-01
1.272809882616792732e-01
1.596201770506647521e-01
1.186958101114381769e-01
1.539851447341962498e-01
1.073719493113972079e-01
1.079738747720959680e-01
1.462305287070484183e-01
1.362713734452930814e-01
9.119280199558296718e-02
1.160909373112871124e-01
7.461595205026742839e-02
1.215040108704816962e-01
4.015600709877395480e-02
1.065883031092222377e-01
5.419356625070890360e-02
4.474608934164182872e-02
8.426995387616811883e-02
1.465240377077146328e-01
1.377638208497740935e-01
7.989184521203937517e-02
9.901430371374937700e-02
1.079577348900066930e-01
4.555343850016899121e-02
7.204344207235849340e-02
1.008763300294833187e-01
5.497465567444936863e-02
5.698406047390773554e-02
8.889709756534056040e-02
4.299194670647786543e-02
5.474839097814006295e-02
3.021200581862834578e-02
2.055233337883616979e-03
9.396026745181976225e-02
5.521235864923098452e-02
3.148383746420524432e-02
5.104333388464828841e-02
2.894675321387945102e-03
4.962875492632369545e-02
-3.532756089353416423e-02
3.379923814208994626e-02
1.482018039672178267e-02
1.624092450402188012e-02
2.835225976012859320e-02
3.011868501857913050e-02
1.723715473061924325e-02
1.753426380246101909e-02
-7.929519159300960768e-03
3.243081698884188457e-02
6.218991476736820956e-02
5.804250177915280806e-02
2.813356723754378494e-02
6.516441141323149611e-02
2.818556098821698233e-02
5.189385862748973482e-02
1.672203813450310467e-02
6.689699821411043690e-02
2.528616432746341736e-02
5.662354904822065882e-02
1.635121411519470380e-02
2.480708001042496863e-02
3.385468932596957109e-03
4.811448136222851168e-02
2.213215865133958543e-02
6.620268449093880125e-02
7.441308253308459575e-02
7.565812589197698501e-02
4.448221631268670095e-02
3.449657117955459706e-03
5.440362195516815214e-02
-1.616586247469984153e-02
6.475436445560561749e-02
5.795748808872477897e-02
2.422897410354633851e-02
4.659027395078890049e-02
4.578287270715558632e-02
9.073967448016073689e-02
9.256084310750140043e-02
7.746130020938797600e-02
1.002813325303771597e-01
4.845481543521519552e-02
1.542548032160906135e-01
9.838572381778246112e-02
1.136336308397149081e-01
5.808086607508369109e-02
1.078813111443663320e-01
7.628146579985592424e-02
5.766769069639170187e-02
1.094081680973444937e-01
8.126460143462330143e-02
1.119534264549759822e-01
4.261427138391545716e-02
1.365237455658728782e-01
1.216123898891933452e-01
1.882725001865654391e-01
7.687737331510721694e-02
1.316801015095441785e-01
1.886145297887674155e-01
2.006845015656776032e-01
1.862835962708098148e-01
2.141930177593713569e-01
1.783104655458554733e-01
1.484167512494197483e-01
1.629256826785788204e-01
1.562549324732999401e-01
2.001486195563557668e-01
2.009079075497910427e-01
1.707876944265563912e-01
1.974661835899451656e-01
2.247085024211679938e-01
1.721720366819748937e-01
2.169599603742356497e-01
2.481533546079925101e-01
1.603711376395182131e-01
1.933206127746825709e-01
2.249108743613950356e-01
1.364439143836256307e-01
2.411528220844084136e-01
2.179873581229898882e-01
2.209224911430621163e-01
1.584074073047692932e-01
1.924844679456763075e-01
2.112447053612944714e-01
2.585811467730739222e-01
2.197867776912988957e-01
2.296023968817732241e-01
1.679143512328355459e-01
2.199504557875702204e-01
2.824266422143750788e-01
3.237887103812283063e-01
3.655947839602095573e-01
3.105091368031673293e-01
4.097723395043960104e-01
4.544135847413254825e-01
4.582453794944184033e-01
5.414340725511433972e-01
5.926784769440236467e-01
6.758362421706262113e-01
7.107460674042946902e-01
7.719940958450142166e-01
7.684663561433807688e-01
8.351855422881053759e-01
9.182671853515189664e-01
9.543363278799750216e-01
9.788893326144405549e-01
9.726891710126808199e-01
1.052910155969764006e+00
1.080979288330379484e+00
1.039259411516727738e+00
1.052010658737162041e+00
9.778931306679483626e-01
1.013640112912207680e+00
9.867830863907832706e-01
9.044927774711788437e-01
8.969140587545119114e-01
8.271373629599579891e-01
7.074323506166619868e-01
7.168817216716031337e-01
7.348551870595205759e-01
5.712068592750826346e-01
5.848497287518774623e-01
5.557184298337263240e-01
4.904158340217212864e-01
4.200808901129826634e-01
3.256628447970046358e-01
3.594439719611645101e-01
3.700041945897374340e-01
2.771370145212175284e-01
2.937166093198032013e-01
2.136972437861607010e-01
2.336701400454566091e-01
1.955595271379061695e-01
1.955774979794430157e-01
1.137885290184840470e-01
2.266222411475583010e-01
2.514472282954647309e-01
1.773202014810286720e-01
2.522849517429898158e-01
1.835971489535215273e-01
1.706987958246186377e-01
1.966728945315264210e-01
1.951578036108255754e-01
2.166836182826574198e-01
2.590940820945918377e-01
2.251676220978733323e-01
2.417872574465558810e-01
2.075420068755169378e-01
2.074200347893526142e-01
2.505945850817321574e-01
2.724071153296331871e-01
2.410174533906223604e-01
2.826618915021834599e-01
3.316101972319594471e-01
2.628532506087284393e-01
2.842637282010721522e-01
2.983859794014697697e-01
2.309332463745851771e-01
2.607013406431633595e-01
2.771225303091178205e-01
2.478999325661607189e-01
3.141504514693285732e-01
2.431482933878057473e-01
1.885136228689566484e-01
2.711759124462106985e-01
3.773375617035090168e-01
2.214102372307631406e-01
3.963731963987541795e-01
3.114691547880306111e-01
2.696227847963555413e-01
2.718111887616854183e-01
2.953129825772589090e-01
2.908197232915199493e-01
3.513434953668258531e-01
2.856883913627793481e-01
3.209281110100888901e-01
3.088629775312034531e-01
2.672566095692691102e-01
2.776910910531941168e-01
3.096060434037961606e-01
3.076998161504247986e-01
3.266358850410776005e-01
3.196427669827838214e-01
2.975482828482466369e-01
2.538628711091388546e-01
2.731594965811908193e-01
3.070175501326977696e-01
2.520610791829468456e-01
3.066013909029746687e-01
1.933308260640359266e-01
2.550370680401091716e-01
2.514114913417999642e-01
2.393337174128469802e-01
2.263778732419289008e-01
2.353473987346846596e-01
2.736686455275681995e-01
2.315119705188248278e-01
2.281366700831587713e-01
2.034060024024194890e-01
2.048931059048644809e-01
2.294543181574798807e-01
1.953097031143384843e-01
2.462706877332617172e-01
1.817964618885930250e-01
1.520270080328166573e-01
2.041327601891837484e-01
1.869547400574236018e-01
1.753207610303297859e-01
2.136504408006218159e-01
1.615753227478826104e-01
1.406988224632549911e-01
1.511660124893207946e-01
1.125269712428151603e-01
1.646905154434840091e-01
1.412488904963277725e-01
1.089971803204393824e-01
5.013999879468938881e-02
1.260789261748864465e-01
1.725036041895597061e-01
1.286444843951451422e-01
1.621547622991209026e-01
9.753120212877432194e-02
4.414704948220616459e-02
1.304373390293070978e-01
1.317357724629260318e-01
1.201562822380718709e-01
1.988434872964714439e-02
9.289439182422254415e-02
1.393674354576992513e-01
9.344002448872418265e-02
9.642343522057859884e-02
8.370193573199738446e-02
9.362573468452410619e-02
8.861721869935265672e-02
5.476533230495433946e-02
5.007917337401365798e-02
6.928998788554666111e-02
7.817595175171436483e-02
7.954270857828241170e-02
9.067452511957642403e-02
1.545733827425318507e-01
4.055750178221162461e-02
1.044574497768318289e-01
1.718082540544041414e-02
4.121886793784640401e-02
4.835857751136150157e-02
4.998958192419684921e-02
3.761899868556146942e-02
8.899200517249275522e-02
9.547131407925291136e-03
5.679821001671395142e-02
1.733908061281167617e-02
3.182375263923463427e-02
5.413642000499859636e-02
6.812603002023506771e-02
1.134552670611498337e-01
7.843627353367756128e-02
7.117778171115882180e-02
6.012839446550060502e-02
9.680534870374692125e-02
6.468474803990527378e-02
5.452301306253071189e-02
6.062496778076453818e-02
5.420103440558957791e-02
7.158226305786100085e-02
3.947251083281629741e-02
1.364277962930912080e-01
4.116259686688759217e-02
5.708186518269248166e-02
5.953019184748897796e-02
6.955299644148818516e-02
3.261322742924306628e-02
1.710552607333198916e-01
6.785503015960482609e-02
5.251537609178155708e-02
1.101672649294526823e-01
1.217153779070258846e-01
1.180117126659191717e-01
7.596802535770569298e-02
8.988238247489135913e-02
8.240172939670259433e-02
6.593631316947981547e-02
9.837694818207315395e-02
1.439535827765953124e-01
1.564753487819555422e-01
7.518502805247788412e-02
1.382009013941185305e-01
1.091166359111036821e-01
1.240675759173708592e-01
1.049538582045628499e-01
1.462106773896594270e-01
1.004871460336120431e-01
1.878373068818060543e-01
1.320513060672648953e-01
1.890208671097551862e-01
1.662588255400429538e-01
1.208442107924811992e-01
2.119870514792967509e-01
1.861364493798806641e-01
2.312635031163025046e-01
1.506294494521103200e-01
1.795852977326301558e-01
1.899667359603677830e-01
1.789773595354886282e-01
2.160651974503779438e-01
1.894216115262485345e-01
1.678698698691015734e-01
1.669177225838158474e-01
2.092224756993933676e-01
1.738445205553229567e-01
1.867257390850100840e-01
1.598065326026669730e-01
1.657737944443152811e-01
1.927033321096443541e-01
1.928593598988342372e-01
1.581464836835594356e-01
1.696275485146208906e-01
2.288589933526361531e-01
2.129468047895804461e-01
2.220836018211827523e-01
1.893606671275782916e-01
2.512897926306137397e-01
1.805897054169068872e-01
1.648009554723155745e-01
2.761330465809934132e-01
2.570820338305484509e-01
2.969196215740389500e-01
2.346173754232672160e-01
2.820571582993669502e-01
2.929719848527338466e-01
3.397672792043862078e-01
3.095002391216086779e-01
3.821983532813146844e-01
4.145816357387298590e-01
4.363431606517359507e-01
5.240255645327011047e-01
5.609457905839171366e-01
6.326062992357206483e-01
7.233636688308697771e-01
7.555219817177217800e-01
7.833400372413805712e-01
8.104320582280325480e-01
9.176844005348132605e-01
9.885318712170902966e-01
1.008614621066714845e+00
1.050459065665588332e+00
1.055471759110956587e+00
1.056042215763089542e+00
1.045803959817031004e+00
1.059221974221228990e+00
1.029317564457451706e+00
9.909792699189595711e-01
1.057185329207111835e+00
9.621311384584881887e-01
9.332041677306351923e-01
8.558591041973832025e-01
8.584243225026200186e-01
7.559549014623513363e-01
7.061869577378697693e-01
6.628152598876404511e-01
6.045784565701625146e-01
4.911234403287890182e-01
4.705925216219865037e-01
4.793028820445104921e-01
3.844506980143313490e-01
3.383924933588269290e-01
3.116293683915507540e-01
2.783042601934764826e-01
2.632440195815123340e-01
2.393464603245404332e-01
1.931813926322004937e-01
2.040119237880357872e-01
1.797682034019627006e-01
1.953827034845196653e-01
1.487355476237209873e-01
2.373517889348753795e-01
2.133898841352626086e-01
1.900537217635268616e-01
2.012824534517029251e-01
2.114956066583809635e-01
2.006516752808182036e-01
2.346360661539819148e-01
1.976437486130494248e-01
2.016217020836862939e-01
1.914103794833277306e-01
1.929286708158458596e-01
2.471174302711163506e-01
2.168237430990553327e-01
2.379798385416427575e-01
2.061144916603721844e-01
2.477583784795911181e-01
2.241797003376628794e-01
2.381908413179262829e-01
2.217483398019526875e-01
2.973491612347232138e-01
2.467872222056973208e-01
2.559687936235024441e-01
2.626689101751876754e-01
2.187280830704125545e-01
2.596529794746535447e-01
2.650981342615305603e-01
2.267170735812148730e-01
2.675125471373865360e-01
2.464556813949370095e-01
2.944586166526267923e-01
3.105108362533404720e-01
2.997716731607348306e-01
3.032576615321342373e-01
2.940749847509558368e-01
2.520759007190765955e-01
2.696822411325513480e-01
2.543630140653340699e-01
2.733433585951534073e-01
2.483654434026420776e-01
2.685029248337119645e-01
2.631391449864786680e-01
2.356598569689723477e-01
2.947019201291943280e-01
2.638822046039785429e-01
3.144692784953134757e-01
2.867187338438395017e-01
2.580081636426070357e-01
2.810923811927615312e-01
2.917443092538533622e-01
2.184456834783443380e-01
2.464899770558552361e-01
2.038391226249376131e-01
2.230862560713781917e-01
2.539750215634243857e-01
2.842746463835507109e-01
2.510418354332359381e-01
2.083179742543583013e-01
2.278562200350157663e-01
1.854206198104030590e-01
2.063668450501896234e-01
2.618562424944005373e-01
1.519962022233823928e-01
1.637201566200138791e-01
2.160093721254501553e-01
2.268765364259710537e-01
1.751008374423680403e-01
2.031966679834734946e-01
1.880645901941286058e-01
2.000918090795871240e-01
1.022019083189120298e-01
1.885258733615397808e-01
1.965977261721880698e-01
1.742853461524818404e-01
1.406857311784531217e-01
1.764573099460849948e-01
1.407590919627547676e-01
1.930950116576126141e-01
1.383160618368205474e-01
1.493615381117563978e-01
1.241936901940714488e-01
1.412929705348245635e-01
9.853440837909158145e-02
9.975598169251276293e-02
5.352800232590086693e-02
1.077673493937599675e-01
6.080251546626219694e-02
5.602945288184170425e-02
1.506744900193797976e-01
9.610637905646110535e-02
9.977103932000783160e-02
9.307331830699466790e-02
2.791826176786526767e-02
3.340443380659448291e-02
4.368271398093256930e-02
8.175575714325850063e-02
8.132767930113109223e-02
1.660905736595738244e-02
7.070017533395689391e-02
1.299236120456455368e-02
2.156247579279938972e-02
3.634574782245932056e-02
2.347634665401959406e-02
1.086697254418361042e-01
4.561380162588922482e-02
2.435336642004390026e-02
6.820647695040171765e-02
5.271651049273469447e-02
4.262284167620164488e-02
3.705826426252592509e-02
3.471034615215252972e-02
2.470413868746775682e-02
2.482297574150454239e-02
1.980511044227792339e-02
-4.251730818326783512e-03
5.908461954909495495e-02
8.655603393507155241e-04
3.590138583804620975e-02
5.874607018510573375e-02
4.512602537368706757e-02
5.802368407191997590e-02
3.349593162541462943e-02
1.995197177939476291e-03
7.298550546749316137e-02
2.002231923208772080e-02
6.003258041797970845e-02
2.634479451057830657e-02
4.301972551839623043e-02
-9.303817333114777766e-03
4.759648338859524125e-02
5.867611301517937361e-02
7.097763468521084765e-03
1.436583420112149366e-02
1.488229878026663643e-02
4.339167614936701584e-02
-5.838674471788041220e-03
6.730606042287429203e-02
-8.577028728555261688e-03
5.989236464785057529e-02
4.491060729966139808e-02
4.879003932675286814e-02
1.972230704339365814e-02
9.306500789164898202e-02
1.210888613414291270e-01
4.678282590946877817e-02
3.972988881639272218e-02
7.979376737969505473e-02
7.637130408925768554e-02
9.035877241676626426e-02
4.225941768725383074e-02
1.044529098906553932e-01
6.949709373344231667e-02
9.269515758065638433e-02
7.797761451203739924e-02
5.852105338241422178e-02
8.146677011395879464e-02
8.154016138333208819e-02
1.262052536795299218e-01
9.722937697143688163e-02
1.046551807241240389e-01
9.857417541268795325e-02
5.502689145656291386e-02
1.611412684425299335e-01
1.369504799936651918e-01
1.391644173426059561e-01
1.350398309689450904e-01
1.090841905297396663e-01
1.347953806945902944e-01
1.327309512200267605e-01
1.264178561583207405e-01
1.464429107357227977e-01
1.211212208037197868e-01
1.410474018516355288e-01
1.679946378150264930e-01
1.561619444870181173e-01
1.708282606749415844e-01
1.642233950451994495e-01
1.368839625200196919e-01
1.367024277679844690e-01
1.095119146340677307e-01
1.561808439569978835e-01
1.536055137428346262e-01
1.891715920503766746e-01
1.585384848430079763e-01
1.333547822815618900e-01
1.504823906754219343e-01
1.761680714286140981e-01
1.980367372012057370e-01
1.672578715782573056e-01
1.605147604680556561e-01
1.668812160461979333e-01
1.993236812473425934e-01
2.012974745235915075e-01
2.642594983758353444e-01
2.361018866352412593e-01
2.277192499372345247e-01
3.645692163559655641e-01
2.868462567936838070e-01
3.659535825847249346e-01
3.954420511324515664e-01
4.069585782444833932e-01
4.647934196387580319e-01
5.416494828529145877e-01
6.319338799501136306e-01
6.378182217024450651e-01
7.484696593443351809e-01
7.750728366802088765e-01
8.280675701553465995e-01
8.594804432988073506e-01
9.293456671250461820e-01
8.952717587654526188e-01
9.798587048316231840e-01
9.695964043016710443e-01
1.040523063385365710e+00
1.060009535415364246e+00
1.003953041107031874e+00
1.018998162058544210e+00
1.017245215154368054e+00
9.892071276284550851e-01
9.260034434595240116e-01
8.797618046813054926e-01
8.515335577582073823e-01
7.641806724423374497e-01
6.935928676951405025e-01
6.346490989117579140e-01
5.959196915273747841e-01
5.451377699574719848e-01
4.222843609722470859e-01
3.778050734912283826e-01
3.669099356269727719e-01
3.502440146419971145e-01
3.039482720078537925e-01
2.757167112220320071e-01
2.806240479810800936e-01
1.554678925104243381e-01
1.509033525990693958e-01
2.357510246859899072e-01
2.338178980859226264e-01
1.245708235378373274e-01
1.203348785682874095e-01
1.556691975517146553e-01
1.558124614429411969e-01
1.320432835407844840e-01
1.055932763633506410e-01
1.121805566077953287e-01
1.545224093922298314e-01
1.090216100288431689e-01
1.437458137785030954e-01
2.069747704731950688e-01
1.840210688883299472e-01
1.635781931898656616e-01
1.863339819927844476e-01
1.839563735170189618e-01
1.813806887057080042e-01
1.884336564992168672e-01
1.837035355082475840e-01
2.211200105448541953e-01
1.969565893252432365e-01
2.342213808228977290e-01
2.004220300982139102e-01
1.691646354262481555e-01
1.978353051321285472e-01
1.809999558664548980e-01
2.314122398288845361e-01
1.987117359695940721e-01
2.022500486967493960e-01
2.713632599112549282e-01
2.443445843210773905e-01
1.971494089211075773e-01
1.967873675841073089e-01
1.752508235600477859e-01
2.036827906751705330e-01
2.351733625816117834e-01
2.846208783475378534e-01
2.021287970071808104e-01
2.147032134650178059e-01
2.227499603670843598e-01
1.912005335688610752e-01
2.208752246432129918e-01
2.084180948856201865e-01
2.386877150481059306e-01
2.573391698445213760e-01
1.997035432264940014e-01
1.879456031557095452e-01
2.059822401307162265e-01
2.374424498125065341e-01
2.167701649434654043e-01
1.753306052338402532e-01
2.152569616171003397e-01
2.208457034442760092e-01
1.820319917906950691e-01
2.020844518087737962e-01
1.797078714885992912e-01
2.102265768894958087e-01
2.020230857533880098e-01
1.969419141282348074e-01
1.424244829211531727e-01
2.055361928050643827e-01
1.842151952396716696e-01
1.332751027230984486e-01
1.870016685359460473e-01
1.791606590082121531e-01
1.630461780191680421e-01
1.684241354119759837e-01
1.962186216727906385e-01
1.716036890847331131e-01
1.670913417107953991e-01
8.541360083636270750e-02
1.141279776904874366e-01
9.827909229498266175e-02
1.203397725333706092e-01
4.072254226071771871e-02
9.878478010383753838e-02
5.386161400046429737e-02
1.183312811626729411e-01
1.065751881596155859e-01
1.125663000625624077e-01
9.953374041423153351e-02
7.079009740202422962e-02
6.810033242226032346e-02
2.010331486527717690e-02
-4.151993250863472013e-03
5.979007116488750662e-02
2.045418408486295719e-02
-1.467949002814211701e-02
3.828988524344212330e-02
-1.406431651515525211e-02
3.508277512906843310e-02
-1.206449151572116379e-02
-2.206451463199891189e-02
1.251608192889538257e-02
3.603960325871688464e-02
-2.295334141525842697e-02
3.822140595078982878e-02
5.851571813288596047e-03
-1.688372514892607854e-02
1.748796610621067282e-02
-5.420926346034827398e-02
1.903704968387889135e-02
3.145105091957239168e-02
4.646619276451796621e-03
-1.995954199885886099e-02
-4.164495102626721706e-02
-1.441903615635536928e-02
-2.957617501986832542e-02
-2.892776976592407318e-02
3.067941803706076415e-02
-5.649329514238743410e-06
-3.842566394233785931e-02
-6.086601984898121209e-02
-1.467445938314474591e-02
-9.812877776005790587e-02
-4.674429720144616940e-02
4.804680470706902684e-03
1.365520497239564729e-02
1.677040780820686361e-02
1.950686953720660172e-02
-5.987780616190546690e-02
5.115828715570849838e-02
-7.923520903265904303e-02
-1.998565794869396409e-02
-1.377781571941228897e-02
-2.095805239887871957e-02
-5.279899961043131584e-02
-9.522677949741278902e-04
-3.779617598707105119e-02
-1.727541909063002104e-02
-1.272682355363185386e-02
-4.366924162688294586e-02
-1.389709049934838292e-02
-4.985578609689378382e-02
4.823658816741419053e-04
-5.432365958735119876e-02
-5.777291631204664601e-02
-2.319828224042287668e-03
-6.431756984848498171e-03
4.989813810219262402e-03
-2.761366442313954034e-02
-4.971153325654315003e-03
-1.864269977634161815e-02
5.493393977485462598e-02
-2.594046966172691357e-02
2.411279419818190134e-02
-5.813260867711465829e-02
6.691799954387075977e-02
-6.260330669583062668e-02
-1.995185496065358249e-02
-1.245988938032140808e-02
2.066323032442035634e-02
-7.360958174737204651e-03
-2.486845730242962654e-02
5.280394268703948735e-03
7.929010731807439871e-02
-1.918991710719056970e-02
-2.914554220023653913e-02
1.767913155413910337e-02
-6.237360872094893649e-04
6.225175033751613463e-02
8.221713499121455215e-02
7.378693138781045047e-02
3.579698919507292437e-02
2.897681925129638042e-02
9.896640434472575576e-02
6.321859090666809289e-02
1.158738725398723024e-01
6.893681638387408328e-02
7.919311944733779807e-02
1.175300209569063586e-01
1.358558479161120491e-01
1.439451793978353544e-01
9.437684669158274975e-02
7.522375405539868942e-02
6.413786332172999316e-02
1.381069419220182226e-01
1.123251439510685179e-01
5.599183570868963150e-02
1.369292466889734106e-01
7.784970817508819751e-02
1.202417126696118388e-01
8.688858863446263792e-02
4.785673624510887458e-02
8.496674206711173072e-02
1.496122009252683349e-01
1.158294488015055856e-01
7.356076645303180617e-02
1.040672835015308134e-01
2.128100279670442907e-01
8.823730996379017255e-02
1.608594139041408799e-01
8.775644383146916083e-02
1.539503984203978715e-01
1.888333260708614514e-01
2.165602896327047944e-01
1.252481243689250179e-01
1.934703310724538716e-01
2.392209786054787513e-01
2.943810058761134330e-01
2.909706357602191429e-01
2.889057081305665409e-01
4.073300702179117883e-01
4.181873677104751552e-01
4.252407775949036406e-01
5.389781420025225867e-01
5.867814834800786361e-01
6.548935897067655887e-01
6.548168645088310313e-01
7.346156579647947771e-01
8.119830215586507638e-01
8.552077700011226913e-01
9.184456476089872812e-01
9.958667833142961223e-01
9.458978651775057367e-01
9.341308566803004920e-01
9.303168822311345121e-01
9.671513877467395881e-01
9.216858424131321170e-01
9.735804430575684121e-01
9.026352658991549927e-01
8.543272325744311058e-01
8.291574608436215188e-01
7.894964804496352739e-01
7.570045515398781122e-01
6.898773763394563385e-01
5.583393868149124639e-01
5.717768903690685356e-01
5.731583383310201452e-01
4.626161841010504872e-01
4.477862510485386971e-01
3.837657648104270680e-01
2.994073437632674972e-01
2.800928764589656894e-01
2.442093965471945349e-01
2.120759787706850696e-01
2.176606400714045098e-01
1.854405416282251806e-01
1.124920703766297408e-01
1.533747364984670569e-01
9.533387697006712180e-02
4.942465694082363165e-02
8.200507696130190927e-02
1.095232952284058842e-01
7.977963145710567638e-02
1.420245148528964663e-01
1.230731550236393301e-01
9.483171982023752555e-02
8.745228633416246566e-02
1.369384019242241846e-01
5.678779017020128134e-02
9.881955011527759902e-02
1.210576591730573026e-01
9.970190050346242061e-02
1.065777533843204894e-01
1.627468593806280783e-01
1.193971963283468746e-01
1.309831456263565175e-01
1.917528381564174156e-01
1.678702447415071630e-01
1.379799362074430880e-01
1.623341401909486892e-01
1.743305929552812772e-01
1.434286615948018317e-01
1.735290118648372126e-01
1.346434999491451512e-01
1.855415176110908337e-01
2.037158930690289860e-01
1.762412319435626429e-01
2.107487914791463524e-01
2.338269434812616787e-01
2.536093261839299506e-01
2.462740458555625900e-01
2.062616294537663042e-01
1.794617366183535179e-01
1.824012904282229508e-01
1.659622926175278179e-01
2.193619853994985824e-01
1.832253739117717106e-01
2.054471884501949119e-01
2.379757611012279783e-01
1.583794413704211479e-01
2.150479284139617253e-01
2.126573078890046931e-01
1.924253908326747364e-01
2.038747320695339649e-01
1.782880396549051116e-01
1.947555346178560520e-01
1.519934986663907805e-01
1.647315399993784790e-01
1.725271323738497009e-01
1.847066756755273709e-01
2.189923066648744865e-01
1.537550642278164847e-01
1.733579557035793972e-01
2.229678181014729255e-01
2.088264908881983795e-01
1.429660725551674394e-01
1.777149312561409622e-01
8.610394235802343310e-02
1.239567072728927216e-01
1.503058029569232790e-01
1.101577230284111197e-01
1.726429357774761086e-01
1.548243489695064756e-01
1.046130052633607865e-01
1.674744526820420021e-01
1.101752582112503487e-01
7.365010506475684615e-02
1.156183340498139478e-01
5.646954070775331985e-02
9.420047073480472544e-02
1.570262503173732727e-01
1.624006325285496655e-01
5.437902638234434066e-02
9.744504077734972292e-02
5.873056601988197595e-02
6.893959000278224170e-02
7.949791225704599951e-02
8.216781128818582969e-02
5.860336768015115411e-02
