1.051459774723525475e+00
1.022191177586907918e+00
1.056731971172854223e+00
9.866487276311808330e-01
9.738625269446601340e-01
9.464978266961739939e-01
9.003435220771635050e-01
8.629371423255977058e-01
7.410676328325980222e-01
7.186079118804642452e-01
6.734442798059512292e-01
6.316330142052679619e-01
4.854299446232729354e-01
4.752915472575426903e-01
4.483022475866133005e-01
4.134568291513642246e-01
3.275566768306690801e-01
2.963489489087129947e-01
2.059230135636115899e-01
2.248821923451905236e-01
1.952285580349639726e-01
1.413594342585630659e-01
1.947955545818584877e-01
1.312779181382154048e-01
1.274595979450281191e-01
9.537827081853572642e-02
1.037917459704759127e-01
1.045936335710569987e-01
1.575401748438119143e-01
1.519627420985239785e-01
1.373227356811251021e-01
1.054508501119171826e-01
1.542449466331704822e-01
1.473325159742924773e-01
1.425191899452801780e-01
1.501689436094396646e-01
1.346840751740741859e-01
1.072580837487115968e-01
1.988377681938719166e-01
1.095304423957214335e-01
1.009240687754113519e-01
1.447925017170137718e-01
1.220860759874782958e-01
9.008974506147904293e-02
1.545598680816945292e-01
1.675578431230967114e-01
2.436491704750584075e-01
2.464629564020962560e-01
1.449533588673712070e-01
2.137841764763339647e-01
2.011405310021998627e-01
2.156939799235115807e-01
1.901474349249546170e-01
1.719141355759888079e-01
1.470652284526090536e-01
1.974535646342761019e-01
1.953523904963208047e-01
2.339414706014852630e-01
2.163344999973603744e-01
1.853408189720289478e-01
2.203912015268529034e-01
2.143150187578454213e-01
1.759586944813201492e-01
2.084858969758142111e-01
2.061968422975673787e-01
2.273489704084501184e-01
1.863286533212633045e-01
1.859451821639627744e-01
1.803395041731505333e-01
2.149447817702377084e-01
2.054317380701927154e-01
1.997590814516101154e-01
1.687146797341192161e-01
2.543980401142063030e-01
2.472209350169367603e-01
1.778404835332269285e-01
1.549940570339941037e-01
1.464690373086558195e-01
1.598943918919999152e-01
1.981759999921859638e-01
1.975924265496924737e-01
2.170287116950153083e-01
1.608539846491923164e-01
1.922833207917924725e-01
1.937570105607993864e-01
1.300448288316195522e-01
1.423922149695742156e-01
1.389241558537397947e-01
1.091372964362538750e-01
1.040689997226707936e-01
1.211595225306542484e-01
9.950420059241094073e-02
1.530514048507092273e-01
9.534333361204101742e-02
1.540058963750214061e-01
1.447091277204202442e-01
1.057510638977435802e-01
8.980890278962500028e-02
6.563579533631623553e-02
9.082729045016026126e-02
1.099885470094922324e-01
3.218767905940810720e-02
6.459065830917076756e-02
8.016230630878640184e-02
7.735663586677005155e-02
5.509191909930731545e-03
9.228121701800878762e-02
2.924194213699878725e-02
5.896268871186620408e-02
6.925795127068236356e-03
5.677323670507635617e-02
3.175324821313568052e-02
7.771443267623476259e-02
1.022799833925983337e-01
-3.121604214121595500e-03
4.508908629152590802e-02
2.385166257064102319e-02
2.257181164447036315e-03
-2.222768529539932703e-03
-6.302152947913884640e-03
3.127000502956571448e-02
3.362190319542907035e-02
2.831780864311458923e-02
-3.750190399484408521e-02
2.362355070022149894e-02
6.427049265781302478e-02
-2.970075533565140827e-02
3.939969671075373159e-02
5.848072085908144480e-02
9.677296378660979470e-03
8.130912365917605800e-03
-5.145735800843588559e-02
-1.566468151096395839e-02
1.147798673139602960e-02
-4.416853175557054062e-02
-1.164725807933099724e-02
-1.459866469355316186e-02
-3.217723191206396660e-02
1.895406457458102129e-02
-7.594700885279862673e-03
-2.075853918281542546e-02
-2.960648598753803581e-02
2.470332901134673215e-02
-2.888963620771658330e-02
3.131638409826140862e-02
5.413488005855569829e-02
4.351362787230486640e-02
1.673004593855353592e-02
-1.460268039010083688e-02
-5.022525412241921755e-02
3.225713628615905354e-02
-8.385183876581082940e-03
-3.234396206495970122e-03
-6.742187500521822086e-03
-2.816495306985401098e-03
-1.540925330685243011e-02
5.279677748859164937e-02
-1.044054797612604599e-02
2.324233115578976105e-02
-7.262269073044780310e-03
4.343115754061486339e-02
2.427397529050985547e-02
7.387793876439731344e-02
6.777978406114915089e-02
2.186138089320655703e-03
7.171369988859077615e-02
2.742818446004235619e-02
2.858205956984654142e-02
7.491088634160861237e-02
1.059016592101342386e-01
7.156266590708734721e-02
5.030491639418856881e-02
5.566985574553773297e-02
6.906553207872632993e-02
1.051155499472119226e-01
7.267104031544698028e-02
1.227912322189954469e-01
9.893464499656878797e-02
1.219728817617702910e-01
8.296950460974331087e-02
1.162917213801093475e-01
1.613986512191585565e-01
1.345596952590811246e-01
1.752513923585294620e-01
1.241110837865373739e-01
1.326090749816689618e-01
1.288287024552852433e-01
1.214019806392901135e-01
1.310589699797644336e-01
6.440859549570664144e-02
8.267026791050118006e-02
1.271194699133469108e-01
8.357289230128456259e-02
1.117539842323427429e-01
8.783036225653195750e-02
1.652542642843132792e-01
1.343324447579859193e-01
1.548801707900511193e-01
1.447345244734171421e-01
1.445996266735559699e-01
1.538114953879832492e-01
1.730926866995594615e-01
8.204888070446629544e-02
1.677163790351383910e-01
2.173615449474562422e-01
2.414061064405808033e-01
2.482484951273077889e-01
2.371855087174915555e-01
2.583638182819016915e-01
3.180539742978010787e-01
3.526568156950244393e-01
3.324313336783047967e-01
4.485685627501579398e-01
4.388778543677553379e-01
5.981052199941088166e-01
6.231156782666325000e-01
6.534057265217938504e-01
6.785802615438010221e-01
8.148747801877698205e-01
8.471237151847059721e-01
8.468648701869134765e-01
9.746432099634539936e-01
1.027360606977219870e+00
1.017660417842139564e+00
1.051038938852329130e+00
1.086638709702982597e+00
1.118100538762363039e+00
1.111225787656644259e+00
1.121042443660157151e+00
1.027272352184689375e+00
1.129773872943413249e+00
9.985089370700462874e-01
9.315972457077181801e-01
9.842132115145106885e-01
8.618212003661563925e-01
7.596545164152628260e-01
7.637347422320693857e-01
6.670952093988481435e-01
6.681279475879775553e-01
5.571383102743612259e-01
5.135099919268135693e-01
4.456640767398258318e-01
4.268312038171130363e-01
3.736730626899222307e-01
3.451671835379114261e-01
2.584711705666479786e-01
2.347279233599731396e-01
2.226546563090609498e-01
2.654403824843645232e-01
1.580009387984574465e-01
2.438963064850262485e-01
1.679294245765663440e-01
1.994946091670967148e-01
1.498831266351655922e-01
1.195848527139494744e-01
1.886266912950126662e-01
1.381103913492071900e-01
1.685011961945378500e-01
1.189803823242588099e-01
1.906201514363578542e-01
1.995142996405556701e-01
1.390250894549341643e-01
2.050740578719478513e-01
1.448910830872375544e-01
2.092279731103382501e-01
2.112131966688657880e-01
2.073440142639340344e-01
1.523035380752677526e-01
1.574433721387664686e-01
1.852014195173835864e-01
1.619556246106247099e-01
2.067831616357196367e-01
2.848534981212151318e-01
2.107964398103629455e-01
2.187686802948701215e-01
2.628818611781352788e-01
2.170286043516920782e-01
2.466533319672563895e-01
2.343940232562662096e-01
2.674665733066075024e-01
2.763126508695567529e-01
2.207194422048405769e-01
2.668068919933894723e-01
2.659144253229316357e-01
2.346911754074991197e-01
3.033778401568714700e-01
2.289785365904498660e-01
2.555338276102445683e-01
2.188514503056265270e-01
2.610118353271380642e-01
2.857926906169040993e-01
2.727584905789808833e-01
3.145407967736922328e-01
2.567290980484389085e-01
2.477455824358928138e-01
2.705057654631684017e-01
2.484722918662906344e-01
2.345440361950177910e-01
2.524323278565557827e-01
2.196137235738390148e-01
2.298572613757249861e-01
2.651994330649695142e-01
2.542172058567109261e-01
2.580644817228034960e-01
2.160234741837184502e-01
1.867818302005214981e-01
2.164408749414058475e-01
1.538801852272233539e-01
2.060970383247173188e-01
1.944200234598785770e-01
2.066874491343584086e-01
2.290813855069527283e-01
1.889082473397130646e-01
2.132106321259769066e-01
2.230563562514767673e-01
1.869844384654608116e-01
1.801081503294880148e-01
1.802158926282056706e-01
1.843476286339541803e-01
1.613597088572149563e-01
1.396067568561105421e-01
1.369724502579378334e-01
1.356186359967390953e-01
1.565402143194549733e-01
1.036526419684635630e-01
1.157230396659133798e-01
8.025428524976066513e-02
7.108848670338135944e-02
1.302819906813565964e-01
1.335591671726700791e-01
1.299282967480037965e-01
1.201173318572966997e-01
4.597464156861869045e-02
1.177204923911262108e-01
1.458272156629037697e-01
8.189927898555451891e-02
7.318400822681220275e-02
1.322469542687431665e-01
5.562137871130969774e-02
9.239450869570953184e-02
9.233149771219889557e-02
7.095681185708394012e-02
6.571536451404649815e-02
7.859149743433796464e-02
9.798152411897377567e-02
1.734315914042802720e-02
6.862441935700447360e-02
9.003492664189456651e-02
7.158796233126396569e-02
7.202927630792442526e-02
1.842155187174173911e-02
6.306949971177530645e-02
5.032954295034546693e-02
-1.245633323106992013e-03
2.066515665549742073e-02
1.034900844622129307e-01
4.084253839868150215e-02
8.876711159232816839e-02
9.098950955985170286e-02
3.585160840551151334e-02
-1.844141202075167546e-02
6.354471675324829816e-02
4.889429395926561672e-02
3.908067369451301981e-02
5.015127862096928346e-02
7.346825156054045958e-02
8.541855291392971838e-02
4.843882066804171271e-02
6.607679033395497115e-02
2.570143336959231431e-02
5.348856878643984403e-02
1.536188355230757099e-02
1.008033716520240208e-01
3.591543670506353036e-02
4.482220112294696412e-02
5.194791870841217879e-02
2.791247327627877778e-02
5.762385803869514433e-02
7.005547236137399381e-02
8.970514578770086289e-02
6.230704234989693779e-02
6.600134445335628652e-02
9.261585855076913398e-02
1.131935378439912210e-01
8.771438745081926169e-02
5.436620117574209737e-02
9.771074147672392796e-02
9.926171515566709069e-02
9.694489647413795375e-02
1.151359464622668388e-01
4.417478111899227067e-02
9.543894960869976629e-02
1.090031241433165876e-01
1.135501537138698669e-01
8.198916544657945671e-02
1.594131986864871786e-01
1.065866094412075138e-01
1.486766060621800556e-01
1.095580519704379141e-01
1.647194272896092548e-01
1.754088006409980915e-01
1.850128837858856512e-01
1.654624194945770732e-01
1.781510270860274525e-01
1.948785468092066320e-01
1.638420748947159999e-01
1.642803411800759505e-01
1.358661032212840902e-01
1.923522763236892863e-01
1.602588419711387102e-01
1.387082656223030674e-01
1.899932178477220235e-01
1.500864762269430719e-01
1.565663614081833632e-01
1.975622268267933079e-01
1.336306962192143344e-01
1.983817645712138700e-01
2.155393407497982750e-01
2.518272516626534618e-01
2.150672787804049357e-01
2.170744491509174756e-01
1.826049042158343627e-01
2.009125743078313264e-01
1.681832289470628905e-01
2.035300597722540794e-01
2.117018881934541463e-01
1.508159735313561733e-01
1.717257284332773248e-01
2.287715276956779897e-01
2.337609538637978879e-01
2.449608709808677731e-01
2.888734866456640349e-01
2.174645800700122922e-01
2.867547534332592907e-01
2.802276691851062207e-01
3.615156810171727408e-01
3.532245436248305781e-01
4.326560320566812945e-01
4.686884959734158862e-01
4.611112537711371528e-01
5.053305569803707709e-01
6.038810010853111754e-01
6.656794694919236921e-01
7.303004742558641960e-01
8.181351175027850031e-01
8.369885700841261933e-01
9.183464736445783316e-01
1.012326837344336816e+00
1.035472623762726307e+00
1.081534923633174605e+00
1.058207813590126278e+00
1.127784463933143577e+00
1.175061664664080796e+00
1.105595196180654272e+00
1.187877324292256231e+00
1.068918924058346098e+00
1.117219346916277223e+00
1.062691267651599603e+00
1.077045988603991589e+00
1.019851175742438221e+00
8.895812438397862065e-01
9.020158968507112629e-01
8.380551147092208941e-01
7.281935117985259831e-01
7.340399490518013659e-01
6.389649553868382847e-01
6.252462429108363029e-01
5.517402131782457309e-01
4.778305308603580381e-01
4.090259222406005812e-01
3.619621908134174060e-01
3.739321394741529359e-01
3.143935719156114028e-01
3.044223486454226690e-01
2.552637222207171930e-01
2.485735516304235226e-01
2.280847765217950129e-01
2.648057545241893074e-01
1.602127983394579513e-01
2.090895925641152453e-01
2.004653589265702474e-01
1.963587345019473240e-01
1.405544250210157275e-01
2.269427061453175298e-01
2.212398724664212668e-01
1.937534086112836784e-01
2.409609360124904121e-01
1.745294807654518554e-01
2.516263248909884620e-01
2.396556155494037887e-01
1.580536342008289075e-01
2.561015257873805462e-01
2.058920349027132946e-01
2.384114919385130482e-01
2.405846593398639210e-01
2.532731687868941539e-01
1.948165382479872809e-01
1.684640659122854933e-01
2.654119836143891131e-01
2.363212222358631598e-01
2.567219811993306511e-01
3.008391937309223829e-01
2.380611101523999462e-01
3.312997446726558270e-01
2.830138230738065142e-01
2.805714171057519524e-01
2.663457673043175822e-01
2.471357140972820221e-01
2.826004676745974553e-01
2.392386933728378462e-01
3.111655798085518621e-01
3.141272396822031299e-01
3.182350594340763728e-01
3.264997769639825798e-01
3.048856289163722755e-01
2.806615449150521302e-01
2.855307403015685530e-01
3.577652583752158888e-01
2.867894020220297935e-01
2.712915788624110647e-01
2.868294967828738384e-01
3.020454408935833168e-01
3.319644961816906048e-01
3.289311708190706951e-01
2.960405832250889158e-01
2.198994143949085101e-01
3.401158288336436630e-01
2.905377963568541722e-01
3.108807881285874930e-01
3.068191180899772497e-01
3.141714526465509971e-01
1.844257131942396710e-01
3.013753033202643539e-01
2.602068994348536446e-01
2.127501997086999053e-01
2.037357985487863454e-01
2.635668050665889717e-01
2.562910377697844577e-01
2.664306516407104475e-01
2.677377325721233547e-01
1.932823550946536906e-01
2.396579631704942037e-01
1.966255192821148856e-01
2.359229983272188580e-01
2.590892678892576240e-01
1.760391569568863224e-01
1.621927524472827620e-01
1.269324152366690384e-01
1.858355876698742637e-01
2.233988069147392619e-01
1.996430637547487730e-01
1.249219360792886424e-01
1.423569222479400542e-01
1.728269362631184580e-01
1.370505108733909572e-01
1.576315925298157339e-01
1.422293046672267747e-01
1.686776199197902448e-01
1.660924840764216592e-01
1.560958309624712603e-01
1.188672627835517248e-01
8.857364045351212578e-02
1.425976955227119813e-01
1.303606116922949587e-01
1.659182818818051297e-01
1.214145007688041400e-01
1.683812623162635469e-01
1.392963102135761078e-01
7.492638870071831325e-02
1.324913468722725418e-01
1.303998485639576432e-01
5.257217654473297225e-02
9.021447866643983460e-02
8.479840172628197448e-02
9.409888727781412499e-02
8.449282056213877623e-02
5.352156882021877338e-02
9.235187533773780988e-02
1.159393246568611313e-01
1.028803907465351830e-01
4.151506215327396138e-02
9.946180302812709928e-02
3.361931915864610487e-02
4.976874973069331937e-02
6.633765878829726848e-02
9.046743384238431496e-02
2.057577631113878883e-02
6.611564775931481897e-02
7.995860512074332016e-02
6.971114750754200950e-02
6.702940045369425170e-02
1.053377595074795336e-01
6.615040054200906072e-02
6.663752317840110351e-02
5.022411263645185087e-02
1.925944346147591066e-02
2.995645968773306272e-02
8.978260050951759885e-02
6.633808614955839789e-02
3.915543073274377339e-02
8.927992472191664808e-02
5.300052588003682785e-02
3.792100450957101854e-02
5.477740602458873453e-02
6.002315639951104342e-02
8.856886017074097617e-02
6.976853430120255606e-02
8.789633547135831948e-02
6.157369976543915213e-02
6.104212118319553293e-02
1.366373835939063974e-01
9.298831127740667113e-02
1.286693542289152892e-01
1.145997645022939493e-01
7.143285782255923144e-02
1.194954984628305433e-01
1.782051207173147023e-01
1.383121913960002891e-01
1.174504087817380138e-01
1.361801377164724991e-01
1.244708575234690362e-01
1.585005113816741196e-01
1.388090840774935386e-01
1.581423624507856951e-01
1.328716600059560160e-01
1.882341107144661629e-01
1.554847877206251561e-01
1.688345069647382846e-01
1.868917039557611015e-01
1.427422943608676331e-01
2.119293442200744226e-01
1.430303054490346670e-01
2.053753383856401493e-01
1.709277644929906581e-01
1.270520239606093837e-01
2.089528863849106910e-01
1.462301088354706624e-01
1.189193964550103733e-01
1.685189716324305420e-01
1.772633765956900254e-01
2.030921187261406080e-01
2.327734873617028633e-01
1.828900427256894556e-01
2.270441899528481133e-01
1.599289322526107338e-01
1.502096110993617617e-01
1.915385012815743193e-01
2.150020709198053603e-01
1.888790318467748752e-01
2.216015787441614759e-01
1.926382266796186071e-01
2.087062881300287276e-01
1.813214905181239067e-01
2.624006328231099361e-01
2.487887697404157217e-01
1.934143063253260797e-01
2.249446429864037922e-01
2.304995522363625926e-01
2.150631049683413565e-01
2.904631612393460127e-01
3.227334073210789689e-01
3.471123478383503769e-01
3.830688696383086067e-01
3.625218700338769251e-01
4.074183431949972012e-01
4.752531658283973282e-01
5.084683442293231881e-01
5.608874314978105069e-01
6.251824731996602491e-01
6.963489851594564239e-01
7.317526103284994754e-01
8.895851378279832078e-01
9.298777064084797761e-01
9.034384592935561509e-01
9.994200361892732198e-01
1.109913663152132690e+00
1.103385514348458329e+00
1.066325221777393084e+00
1.138216775571074368e+00
1.096538650666277759e+00
1.094157402319540395e+00
1.131741054212472619e+00
1.119486835508013645e+00
1.108766503773900736e+00
1.045614118436470008e+00
1.030568911355301154e+00
9.843072643511030506e-01
9.638861415180202119e-01
8.706881208149096496e-01
7.861126830703437651e-01
6.885819390221630254e-01
6.168215729224157950e-01
6.450410427682312653e-01
5.415790152107803346e-01
4.801365237459955804e-01
4.378870711395863591e-01
3.721268682464977662e-01
3.670899050348284676e-01
3.412619106472344344e-01
2.443418517417017544e-01
2.556444058431838751e-01
2.681972047277353943e-01
1.766807802090903934e-01
2.794248839176493582e-01
1.838019370156502852e-01
1.501553546361518165e-01
1.821067610106757995e-01
2.166422463247202057e-01
1.756166587372787746e-01
1.779822716876508504e-01
2.009114125974501563e-01
1.935875144452783581e-01
1.684988772828768244e-01
2.077121033047397980e-01
2.064314061195515748e-01
2.262254269471308532e-01
1.815762161584346668e-01
2.234049332483707406e-01
1.842321770043872653e-01
2.413468121248308895e-01
2.601815174701270217e-01
2.365098413331851723e-01
2.348730040384413575e-01
2.451929200898013972e-01
2.354886829257654135e-01
2.107133044329336791e-01
3.335138118615851854e-01
2.417632321557823261e-01
2.790098086128250388e-01
2.742614353667831573e-01
2.018197073377063777e-01
2.735789065566471834e-01
2.928624716316954313e-01
2.486706735526698075e-01
2.975747635001675939e-01
2.636534042760331764e-01
2.440060521460318821e-01
2.661692884367705680e-01
2.573014276295865765e-01
2.878102407961106168e-01
2.948958174182562120e-01
2.797017447800803636e-01
2.839651493205778698e-01
3.055338809800254296e-01
3.039072555324680014e-01
2.581939915740139035e-01
2.773750699528000352e-01
2.722554717904921984e-01
2.311883086468818072e-01
3.008968084978974611e-01
2.958718980437412549e-01
2.809366248880376116e-01
2.533481625868549414e-01
2.784880192089081441e-01
2.102442245611507166e-01
2.147926231823550913e-01
2.249139259459513041e-01
2.222031319826598683e-01
2.540979516464976773e-01
1.986921619106295500e-01
2.078904973769162556e-01
2.511869438859801740e-01
1.997873116415331551e-01
2.131406151343839261e-01
2.573891564963745049e-01
2.310081372918081077e-01
2.641342652238508060e-01
1.904120562715838072e-01
1.680945578727879031e-01
1.867133198413701844e-01
1.628268098131370745e-01
2.407997772774126133e-01
1.828216504509591889e-01
1.731677813668807686e-01
1.356506583079906680e-01
1.826694075128363348e-01
1.126773039133726617e-01
1.634873045332397856e-01
1.804967742003794062e-01
1.695425877013923555e-01
1.203060561798977440e-01
1.439683924007110205e-01
1.129048811999975310e-01
1.068989701964768863e-01
1.429707591777751585e-01
1.063065578991070070e-01
1.297023476554987620e-01
1.536631122222869295e-01
1.089359505793657257e-01
4.790593791124113376e-02
9.936016842440993646e-02
9.719386114356631801e-02
9.670912883849386299e-02
3.953071234520656729e-02
4.110374719797252330e-02
6.809947692046464107e-02
6.829662376044753902e-02
6.518574127598777967e-02
1.213383353440704027e-01
6.958028843626835880e-02
2.862038844294149606e-02
-1.817214218466948680e-02
5.684233158873714525e-02
3.511895262377715682e-02
4.648071412746157538e-02
8.781816233083884760e-02
8.384448491739109055e-02
8.261655981052698494e-02
5.991125602159955155e-02
3.196616531822363272e-02
8.164953307785713377e-02
2.164787381657235638e-02
5.821584275011119913e-02
6.757067882679165804e-02
2.475134696979720134e-02
6.648430998933743674e-02
2.869853182125160773e-02
-1.374282366802913671e-02
4.819238543284768556e-02
6.894855805729080411e-02
-3.198758989827618637e-03
1.743715012001439274e-02
-1.889975894381807492e-02
1.452983110148287245e-02
2.918216263268632107e-02
5.976695878788829824e-02
1.064927558233072329e-02
5.492668602491521113e-02
1.474976811514071458e-02
-1.324059863534773722e-02
6.740122492669381460e-02
5.657562902507400071e-02
1.872319837234215356e-02
5.123679312007863029e-02
5.089581225168511580e-02
8.411942575522621257e-02
7.346604608614022702e-02
1.720962739484322920e-02
5.640055406338104205e-02
8.601585291173634296e-02
9.566979768640164472e-02
8.098669335799942026e-02
5.980047608182359475e-02
6.046786946693484543e-02
9.287238309823939164e-02
6.717502384674711724e-02
8.861764852048267804e-02
1.047234422704556023e-01
6.007150269170419277e-02
1.030578296871131477e-01
1.193961249690644044e-01
1.215593417530045905e-01
9.033180245061389613e-02
1.584570198168714361e-01
1.002394884284571602e-01
1.266283084482246191e-01
1.357671416997018599e-01
1.698150813854118202e-01
1.808917341731601514e-01
9.329758844197401368e-02
1.375110749315767156e-01
1.144294710244238150e-01
1.680289972312139224e-01
1.687943151572957046e-01
1.377816839775282687e-01
1.810510914635145296e-01
1.471745537464572706e-01
1.643707582346613794e-01
1.411981130895533509e-01
1.357745667123387012e-01
1.562754328516100522e-01
1.614220924896639098e-01
1.656101826813577982e-01
1.188376297380907831e-01
1.048338319488547471e-01
1.302830157614992823e-01
1.439662619466709759e-01
1.860278152899491333e-01
1.701217339975821807e-01
1.816481230439019601e-01
1.534410460772575036e-01
9.656987981857810543e-02
1.856985521679190843e-01
1.099938284447804920e-01
2.222886941969302865e-01
1.908166488329913202e-01
2.550794497141200545e-01
2.898596471889792747e-01
2.856228813113602660e-01
3.228936622101705178e-01
4.185992499265790423e-01
4.340651531580158595e-01
4.396810462691585486e-01
4.916915602065328184e-01
5.790563581815392213e-01
5.636433347677530792e-01
6.533309118196356513e-01
7.333427544903413642e-01
8.341788639634710734e-01
8.560860444480102860e-01
8.867789592029695633e-01
9.529082679789905308e-01
9.714570477880662969e-01
9.988194532267159476e-01
1.033584876110607009e+00
1.038596319769513832e+00
1.119785452746556498e+00
1.107629318216239778e+00
1.068311400565874925e+00
1.074515184491621422e+00
1.047197724874961100e+00
1.015405879223439278e+00
1.005726244525622537e+00
9.134302916427714525e-01
8.604697719831175817e-01
7.631678511036487089e-01
6.810722498756582866e-01
6.480798638180810256e-01
6.139701245928691486e-01
5.074252475201703749e-01
4.551034389486380283e-01
4.762042296203023439e-01
3.711793250664948696e-01
3.415537600656249340e-01
2.478362187102128855e-01
2.703904544070140914e-01
1.849699057211489639e-01
1.826507369441703887e-01
1.659218740034520689e-01
2.128462849429183790e-01
1.458841132962024612e-01
1.447469860554133347e-01
1.739818931875216634e-01
1.515440666263644376e-01
1.504492420495814331e-01
7.008203792789438613e-02
1.624384532738254172e-01
1.402029960744144155e-01
1.322905847900641418e-01
1.758540608909039682e-01
1.408831659490713262e-01
1.515201586520682486e-01
1.554253355198392250e-01
1.385482427909442704e-01
1.723460631762379347e-01
1.454810992349966359e-01
2.102800458079407686e-01
1.969826365442615412e-01
1.950423213517959165e-01
1.817976018891514778e-01
2.148112791326294291e-01
1.385505614779932726e-01
2.188934080898495005e-01
2.245888544378610296e-01
2.051993296977442371e-01
2.291946348560981728e-01
2.211856142144865700e-01
2.200721381078479255e-01
2.142851899134427252e-01
1.726977652055902979e-01
2.579626697068040375e-01
1.825170623559386474e-01
2.324968241563775129e-01
1.993738319968587358e-01
1.968657195705577068e-01
2.290561271381889030e-01
2.300051704911961759e-01
2.221930707772648561e-01
2.753030585443338452e-01
2.317634076899099116e-01
2.230420490026106262e-01
2.232285279064699368e-01
2.264830465486975808e-01
1.841133973544464286e-01
2.028737206989353337e-01
2.239114506157558193e-01
2.138533031080592783e-01
2.053454348342012570e-01
2.516891094650628435e-01
2.003823138582398189e-01
2.397469056608198257e-01
1.827874432737696675e-01
1.985461586849610882e-01
2.012623461660957291e-01
2.077119384303807159e-01
1.830085313021201920e-01
1.828808528218875962e-01
1.929746680825871474e-01
1.832075112927781801e-01
1.526595801165001043e-01
1.880077147756068767e-01
1.556138927318479470e-01
2.067421412390855751e-01
1.114095530063388684e-01
1.236439212629338036e-01
1.215486710531530068e-01
1.055409787952851786e-01
1.057456949352091752e-01
1.478314180000384614e-01
1.882642180579945923e-01
1.168192380618986170e-01
1.592154903617141737e-01
1.344946841630192957e-01
1.161635869585656983e-01
6.926912092642605046e-02
1.255762624405495353e-01
9.759303495115784211e-02
8.045422796106120600e-02
9.193246686974973492e-02
3.104036731441187080e-02
6.447508026995160679e-02
8.869335470221564877e-02
9.422914820308295192e-02
1.046777878685610508e-01
9.412462349949281271e-03
9.094182391057961667e-02
7.331947480050682309e-02
1.581084795877215482e-02
9.992261926197287814e-02
4.879670377976481899e-02
1.789667722539357159e-02
6.817091313856235568e-02
4.675493628222650300e-03
4.166045006823612673e-02
3.776803534878803853e-02
7.644075665230627703e-03
-2.323537181132595553e-02
-3.295510896543259183e-02
-2.692994069581862784e-02
-4.410200357702866170e-02
3.900622306924603211e-02
3.247208776255045698e-02
8.499284758755734637e-03
1.959351229250852477e-02
-4.071590151819597103e-02
-2.990994596175971382e-02
-1.494100061765705686e-02
-1.361258197997251146e-02
-3.300988394992784847e-02
5.359991461208538088e-04
-2.024286813700682669e-02
-2.879722346322456661e-02
-1.123353903534356560e-02
-1.690688557212856671e-02
-5.143581642868864934e-02
-2.917794784280152570e-02
-3.275976217897542953e-02
-6.020400869505121433e-02
-4.346722476426736342e-02
-3.526138196630149851e-02
3.718392262536910492e-02
-5.298709159309000077e-02
2.020215069911264483e-02
-1.477576071337774466e-02
-2.655359465848922476e-02
-7.672916472503549246e-02
2.720708140419531712e-02
-5.740478389164208051e-03
2.005160126885190824e-02
-3.601078487829313668e-02
-4.187243689882262643e-02
5.756642132308184556e-02
-2.632794720314411696e-02
2.019983205224321759e-02
3.154401179116115422e-02
4.303924141119588875e-02
-2.950201631830046134e-02
-2.903955553291960590e-02
2.137364237211566292e-02
8.636589348523342202e-03
2.002371863760132875e-02
3.537269303976525031e-02
3.915581709480914913e-02
6.226314992607104304e-02
8.059689954257617805e-02
2.116290276193733694e-02
3.101727986001222986e-02
1.440697468308139995e-03
4.387816206895079479e-02
9.581571854918412290e-02
6.741984998845150512e-02
1.154438441979861174e-01
9.166024062067831824e-02
7.855360254634999317e-02
-2.269242355982768744e-03
6.964362714017646727e-02
3.444646088566687137e-02
9.075724708732922641e-02
8.888761545491352667e-02
9.466335363182595830e-02
9.771484689312164018e-02
1.082645676879902680e-01
1.373861047045132344e-01
1.325470658342570718e-01
1.738367452903596955e-01
1.380907639770427298e-01
9.902179486189070790e-02
9.461534331896034877e-02
7.832562483513012819e-02
1.279690135029349918e-01
9.621029537818195920e-02
1.846860238169396040e-01
1.017061776090249364e-01
7.234699180348493075e-02
9.209342112918028622e-02
6.397638408496038320e-02
1.635856755340806545e-01
1.111277723440056292e-01
1.533777030101236005e-01
1.084370838096491152e-01
1.477572462142589249e-01
1.123175897674318080e-01
1.683207658243327520e-01
1.866055142242328824e-01
2.140657232572263091e-01
2.785381931664403510e-01
3.471399546731744890e-01
3.328635370917098490e-01
3.284676040037900480e-01
4.113413027472416217e-01
4.830465356816393552e-01
5.627798537960272407e-01
6.057730776929292071e-01
6.773825800745650882e-01
7.573937355719416731e-01
7.733252441059704774e-01
8.750442489242129529e-01
8.902945514805251648e-01
9.107108412927021890e-01
9.622691741702438240e-01
1.003324384367197952e+00
1.014333031736381008e+00
1.072611056468804058e+00
1.106119350511534982e+00
1.043670203659064821e+00
1.058657472990657711e+00
1.009359890272384375e+00
1.004953243650117178e+00
9.248034608424297032e-01
8.725018446077201784e-01
8.919773925773963885e-01
7.448757417948608239e-01
6.848978998928684225e-01
6.823009994673482348e-01
5.342945508838302660e-01
6.037587140169609068e-01
4.656004535514700615e-01
3.918003470436520752e-01
4.010393543356216006e-01
2.802737684844211485e-01
3.549631241476103316e-01
2.113472120139906207e-01
2.355351513072886094e-01
1.742989558123840543e-01
1.205928242789551519e-01
9.865115991636332071e-02
1.532889577966587424e-01
1.712667384294634942e-01
1.006220346663157517e-01
1.205206305313661630e-01
8.292022823904882101e-02
9.484795087931208180e-02
1.148266664829152711e-01
1.033693338302548725e-01
6.433238660547016541e-02
1.823333177402615968e-01
5.324162387400290658e-02
9.062954029621414498e-02
1.112469065840980126e-01
8.295982964375031576e-02
1.214226486521902126e-01
1.610999259936325423e-01
8.781102267417849327e-02
1.487228719017701928e-01
1.439136345593884647e-01
1.317786426159623381e-01
1.006825121273065005e-01
1.299794547884999540e-01
1.639645233406224478e-01
1.918076638214105678e-01
1.789346551815915176e-01
2.038482224182815439e-01
1.649423066563086571e-01
1.725184820311256861e-01
1.515712757898373675e-01
1.635114075371758013e-01
1.375942088833198296e-01
2.083367998421871703e-01
1.957751310400124289e-01
1.542700815011083249e-01
1.765811694619547345e-01
2.004586907930661077e-01
2.333801618305053616e-01
2.452021261495899163e-01
1.376364430020157181e-01
2.112574663908332040e-01
1.812434664727705369e-01
1.389556618964237766e-01
2.232737170007448035e-01
2.386896498082630991e-01
1.881033886076417527e-01
2.158125815131307357e-01
1.703960169841816086e-01
1.954741104145456543e-01
2.220861600823040294e-01
1.912872042277906637e-01
1.611586566353985783e-01
1.822285550552294464e-01
1.589522996785693310e-01
1.568335473937017555e-01
2.014554480757860255e-01
1.801130598623016943e-01
1.665272357485417243e-01
1.057350545098107719e-01
1.335646763695677031e-01
1.568960016079624376e-01
1.330894852314193355e-01
1.514811083827016513e-01
1.581319910934569917e-01
1.734015865595305295e-01
9.783805382220391034e-02
8.054943790907845291e-02
1.487939431114977396e-01
1.366196572984683388e-01
1.091040986078396224e-01
9.839609866719770115e-02
1.199259151923198069e-01
1.168709300954430541e-01
9.241258211032932213e-02
7.885390542668832548e-02
7.480562019535740015e-02
4.442946097515492604e-02
7.536045460866573620e-02
5.529389830405562201e-02
9.740156450466583293e-02
3.065313095773866681e-02
2.223177817655964256e-02
5.824419601012835457e-02
4.129066726566728990e-02
3.756508014173848276e-03
-5.809944166078197247e-03
1.435061300935412676e-02
5.038318754912896047e-02
2.919211213181145681e-02
-5.235005047689027941e-02
-1.309872296030310801e-02
3.964156357551523735e-02
3.539073854434535149e-02
-1.520887086603518734e-02
-8.104463533843864198e-03
-5.169984674095168264e-02
5.448903951833380249e-02
2.723609740574908789e-03
-3.334987834225545955e-02
2.777199803061050631e-02
-3.190911868570002474e-02
-9.017552671246230334e-03
-4.142715108625960596e-03
-3.001121309499774764e-02
-4.609014138590994403e-03
-2.475513745019139802e-02
-2.691417535203511832e-02
9.508329018653921549e-03
-4.630361531317936374e-02
-3.244185995727298655e-02
-3.280572086006207366e-02
-8.294652674744502907e-03
-3.277858603081436339e-02
-8.845349655544981760e-02
-3.709244155431010159e-02
-1.144790448274941169e-02
-1.614263956035787845e-02
-3.134022862486485900e-02
-6.156719386581549491e-02
2.402500525058699765e-03
-1.455998742727396614e-02
-6.252239442841632522e-02
-3.966192828594143627e-02
-6.035730363094320150e-02
-2.591493398254986202e-02
-2.668753205226175734e-02
-3.376746300203611884e-02
1.885046832305975473e-03
2.518427534489151715e-02
-1.366671065358510129e-02
-3.867930192079423873e-02
-7.841334453975952468e-03
-4.736198984762255565e-02
-3.771193652448369404e-02
-3.285625338317720023e-02
3.978840987245256533e-02
2.158885319011102921e-02
-9.151741473473473665e-04
3.637670709867029534e-02
1.853637936337780567e-02
1.326440867144517560e-02
8.963678778798042646e-02
-1.586914881892137474e-04
5.408967038985645903e-02
3.760664213829952723e-02
1.110626703539888960e-01
8.662480466574035143e-02
1.179557532271597042e-01
9.685458062109914001e-02
4.797724385977274186e-02
6.388280971043056033e-02
8.850055500960093968e-02
6.851226425642642504e-02
6.841217058259940753e-02
3.311995059547079290e-02
8.688950093955505327e-02
9.320781622220442042e-02
1.057230235090322878e-01
7.869239072047229389e-02
1.331094021807275318e-01
2.626660149574290559e-02
1.177247280825233777e-01
1.534286242515474352e-01
1.416144382080047892e-01
1.530499624578760542e-01
1.061149886925615293e-01
1.251383135652856526e-01
1.622704867443092447e-01
1.263412480413975691e-01
1.052268084805066950e-01
7.260067646453281787e-02
9.512358830243490548e-02
1.104655129379753797e-01
1.177295492782883812e-01
1.099401529674882971e-01
1.710917196410936536e-01
1.637731279593471478e-01
1.028149071572853346e-01
1.037797413776300332e-01
1.048664939269447760e-01
1.656417566283019394e-01
1.628067415015692354e-01
1.344776361643054141e-01
2.234448743233890255e-01
1.688863014778310689e-01
1.892864302118040243e-01
2.143063690276851008e-01
3.056255232348566997e-01
3.336539902305078464e-01
3.936060196557212287e-01
4.066740193054144692e-01
4.630880362441899822e-01
5.446102784168327382e-01
5.521258906916316489e-01
6.151650323598220060e-01
7.036759992265748664e-01
7.131047328878569180e-01
7.825156658792418174e-01
8.253703953228501700e-01
9.464647484099014685e-01
1.032530963094158594e+00
1.033552302220576813e+00
1.053756873081962642e+00
1.052632509560429197e+00
1.110786881323392761e+00
1.065314986282709375e+00
1.124505753140838449e+00
1.060203626181935643e+00
1.069196509934522643e+00
1.018899280552072684e+00
9.704898590985061579e-01
8.947160962018249064e-01
8.052219983186045260e-01
7.819240272303495942e-01
7.367129200451054682e-01
6.296639618361123958e-01
5.295393582648290076e-01
4.809329089056140760e-01
5.588285302273383603e-01
4.562987800058452281e-01
3.937928653685254243e-01
3.184296086760344813e-01
2.412825093978474833e-01
2.360484463680162515e-01
2.316711006065591549e-01
2.475191447648700249e-01
1.270144313589288698e-01
1.609015129461794091e-01
1.729883277063135882e-01
7.788480432759468941e-02
9.576944686290332631e-02
7.849741769688567405e-02
1.399638007538624718e-01
1.165155650646720747e-01
1.352482646778100095e-01
1.252377409521711893e-01
1.188659240551673824e-01
1.113878658612875577e-01
2.219749531031274814e-01
1.474246099031747692e-01
1.407472761530076111e-01
1.716981430940658360e-01
1.804366218132954502e-01
1.550440594416220286e-01
1.461464281118080022e-01
1.746036218252076389e-01
2.023241986753969712e-01
1.567400663013896467e-01
1.915728819433520358e-01
2.383955948100417166e-01
1.930978868053001563e-01
2.229866498568094102e-01
2.118275882760293771e-01
2.022144323908026675e-01
1.977540376519044962e-01
2.211076193424565961e-01
2.159189022692543369e-01
2.081240546833690030e-01
2.690208636109985285e-01
2.308888769049919354e-01
2.322049158268104652e-01
2.443413461307101797e-01
2.712740632669887741e-01
2.039152771611616732e-01
2.012001208793691154e-01
2.082038770943126227e-01
2.549862216385794245e-01
2.696309411179430016e-01
2.496736181891489603e-01
2.231252026969215985e-01
2.211023420550812524e-01
2.118493131674979157e-01
2.292720653463631852e-01
2.791034485047062530e-01
1.840158681288257825e-01
2.843081600481178750e-01
1.654870863458871022e-01
2.064220004924643970e-01
2.010475348615485547e-01
2.490769300589183999e-01
2.061355824218858157e-01
1.831302717461419372e-01
1.357640394363399949e-01
2.213662691309649933e-01
2.517416005083181196e-01
1.824856816604263077e-01
2.042718201976699011e-01
1.908172394617699275e-01
2.090310301712565155e-01
1.646405334066261827e-01
1.901014036936472251e-01
1.518317153302094213e-01
1.347717798092709363e-01
1.435577437727192096e-01
1.641822350684303822e-01
1.083955917435377031e-01
1.335147105433554804e-01
1.327816208616728055e-01
1.116385446936339898e-01
1.131231783574236371e-01
1.505735465080164370e-01
1.807630276187084661e-01
9.908462781805016384e-02
1.463930589752507616e-01
1.171915044255823629e-01
4.411607849699712008e-02
9.393946696033605992e-02
7.685024664688289153e-02
9.199607226119704828e-02
1.190910996399612426e-01
6.013044533723226059e-02
7.773044491954704538e-02
8.949842762756698988e-02
7.541942102299135919e-02
3.942823467485082056e-02
1.158390899137079211e-01
3.135104322413343608e-02
8.718352512392028852e-02
3.393732074729302606e-02
1.169225268092305703e-01
2.682571035522818975e-02
-1.556686575960183894e-03
5.320751930267197949e-02
7.797190695820864492e-02
4.271918906026579005e-02
-3.838818914575332052e-03
4.139768568503510160e-02
4.582811096646021570e-02
-3.456887410669259517e-04
-4.893102051047214240e-02
-2.832043322546100306e-03
5.519524433807051350e-02
-7.820423832378955650e-04
3.580173799773810756e-02
1.313469477705134919e-02
3.900464639916646076e-02
1.928096593670019371e-02
5.309320872018034182e-02
8.913017736599926355e-02
1.514970444372988091e-02
7.056471844387272874e-02
1.612696055254433589e-02
-8.412918806071981864e-03
1.408614923133028225e-02
-2.505609644060785915e-02
3.666511292804124598e-03
-1.435175830124229938e-02
3.403472004149102337e-02
-3.451362767682562144e-02
9.466165573610844930e-03
2.470031243810616797e-02
3.754330691653816332e-02
1.552426723008065550e-02
3.182357963941988971e-02
-8.589490409397909643e-03
4.678767756123641125e-02
1.611518324745843389e-02
3.136770683165709950e-02
2.982170221202820604e-02
9.715755074073894118e-03
2.754828593979611467e-02
3.379959418616446803e-02
7.333087135979424187e-02
4.936902177878820658e-02
5.819969984506644101e-02
1.216915603875337870e-01
1.328417521185817352e-01
2.508975232954861051e-02
3.728137310382082653e-02
7.608970019996810774e-02
7.926358920801125640e-02
7.544587011151279721e-02
7.753514883662362966e-02
6.740421596119447467e-02
9.627492965346516607e-02
5.375318235529141786e-02
1.162988745663593448e-01
1.396094431145886994e-01
9.198649378728460113e-02
1.296251475732463632e-01
1.634187373209992078e-01
9.511387915410449145e-02
1.445455832826065545e-01
1.596992696083372743e-01
1.110323651861485211e-01
2.151610921813721933e-01
1.384577341907775594e-01
1.655498239635468383e-01
1.851186065110387025e-01
1.254232968710614071e-01
1.907129770879530950e-01
1.781868435203662338e-01
2.221603460144249420e-01
1.903529637812546860e-01
1.878765670885369776e-01
1.664932975208359422e-01
1.457854826790905556e-01
1.299851446246481634e-01
1.874460917229336110e-01
1.515302956139983614e-01
1.696157819956502499e-01
1.716318450389542338e-01
1.441261119643684474e-01
1.940705827331079547e-01
1.588631751754562282e-01
1.707449460070792069e-01
2.086229080780359901e-01
2.269981318792227976e-01
2.051144387300060379e-01
2.273593098289110326e-01
2.260297731972374102e-01
2.078107954710326777e-01
3.082363351371268934e-01
2.944354180796535103e-01
3.884608730596297854e-01
4.387995212811425239e-01
3.969958008706765962e-01
4.753597832196633233e-01
5.551954996028768408e-01
5.862479797709034823e-01
6.917088021077528737e-01
6.722559952975711850e-01
7.779114990912719962e-01
8.431992499010851905e-01
8.957536728278571170e-01
9.051587919631928214e-01
9.656819994084494541e-01
1.033998300220156263e+00
1.088632552420249811e+00
1.108932272451270906e+00
1.170148795810258102e+00
1.109514281959564919e+00
1.119203767832653629e+00
1.163224713222841711e+00
1.079975283457712543e+00
1.041480655913236797e+00
1.047602339376924929e+00
1.012651840255135882e+00
9.624400177041320115e-01
8.425172282608988095e-01
8.692550927985626119e-01
7.540987766714261076e-01
7.004238208768812646e-01
6.125562619185613844e-01
5.062454990119106268e-01
5.346307806874357471e-01
4.663452209334534304e-01
3.947492977560318472e-01
3.991268414224615757e-01
2.845309327007459754e-01
3.199158142511531744e-01
2.742511127102569279e-01
2.694215228104817061e-01
2.453595021122215170e-01
2.339706846966129739e-01
2.220980573797677604e-01
2.028137981650322275e-01
1.978407583805669168e-01
1.594902782878919456e-01
2.213374189396700165e-01
1.752330041368877489e-01
1.825417080561413663e-01
1.812025274824801135e-01
2.159631667863236015e-01
2.149862676846938936e-01
1.893133458818473114e-01
1.801349999226407317e-01
1.889928560768455723e-01
2.310978178619573220e-01
1.896917967573061026e-01
2.040395624299731481e-01
2.766022382490027076e-01
1.943629406912108781e-01
1.973727640074131595e-01
2.583402816672678570e-01
2.832226655249280856e-01
2.391423012401985293e-01
2.372763068344367343e-01
2.591621899006304464e-01
2.073918196095954625e-01
2.544727304286451552e-01
2.362366051827269886e-01
2.670822948809616904e-01
2.724858945143295852e-01
2.458195490723862342e-01
2.497265694888246013e-01
2.757568036061984751e-01
2.689162984384548816e-01
2.445492322504901894e-01
2.436918239832620847e-01
3.040090403029183652e-01
2.152541055538566561e-01
2.670853564147806503e-01
3.009388185934117610e-01
2.391298706823308806e-01
2.693550516787334703e-01
2.772174148988721942e-01
3.031472064182508808e-01
2.737348116603631198e-01
2.943261544550144770e-01
2.915929554824785996e-01
2.749197210131700819e-01
2.784611774026025111e-01
2.923245881034050586e-01
2.814674271356326640e-01
2.950916425666931797e-01
2.339057750845171813e-01
2.794641587037537955e-01
2.309772297528021046e-01
2.012262375532059000e-01
2.535376947205169595e-01
2.474618792151995761e-01
2.331654505195248361e-01
2.486613530906073843e-01
2.692817694057769162e-01
2.323163733425784583e-01
2.177871156789740192e-01
2.452948050990610418e-01
2.042643221124968433e-01
2.492623406831953881e-01
1.711114483344834958e-01
2.422396610541426853e-01
1.928227783176539589e-01
1.680244170829192085e-01
2.074704927587849301e-01
1.758753709422602174e-01
1.953224365711074273e-01
1.448150054135928233e-01
2.096888791815981201e-01
1.766316404590510258e-01
1.952586332358700050e-01
1.560441629821048004e-01
1.132597700840710375e-01
1.503193245641779585e-01
2.314573122645252612e-01
1.157510932949243343e-01
1.537897189358284067e-01
1.590993606619796608e-01
1.306951499750811652e-01
7.659950667308798589e-02
9.046314267646345109e-02
1.353750192989487677e-01
7.739198250134127210e-02
4.975951605721436882e-02
9.710033300852662086e-02
6.568527381633565421e-02
7.143163467239405096e-02
1.004580185032615536e-01
7.804396901899962602e-02
1.385213321022108202e-01
1.180984280084796806e-01
7.152318758834762258e-02
1.225877042026283087e-01
9.334052507595166914e-02
8.146825818713418488e-02
8.491273963830522908e-02
1.126840430355589839e-02
5.575124879946052880e-02
4.735499161743546293e-02
3.555401799476072544e-02
7.032535909752388181e-02
1.007803816009637393e-01
5.411654343979679926e-02
5.978855838787389132e-02
6.717433452666390914e-02
7.579546854527879907e-02
6.080620139554404613e-02
2.162583563452622620e-02
6.058528065394119810e-02
8.388858125537129728e-02
7.015265831486322545e-02
8.902545850294713015e-02
1.103199501942480620e-01
1.093819999954430688e-01
2.880969186907598317e-02
-7.854297453054784328e-03
-5.775862779381871204e-03
3.438073542888109291e-02
5.764312796041325127e-02
5.742136610870952201e-02
5.167084323041123278e-02
6.064588027055579922e-02
5.746848786710376938e-02
8.164326075317704379e-02
6.910960539380332779e-02
1.536454329817641129e-01
8.193713009358893906e-02
1.133289494053178192e-01
3.927346267076178149e-02
1.253855457671177454e-01
1.128477429141605815e-01
8.147520129724292182e-02
6.488679656887400005e-02
1.008850025355440272e-01
1.429017084003617044e-01
1.075431401104767482e-01
7.559874269018576620e-02
1.264089703802086240e-01
1.063019310123008848e-01
1.291009965546522364e-01
6.603433173646744425e-02
8.813956655287902286e-02
1.647961102704117720e-01
1.898047081365658861e-01
2.058486562034947953e-01
1.868852750740237767e-01
1.292827701028889664e-01
1.745033139933245270e-01
1.405270198360075717e-01
1.937684967145510417e-01
2.195339848100720803e-01
1.539819123319776939e-01
1.507372516517529182e-01
2.134028720079221564e-01
2.429828600063161648e-01
1.614808508101484852e-01
1.808238341626262902e-01
1.719531499660804097e-01
2.132406025007292094e-01
1.913200032673629536e-01
1.855800346173166748e-01
2.381862430883101289e-01
1.963957685074349535e-01
2.220357610636055634e-01
2.167527617345865465e-01
1.637327632133550315e-01
1.984284233135742426e-01
1.724544037241169669e-01
1.711976905483318934e-01
2.172220866661606631e-01
2.157584930662463929e-01
2.610420103696757810e-01
2.155804199643548968e-01
1.991555586886414320e-01
2.042220897706006066e-01
2.167071389527481240e-01
2.636149829998979954e-01
3.004708053559099756e-01
3.342380239990633273e-01
3.613068552435629854e-01
3.749067116654478671e-01
3.822605424327593648e-01
4.430425992456378248e-01
5.092895586306585010e-01
5.331403672874223121e-01
5.503955165760686663e-01
6.395967665517113820e-01
7.261238956568178970e-01
7.361271247691401065e-01
8.339286989176819542e-01
8.693860418923754496e-01
9.300740283981011602e-01
1.040113966436568838e+00
1.101386077238726946e+00
1.089508912291206055e+00
1.126137102450608829e+00
1.115492656582000031e+00
1.187128817629298894e+00
1.162687618871210082e+00
1.217110943402541556e+00
1.085098044899081460e+00
1.065830828323724777e+00
1.103476676941553158e+00
1.036713901508767188e+00
9.788406553573458790e-01
8.637476551127617475e-01
8.842949873621747114e-01
7.831284089052519271e-01
7.371007070371323744e-01
6.724641921822186452e-01
6.693743741696678295e-01
5.574879497296547637e-01
4.666219495540979700e-01
4.867384842687734747e-01
4.089097413986978458e-01
3.965689213320549023e-01
2.902183652820717330e-01
3.153941100012838117e-01
2.536011605681711134e-01
1.978679859450721557e-01
2.720188131318214131e-01
2.407796208025445306e-01
2.340877343820024215e-01
2.316800032538620102e-01
2.511891742756883206e-01
1.975553891219654634e-01
1.619250138746087808e-01
1.710188167080296806e-01
1.650066245621406302e-01
2.404858975808090438e-01
1.915371268297579033e-01
2.459164531876797677e-01
1.893302319295745717e-01
1.980572468417836074e-01
1.717099691654972726e-01
2.277791405371686895e-01
2.287017913335908093e-01
2.189887181473431921e-01
2.331596066986424409e-01
1.922376142821992928e-01
3.102492436041562884e-01
3.322680356605289820e-01
2.621913078502782768e-01
2.376615187708605581e-01
2.640645168964393941e-01
2.332183358809810647e-01
2.700803570608765747e-01
2.959840346778962461e-01
2.681249704987506144e-01
3.016445582953150018e-01
3.166744454574029199e-01
2.905922520612247983e-01
3.274805714894383768e-01
2.972297523779492967e-01
3.003015054921308602e-01
3.079598037905197372e-01
2.983268789181668934e-01
2.982236935831745761e-01
2.864693127291522146e-01
3.080781266829303866e-01
2.811357817715687268e-01
2.934894682422946599e-01
2.747981964678084532e-01
2.708367975899459434e-01
3.000772579680573982e-01
3.251078762569489800e-01
2.462665785550441355e-01
3.049074785534450216e-01
2.600783696587053995e-01
2.518351148326829492e-01
3.147956915549985357e-01
2.702140643108992268e-01
2.402567660887631462e-01
2.413543049380542371e-01
2.710901306999710658e-01
2.419346175879821814e-01
2.696049538889700448e-01
3.024994912958606230e-01
2.976252518328550423e-01
2.578031811294339004e-01
2.636424510227771689e-01
2.177315240443228328e-01
2.424790025074870514e-01
2.156700496688255253e-01
1.961818481976596862e-01
2.207086933143944940e-01
1.771560025156599383e-01
2.421098285229109082e-01
2.323930816227335883e-01
2.514346060049199583e-01
2.146721312687130123e-01
1.590271838482093802e-01
2.102052298312560852e-01
2.318233166680698787e-01
1.453778787601357481e-01
1.725518065110940857e-01
1.773468997366990652e-01
2.271968810095459368e-01
1.679361267117213119e-01
1.317902752031667180e-01
1.485434337900341517e-01
1.663224100514221204e-01
1.363342501660496087e-01
1.311802180016346520e-01
1.606086711406174428e-01
1.811328155518565908e-01
9.954594994269964914e-02
9.123246917723916438e-02
1.143591383089581776e-01
1.451891097125805052e-01
1.146900491356142443e-01
7.558422555591678971e-02
1.443437994574249261e-01
1.032525753938820512e-01
9.963350767462947344e-02
8.826161253158909537e-02
8.299287687454778850e-02
1.356317829695369570e-01
7.041055754307287695e-02
1.047378344175605991e-01
1.061176758751461724e-01
7.222656205759508952e-02
1.030319885487310516e-01
9.112009588138900162e-02
7.831977009186011363e-02
7.540984381630830291e-02
4.341282274746750824e-02
2.541852583817150874e-02
1.006405815307200996e-01
4.605090867794593701e-02
1.063918253211533632e-01
2.781524061087234378e-02
3.435674172494478790e-02
8.508658622301804031e-02
9.177603618513212325e-03
9.064180611461098575e-03
6.716933625364003568e-02
4.846790464097759654e-02
7.699305921214577575e-02
5.230992380524789043e-02
5.228509828215324035e-02
-1.064849052631835352e-02
7.723016819487561746e-02
5.032738808267579744e-02
4.066011105365527345e-02
6.529212948396817540e-02
6.089354411628861152e-02
4.778056413335383251e-02
6.108842264139634215e-02
8.121153249789729578e-02
4.982795600653754098e-02
6.553641806362382749e-02
6.190562223752001797e-02
1.394729103305061002e-01
6.449813070484956834e-02
5.960403820503726302e-02
3.634745165679077739e-02
8.068043398565041824e-02
7.464172123032471184e-02
5.708226629574326277e-02
6.133254374918480772e-02
8.871299855034481263e-02
7.791033769549543520e-02
1.171433464655531609e-01
1.335323105905410479e-01
1.290476197136625203e-01
1.585281772640278752e-01
1.069175150493123366e-01
1.277183528004262048e-01
1.542908378524544266e-01
1.456295727559839270e-01
1.552587291924177881e-01
1.462892456045890299e-01
8.461233580898430695e-02
1.644842704607767103e-01
1.876713360874003034e-01
1.635757425523373942e-01
1.150918770342357622e-01
1.488273938488251513e-01
1.846464750808790301e-01
1.705610813292781081e-01
2.104174886605194306e-01
2.015558448729698193e-01
1.807215872341716989e-01
1.664804494559007086e-01
2.076771303165216576e-01
1.825197004553873459e-01
2.124582064283332683e-01
1.753956483748854711e-01
1.224803061342480959e-01
1.935003881388263347e-01
1.695836759766800872e-01
2.010117505606226762e-01
1.748518404079157929e-01
1.854066744675647305e-01
2.100777021881083395e-01
1.732029421843368500e-01
1.401955834849046845e-01
1.850349077560416999e-01
1.890107822739564014e-01
2.305847834331060942e-01
1.566978853765272905e-01
2.442074365383707368e-01
2.540901610978973935e-01
3.160565150540199930e-01
2.801413859718546728e-01
3.219057772329456668e-01
3.695710880394212916e-01
3.462807895712523010e-01
4.280444353825992310e-01
4.815790073805031879e-01
5.016658452117472855e-01
6.650755848860705477e-01
6.420392403377658264e-01
6.924386686837838978e-01
7.516669180644591775e-01
8.195175526998231819e-01
8.692534849851478729e-01
8.882365985333280367e-01
9.176216476013843160e-01
1.056409598500017477e+00
1.054388075461882179e+00
1.120069594000122182e+00
1.159654436911896180e+00
1.159667091624070556e+00
1.141497174970863338e+00
1.115410344264730291e+00
1.124334751304489455e+00
1.090124916377447128e+00
1.048721329922477352e+00
9.743648019418158501e-01
9.512639238855632451e-01
8.782714883858859789e-01
9.046996258371819977e-01
7.751327134512454586e-01
7.414932479903066920e-01
6.742670486835340427e-01
5.795910618923132418e-01
5.244691099681931812e-01
4.996763085219960709e-01
4.462416799608915352e-01
3.355393342958053471e-01
2.879655027332980732e-01
2.803059606874045429e-01
3.248585168608420504e-01
1.774885799233602846e-01
2.134503457017623840e-01
1.726051439943802057e-01
1.602806886019265686e-01
1.585436249938476649e-01
1.056403874929256054e-01
1.792911921376985906e-01
2.096221037649202701e-01
1.681990334485969629e-01
1.319355157427301029e-01
2.197336795580063784e-01
1.772217885832746420e-01
2.167152162193451415e-01
2.025511975901185258e-01
1.617316922702998483e-01
2.193763343683352851e-01
1.884006525440052315e-01
1.874856746242518357e-01
1.947942856062305772e-01
2.189309142020996191e-01
1.905027006640886977e-01
1.726473023691668107e-01
2.107747145838140823e-01
2.066198450753374827e-01
2.396411436960662611e-01
2.586990094195634193e-01
2.152565755909986722e-01
2.101313069694088487e-01
2.118150720685232358e-01
2.350801962962041913e-01
1.998160811595846575e-01
2.469291332923408966e-01
2.253638606927677590e-01
2.446352138548684163e-01
2.619014701036586068e-01
2.658154203445395880e-01
2.581296915862265062e-01
2.513941658806768675e-01
2.710991460509218909e-01
2.606860621051320104e-01
2.313752793729281776e-01
2.923116693827342294e-01
2.164908762165647371e-01
2.798334093826662095e-01
2.806353089432645498e-01
3.181411728970356401e-01
2.441430938423926889e-01
2.774103385435141012e-01
2.639188710759520218e-01
2.629384632308149339e-01
2.426888583671329702e-01
2.690165332499592221e-01
1.854673117963773765e-01
2.671276572792055659e-01
3.072474797290832282e-01
2.053080234910792390e-01
2.409686500158137734e-01
2.445219037005887663e-01
2.439997184905794703e-01
2.044450286648496484e-01
2.257417583835518993e-01
2.105737091866158872e-01
2.168334109340378513e-01
2.069848076048925734e-01
2.068207060338835002e-01
1.289201201844988876e-01
2.428061002177354932e-01
1.766510669529164634e-01
1.426444653821236919e-01
1.612294208560968722e-01
1.800199752935557340e-01
1.427004156788861666e-01
1.681995431880635439e-01
1.983146273842435747e-01
1.564164880667888724e-01
1.150387488234561884e-01
7.469768182349718899e-02
1.450018534791591429e-01
1.272067232786451285e-01
1.495823998174150571e-01
9.717059353017332146e-02
1.076483046478429323e-01
9.024110900570934957e-02
5.453447517226604757e-02
8.688963766039081715e-02
7.941539314265987082e-02
1.043400901092983446e-01
4.568455504429884406e-02
6.944358916365440948e-02
8.090312126925552905e-02
6.598099041030867917e-02
3.379475504895663313e-02
4.443146375300453116e-02
-2.409296090565388529e-03
5.862667763792119707e-02
5.386567221382292103e-02
5.987425170987219214e-02
5.004768207328102320e-02
4.013338800547847779e-02
2.272445058190910444e-02
1.351777658075298608e-02
8.597468743404279579e-03
6.993641982670048551e-02
8.290141705149216278e-02
6.839997310895384874e-02
1.303821015974121200e-01
2.572982437497974006e-02
1.692200822584510531e-03
-3.021475651830163311e-02
-8.415171263683169853e-03
-3.812941492026026072e-03
6.052446030275857730e-04
5.004645134134091261e-03
-7.651368267481090113e-02
-1.139836070043518182e-02
-5.507865999690790895e-03
5.370371883513887570e-03
-2.826614770527889273e-02
-2.828255230487874625e-02
-1.165432644243379230e-02
-1.546249569904372019e-02
-5.597519184825016855e-03
3.193851312213339538e-02
4.990983002593522844e-02
-6.180063672014809301e-02
6.749849001463898920e-03
-1.045070423123331885e-03
1.620676487044393072e-02
-1.967766041309723657e-02
-1.306181543361985449e-02
3.611242725971875595e-02
5.040755431468774139e-02
2.394970344658470252e-02
-9.863801681421192208e-03
8.163004263186340870e-02
1.597456148101533691e-02
4.569272034195422105e-02
-2.145689026515941109e-02
5.072104581256137168e-02
2.314015188193562639e-02
1.342103594940401157e-02
3.369823427718941777e-02
7.506149635041299562e-02
1.250997162169781018e-01
1.172007258219611159e-01
1.002782220866652307e-01
8.533727365188968628e-02
9.258547817411151570e-03
1.055374741234395702e-01
6.550738936629782461e-02
9.624562052321646022e-02
5.339985713470233458e-02
9.663044248929959779e-02
1.021511081434609697e-01
4.321086981445827063e-02
8.178483816587565902e-02
8.760190324607618206e-02
6.988763668966280207e-02
1.116364187897392057e-01
9.196454328627007291e-02
1.284901464969512019e-01
7.033057094398206810e-02
1.556448496129875236e-01
6.402318392915795631e-02
1.859957994350997512e-01
1.224375468682848689e-01
1.233570066654492842e-01
1.573228376017233032e-01
1.237028590212200935e-01
1.321426385813434246e-01
1.120057136574586637e-01
1.496420805986188041e-01
1.902913370933799753e-01
1.216861088084864873e-01
1.313573912962885948e-01
9.420742192307669793e-02
8.229314727867598211e-02
1.319437417981301763e-01
1.881901256464891536e-01
1.218222201938724270e-01
1.368180044430092890e-01
9.847169594199794984e-02
1.501940050732933907e-01
2.299913609443198781e-01
1.790991701011138415e-01
2.162958359830273736e-01
2.645251513217710126e-01
2.403762810357260582e-01
3.427917308632836280e-01
3.491797244099777986e-01
3.620172304006307185e-01
3.456457975723903342e-01
4.671910373714276421e-01
4.956663071469701309e-01
5.492938763074906028e-01
5.533450629820330091e-01
6.686458731275093381e-01
7.070939445497391729e-01
7.622213589179360760e-01
8.060014570384456123e-01
9.403328582511505385e-01
9.207052122676780970e-01
9.771487373482463656e-01
1.037784398070680458e+00
1.075717033641626630e+00
1.050983199044016159e+00
1.097226876358795566e+00
1.070848980296026598e+00
1.032690553442673354e+00
1.000038541787646063e+00
9.886061083592055931e-01
9.297352469765810534e-01
9.101873183788898869e-01
8.025703241652712983e-01
8.169901252662774560e-01
7.576039215257345250e-01
6.642237115237265010e-01
5.648495041167335140e-01
5.853648091622639660e-01
4.929063356914773486e-01
4.571765301005386584e-01
3.759281751272671168e-01
3.186671500469397955e-01
3.000169556202489929e-01
2.464626682388115220e-01
1.970274524266185934e-01
2.213720737516627346e-01
2.182625734243683613e-01
1.693062033489083629e-01
1.468906982777747616e-01
1.223230528467756928e-01
1.097070593219584000e-01
1.427016232860442435e-01
1.219685929532150770e-01
1.127551601981234275e-01
9.908258467400482550e-02
1.665419086899233014e-01
1.097506094980824076e-01
2.051337140557832062e-01
1.287672158923026111e-01
8.495762723375802072e-02
1.334888549776342137e-01
1.272253824700934066e-01
1.203282142494677409e-01
1.536073273841534748e-01
1.352460452662325729e-01
1.478026771878681034e-01
1.099180478622103219e-01
1.369120170204624620e-01
1.717928694741508444e-01
2.048613127815364365e-01
1.796682196494882588e-01
1.723054713378050495e-01
1.646995171956482373e-01
1.213816083007934338e-01
2.305768935242761275e-01
1.672480193942856574e-01
1.754409873793136843e-01
1.829133931669629509e-01
1.848367093590458921e-01
2.081886753804787493e-01
1.746179528429267491e-01
2.417049529852128842e-01
1.884746264482589362e-01
2.091742919373263121e-01
1.527096965061325862e-01
2.199607540453926702e-01
2.127733816635976050e-01
1.904788941417859260e-01
2.345018459370109831e-01
2.242710523727111938e-01
1.683319628339247642e-01
1.950003674823613808e-01
1.873508932534611038e-01
1.880663715388089519e-01
1.724240342058686593e-01
1.731896153450609710e-01
1.965479546041709047e-01
1.867184686658702186e-01
1.728922694980447594e-01
1.667988693237088538e-01
1.692492906423751775e-01
1.584446580998054022e-01
1.348014003617717116e-01
2.217874281535928693e-01
1.915025578336392864e-01
1.385387455981739457e-01
1.331834383207624040e-01
1.898335492289300874e-01
1.591550847507230970e-01
2.094773794608559836e-01
1.287075698682971781e-01
1.282168063677896486e-01
1.507804251532218753e-01
8.879002039488190223e-02
7.501455616420726891e-02
1.113735500906915532e-01
1.476024416970911357e-01
1.047532661236999507e-01
8.619780077272519436e-02
7.813555913278247278e-02
1.495321320107894092e-01
8.645459245422068562e-02
4.855746532177764030e-02
5.814168998102377250e-02
6.651122228250289092e-02
7.797179994886732635e-02
2.262155294922378601e-02
5.420660355608347691e-02
9.414417349512010924e-02
2.808003050695520586e-03
-1.163513424270373742e-03
8.348553105485223558e-02
3.122441259398516661e-02
4.071509215841713492e-02
7.861365289114041754e-02
4.515095548903710898e-02
1.454036133059843222e-02
1.118200166214344121e-02
-1.370705565084912037e-02
-1.908290986792238533e-02
5.066326060036477341e-02
1.447165740206771828e-02
-1.796132343053654171e-02
-3.047997670941844303e-02
-3.744860252306458914e-02
4.547244144714349123e-02
-4.667370693653527525e-03
8.493100770114100917e-04
-3.174181041528464919e-02
2.534267329976393895e-02
1.731018530838950020e-03
9.152472533160330159e-03
-3.288822019780644756e-02
1.056995465384166083e-02
7.091494490544303364e-03
-4.229172919498099675e-02
-5.237527078030784766e-02
-7.584809804909511954e-03
-3.483271203826339424e-02
-3.076469478092665535e-02
-3.458937470241540274e-02
8.770182415703195455e-04
-2.708404844100216827e-02
-7.379746998803338176e-02
-1.216103753696389650e-02
-1.224002503304828793e-02
-6.294219928081824789e-02
-4.122675235292585366e-02
-3.050151637621074940e-02
1.950980316852007207e-02
-7.867574564841731122e-02
-1.734250606232923264e-02
-6.313827131893262612e-02
-4.300738424825083228e-03
-1.793582395941190066e-02
-5.895362222915491446e-02
-6.196062446306949134e-02
-4.536796541023502272e-02
-3.204050212990288554e-02
-4.123004369027259697e-03
-3.023486450671659595e-02
-3.045418984503701909e-02
-4.147181822178504229e-02
-3.215452954156002019e-02
-2.898961200911448141e-02
2.372466510894944564e-02
3.210780409657040119e-02
-2.556333799204489610e-02
2.761624172526924020e-02
4.345085422120907592e-02
4.888359851172008330e-02
-2.539366804166015568e-02
2.548523746786702376e-02
2.662560761479754179e-02
7.768180212748858338e-02
5.136727158947709815e-02
4.589055432293857872e-02
4.078955370053966717e-02
2.742780516294841819e-02
9.874463843635433724e-02
9.717385529371494468e-02
2.077762243878344961e-02
8.374982620540402656e-02
3.779606785451149198e-02
8.817936919086284686e-02
1.585190471551119196e-02
1.219820782427386563e-01
5.906906919588451182e-02
8.777746461890631458e-02
1.058099055666152921e-01
1.224117279203364717e-01
9.148439891756222908e-02
1.250224508220884045e-01
6.827986577063460683e-02
9.752484839842841258e-02
8.995807784336365409e-02
8.361327589545219929e-02
8.188744854822896380e-02
1.466264134254462448e-01
1.342046640912908928e-01
1.307160508691903589e-01
1.443795871309919432e-01
8.516797397859446339e-02
6.090325479282054921e-02
9.235768820777234822e-02
1.301093659882180398e-01
1.359374955706010302e-01
1.281039224014590971e-01
1.152709969565993420e-01
1.271088497591700561e-01
1.132374673251753672e-01
1.808015501168070971e-01
2.096215388630617571e-01
2.814070224996287339e-01
2.448519305069459251e-01
2.895527051700365062e-01
3.964296952978902944e-01
3.477525476343092392e-01
4.725979590536755759e-01
4.743555658736229308e-01
5.865830000062330907e-01
6.145444591943168833e-01
7.251449291631225647e-01
7.698639423809201521e-01
8.343130372318861010e-01
9.018552548168722316e-01
9.286833461681431867e-01
9.436267225978748341e-01
9.884900149900026634e-01
1.021380032926937353e+00
9.828860136830032124e-01
1.041720425262506300e+00
1.069415995700993438e+00
1.034536834917040959e+00
1.069126588058934235e+00
9.547600587057454291e-01
9.383550864170764338e-01
9.050366581741164929e-01
8.242822178387603227e-01
