1.027227154837942136e+00
9.799912769994856276e-01
1.030826105920185309e+00
9.785245116065557358e-01
9.849637967668196659e-01
9.165902841589829153e-01
8.077601844286718125e-01
8.267509463618731846e-01
7.315439213819846520e-01
7.084944803543253844e-01
6.603255001267924751e-01
5.878661798905140401e-01
5.406121213303085593e-01
5.023971534235533998e-01
4.206589386911224748e-01
3.330368247704241225e-01
3.095770134198394530e-01
2.869563269837841490e-01
2.597420597461864156e-01
1.832362841904372208e-01
1.891007539023448203e-01
1.990182075386693061e-01
1.570044019792226631e-01
1.096305248585639491e-01
1.544200821929620215e-01
1.128648577521985108e-01
8.812728290840129985e-02
9.998484754526321128e-02
1.130310839431923342e-01
7.181264657976993426e-02
9.149232984875915742e-02
9.988174018685780364e-02
1.923256534260781025e-01
9.026739493438883100e-02
1.080604999200078520e-01
1.220764237888769949e-01
9.904409426047836029e-02
1.551603471121787980e-01
1.830905130322253438e-01
2.056297017973366670e-01
1.490458151587487901e-01
1.684128774707352727e-01
1.819668514909889012e-01
1.747991837955039374e-01
1.376629486018197679e-01
1.845127830170364691e-01
1.931269751375495058e-01
1.917391471611876730e-01
1.659319493380321253e-01
1.643619171759801989e-01
1.567309435570025111e-01
1.984026015385356168e-01
2.022216396622082413e-01
2.251736384852305872e-01
2.165862098477207009e-01
2.073722090590003342e-01
2.468800063612329176e-01
1.626166054996846244e-01
1.557352900114050143e-01
1.929374947416480079e-01
2.170949119985157438e-01
2.295499275176159926e-01
1.934504513599345221e-01
2.183341668693238591e-01
2.569198609267598354e-01
2.191455470928994342e-01
2.317776633063832192e-01
2.381771301031252452e-01
1.902161032154260356e-01
2.299531924411642170e-01
2.244989856497390801e-01
1.803130721168482165e-01
2.369540690642580882e-01
2.096433287499439024e-01
1.978117833632958011e-01
1.847543650104097879e-01
1.856923164955352756e-01
1.697704818632033152e-01
1.677397878119138708e-01
1.598836317632839621e-01
1.600776634979500790e-01
2.017102486690236784e-01
1.482567748820225462e-01
1.693553380022146393e-01
1.652974243300049106e-01
1.620436813644689500e-01
2.187473014450621589e-01
1.577073481221667184e-01
1.314638867685750112e-01
1.375318321901726204e-01
1.137639793108856517e-01
1.363972352785581266e-01
1.390124667132184855e-01
8.279720793394419742e-02
1.121344294121797147e-01
7.358236149812355520e-02
1.329449667110056132e-01
8.327478604082939884e-02
7.694955111189723251e-02
6.577021935760762883e-02
6.318336649734659916e-02
9.214544454592105138e-02
6.330869884611001197e-02
2.941665504977872270e-02
6.825067603768253388e-02
9.747200355671387095e-02
3.631845710107626385e-02
8.223482063150427956e-02
1.654830236608523242e-02
7.292048428088292178e-02
6.486903427269158362e-02
-1.261642872071924715e-02
3.291845220556345597e-03
1.618201803283793316e-02
3.755220827554352908e-02
2.557529079158128021e-02
1.912313086094286768e-02
4.795983272971925115e-02
-6.625632151660265645e-02
6.452530328679013938e-02
-1.338500704840992622e-02
4.956731607445283294e-02
-3.268707389405934444e-02
-3.372671299459000654e-02
-7.106857440373526291e-02
-4.586583340994605795e-04
-9.795407928718996571e-03
3.396232867504418024e-03
-7.011544489897397758e-02
2.278017711455011807e-02
2.640866564205895939e-02
3.337401837844133912e-02
2.576178529669788039e-02
1.414986052031028813e-03
-8.648780416821214706e-03
1.583887240254063314e-02
2.728060920628844199e-02
2.783623729971180377e-02
1.362855950025743113e-02
-5.569684721998893057e-03
1.217536643067958918e-02
9.849682778641895287e-02
3.446580271779546567e-02
3.101195123891678854e-02
6.320279550258312007e-02
6.157459349781062297e-02
2.627867634392428917e-02
2.142534019471821136e-02
4.249332574707054277e-03
5.613480453637281070e-03
9.228662215160643445e-02
4.834756955645394538e-02
6.802223728881040543e-02
8.006529826215373624e-02
4.967382617210896328e-02
8.894574068723870575e-02
9.984358689883685023e-02
5.913891303111717956e-02
3.864148834468243005e-02
7.305410393062866659e-02
8.826345711764593815e-02
1.137467488498868362e-01
1.276326589143677581e-01
1.388797195917611527e-01
1.413423627058791598e-01
1.326340839124738047e-01
9.569813945846421255e-02
9.224127774876511587e-02
1.011614634300153220e-01
6.633455322123699149e-02
9.394100178311606819e-02
1.334837537252709372e-01
1.292013627324427039e-01
8.515667811395667697e-02
1.388117497761583996e-01
1.365827983329133410e-01
1.075306783959957407e-01
1.279347864465354701e-01
1.482073070313618401e-01
1.271741442604354122e-01
1.120469876234228834e-01
1.008403572459743852e-01
1.569585863513986990e-01
1.516794340483208769e-01
1.008615028182592577e-01
1.276782078450488800e-01
2.410920823946432201e-01
1.684690208193112826e-01
1.718250576095998183e-01
1.602580336420443008e-01
2.043016465338974852e-01
1.323636179836715776e-01
1.644394310321883323e-01
2.467650372842238871e-01
2.758740528894728095e-01
3.107900731097829050e-01
3.511951090822146848e-01
3.940211761864980677e-01
3.997980688309745734e-01
5.006465363190091278e-01
5.379598252451379681e-01
5.903186883906008653e-01
6.552122491524656756e-01
7.596710177626180283e-01
8.034319054559033724e-01
8.700028061437740101e-01
8.918367800938226120e-01
9.128202235203976000e-01
9.364040838941446454e-01
1.042323491160424442e+00
1.045687311178644441e+00
1.026325984922398460e+00
1.077535171205482811e+00
1.140678508718204531e+00
1.028031515597764400e+00
1.019647641351018263e+00
1.088313750484006359e+00
9.616358993317762893e-01
9.133999200556289777e-01
9.030198161711274762e-01
8.925832105577756748e-01
7.683236247000246877e-01
6.910788626170860649e-01
7.020986127951674982e-01
5.974178032744631439e-01
4.997432979422538057e-01
4.639462058757802820e-01
4.635606370120691211e-01
3.947250724968534019e-01
3.667054991624741911e-01
3.291791834146637341e-01
2.500080617465038069e-01
2.532423651774801665e-01
1.755983631156357028e-01
2.239438537881188185e-01
1.584436586395099045e-01
1.356180273935120861e-01
1.447629633786952086e-01
1.773254220541415904e-01
1.301094562052866332e-01
1.536014918050538081e-01
1.414126232920007442e-01
1.445724127812393900e-01
1.298990689568816359e-01
1.225661341559239198e-01
1.692450101547229857e-01
1.542405505018742962e-01
1.598871149472795850e-01
1.722786790625731590e-01
1.684423660678026347e-01
2.252937103107604255e-01
1.694494701205169762e-01
2.173314489918098391e-01
1.587914057924134092e-01
1.820486999591587052e-01
1.950343560426015255e-01
1.421889266966949172e-01
2.563323122370629870e-01
2.250686211179958041e-01
1.989035946338467975e-01
1.472248404906867369e-01
2.049442282238918556e-01
2.312270562220094250e-01
2.069030062556332095e-01
2.567836282849497720e-01
2.053810123543033939e-01
2.763076204052086760e-01
2.407376189722190696e-01
2.084944191478272646e-01
2.425306960597623795e-01
2.492066909162471700e-01
3.254270327128064855e-01
2.758637060697118892e-01
2.382374705593059971e-01
2.466514395634274159e-01
3.059341008180879173e-01
2.080803813161399840e-01
2.388335111078244144e-01
2.708144764113390446e-01
2.283192767746841656e-01
2.939819553657095352e-01
2.501956739074245317e-01
2.110163221427374391e-01
2.438382590585830567e-01
2.276665072187813443e-01
2.630347850201958937e-01
2.510084699878611936e-01
2.025713489233832432e-01
2.158580871358268816e-01
2.253016499065680911e-01
2.147598271863506991e-01
2.539212916187966740e-01
1.828556241029120344e-01
2.540849677324342193e-01
2.296680806862566315e-01
1.606485402345947944e-01
2.045735292205826672e-01
1.525487407735088008e-01
1.965755978100622858e-01
1.645266859907939805e-01
1.977856619441582531e-01
2.182733026279566890e-01
1.974472780722526244e-01
1.552169173310457839e-01
1.408297183338109992e-01
1.289604092364749210e-01
1.330956666828354562e-01
1.862629355863000824e-01
1.182080661746129358e-01
1.584589671011281675e-01
1.790664652589367689e-01
1.597775145211602355e-01
1.317821789478048899e-01
1.091514903352509142e-01
1.247249740341320606e-01
1.320642227456160223e-01
9.305904640919887560e-02
1.033162376957027784e-01
9.217136093630978744e-02
1.119853549413765831e-01
1.349635530681417839e-01
1.197389599180341685e-01
2.445356116512747979e-02
9.353986972255844135e-02
2.814077907563214756e-02
8.295057228252135373e-02
8.505812066442219876e-02
9.486943146627557777e-02
5.606512733767105017e-02
7.371544683039579771e-02
9.048443280257646715e-02
7.342340114346271318e-02
1.964716824885930427e-02
6.291257309708367385e-02
1.091896346947392182e-01
1.270045932228919608e-02
3.831380168648365614e-02
3.862252898751943747e-02
7.757737512261703161e-02
9.021262419156386714e-02
6.668083990061837718e-02
6.519133906520960253e-02
5.404317053081700295e-02
6.388947264113591096e-04
1.024571115308986341e-01
3.555522503232423637e-02
2.997117144056758373e-02
2.669743166671238385e-02
1.286394057697904103e-01
5.719717382036670905e-02
2.278638827937104830e-02
8.232992356733079276e-02
4.937701425603638339e-02
6.690861352753228741e-02
4.576871749405347217e-02
3.234506744651156201e-02
7.763660991255018351e-02
9.214520580602068855e-02
7.433448814116427883e-02
4.850763779865091552e-02
1.552712318391951118e-01
3.838966298783161313e-02
5.695791726683584189e-02
8.477091719258533775e-02
1.186203669714250980e-01
1.387099250477888679e-01
9.678103681524923008e-02
7.491199602522069512e-02
5.434729015111575134e-02
1.100204293291284496e-01
1.209634801984110219e-01
1.417086006366657380e-01
1.318469335551483990e-01
1.497582331110201559e-01
1.843822653423418945e-01
1.523507301414110948e-01
1.926681810147131968e-01
1.869631674999708559e-01
1.483324769177203628e-01
1.878665610423495558e-01
2.359534604488087439e-01
1.938155746942229474e-01
1.509758492465614610e-01
1.849415171778064637e-01
1.803767434309834772e-01
1.810150757840071900e-01
1.370890614139999297e-01
1.436567528005965322e-01
1.924692806622041175e-01
1.864867656233036575e-01
2.179472021640239121e-01
1.695041667512378614e-01
1.295639930751863178e-01
2.080796782381657550e-01
1.686341126174322747e-01
1.605571440585328302e-01
1.713730857553358855e-01
1.978004019695453197e-01
2.437055759586467252e-01
1.090372619396597215e-01
1.938412552452362658e-01
2.727879233638603185e-01
2.076496628120800825e-01
2.266789551223147570e-01
2.418695768294760462e-01
3.253715477032825820e-01
3.003962889108131584e-01
2.981924517630988869e-01
3.616232968881123999e-01
4.389040357515407442e-01
4.231009337053394104e-01
5.246007908360827976e-01
5.486670077107975718e-01
5.818619727151861376e-01
6.440673842634171420e-01
7.363902771915982193e-01
7.622520208355814120e-01
7.606152060412062488e-01
8.704992676778998684e-01
9.183445752928439676e-01
9.927868560942438858e-01
1.027025329172588375e+00
1.099426005298252074e+00
1.064698753891790028e+00
1.096884605008535685e+00
1.101377080653296536e+00
1.144686592339889453e+00
1.116251559822054151e+00
1.095986863164784220e+00
1.059320222881304341e+00
9.984867606709897370e-01
9.253216553767942276e-01
8.869492442542248334e-01
8.842432950604877107e-01
7.931992362702754429e-01
7.141113052043770448e-01
6.882659061252758281e-01
6.475547623688172605e-01
5.561036177426259552e-01
5.319278015632898926e-01
4.970115185106570577e-01
3.940340335450998599e-01
3.831397287943761887e-01
3.334515295064083285e-01
3.029874479878870708e-01
3.045871732662647768e-01
2.316771050930300224e-01
2.225329811935767566e-01
2.533372456666847516e-01
2.507522021417459834e-01
2.337356734592543894e-01
1.929715337572916745e-01
2.042834549663957444e-01
2.581296632407502067e-01
2.279302961439194364e-01
2.438409269425219628e-01
2.267272072422772122e-01
1.485720426875812850e-01
2.085537204799707833e-01
2.339593894433106835e-01
2.131222213025760481e-01
2.259999464800707680e-01
2.209885373531360608e-01
2.445042051857249654e-01
2.167131194913593795e-01
2.180424177230032567e-01
2.193645831463096330e-01
2.396715568519368622e-01
2.074669716518870999e-01
3.179527791430374339e-01
2.262730324454191588e-01
2.915188871433094797e-01
2.313610045650528468e-01
2.756743955810159186e-01
2.576672798708439238e-01
2.776715208223761722e-01
2.875534075343977314e-01
2.663745508899231229e-01
3.323445942293066779e-01
3.265247487846694718e-01
2.721268271777338987e-01
2.340752088087555416e-01
3.241035489380290624e-01
2.634579720894719701e-01
2.622707974643073703e-01
2.590784068942648122e-01
2.686551845404024363e-01
3.136293549125969693e-01
2.433085142497565245e-01
3.079609667642047022e-01
3.441909279890561502e-01
3.070835053434708417e-01
2.804058518067263917e-01
2.986320460685357170e-01
3.086316713569287606e-01
2.742319242922322542e-01
3.074172996319073925e-01
3.031495226045421987e-01
2.680922649711490746e-01
2.977763068181441541e-01
2.847925983949580742e-01
3.236309747236051360e-01
2.658840476187332991e-01
2.598167955561733189e-01
2.785605506501591666e-01
2.467888503389287780e-01
2.549699285522700754e-01
2.852452316797079446e-01
1.962016318971258333e-01
2.145586052642896313e-01
2.766779004457953772e-01
2.284328987672007982e-01
1.831999304043704924e-01
1.906285399322752705e-01
2.099510399226541535e-01
2.441578211795837061e-01
2.026301860362946239e-01
1.659957767933266104e-01
2.265230622997465026e-01
1.819749826749020860e-01
1.919670526622702933e-01
1.648985938493441328e-01
1.083942149458996806e-01
1.935127426925693506e-01
1.837363417577302926e-01
1.847779621442246500e-01
1.678267360678756537e-01
1.434258386889048498e-01
1.088059748911514024e-01
1.583941969739161015e-01
1.088229108752475638e-01
1.570638070676943499e-01
9.339435796610257023e-02
1.330423393285033173e-01
1.374707473950721182e-01
1.335953250476222820e-01
1.543704565548530971e-01
6.769131499547650921e-02
1.127672192354825798e-01
1.602811397414229400e-01
1.292463660713541462e-01
6.316621281324322212e-02
6.506659647483289954e-02
1.559310294639945083e-01
5.156554918609058263e-02
1.130201685574955817e-01
1.034898224692631929e-01
9.470424328580598350e-02
1.086861795500746325e-01
1.199281437729574906e-01
6.355846624064442896e-02
4.764346078998521472e-02
1.078605518277882258e-01
5.050712208393302177e-02
8.114491811006377397e-02
5.255254748831172246e-02
7.733986571629830609e-02
8.196610519739105927e-02
8.213243726346890206e-02
1.153717337805130749e-01
6.570658486896022166e-02
2.468968193912374209e-03
9.071786937841985754e-02
3.947289210963365186e-02
8.233480924796295064e-02
3.095449777468899794e-02
1.000547456976752930e-01
1.236071098639461574e-01
6.434972013076759034e-02
1.402326412492549412e-01
6.148153264548578828e-02
1.686168350992056086e-01
1.324038940507416828e-01
1.149430916646354273e-01
1.508044759033485560e-01
7.901863167088532536e-02
7.163734579264684210e-02
1.393884211874507617e-01
1.668550897381673448e-01
1.465371792713768273e-01
8.359748986662292325e-02
1.534838675194090118e-01
2.002079100515308796e-01
1.608425908277500982e-01
1.576300267883188333e-01
1.871157689668876412e-01
1.805107706680481594e-01
1.310329346156910990e-01
2.015563554549743286e-01
1.744358426003499440e-01
2.047464709271209771e-01
1.951813498290724813e-01
1.351363891725497757e-01
1.997603027129417896e-01
1.991335155091711884e-01
1.598113484483921765e-01
2.050105842811429380e-01
2.126810162226523970e-01
1.884879673429163682e-01
2.663384417235129531e-01
1.701380598180425863e-01
1.932305663292172571e-01
2.164358231846061908e-01
1.934123637005368268e-01
2.429002355354676068e-01
1.565534811312035424e-01
1.970139511127746434e-01
2.034157221544716510e-01
1.721263593845122619e-01
2.430156028596185680e-01
1.732128338794686473e-01
2.369660538953871631e-01
2.016570701096851992e-01
2.849749735971341957e-01
2.922356734422781877e-01
2.521943839799938303e-01
2.761180040236637101e-01
2.387758332756346746e-01
2.749015700936253692e-01
2.861042740510923443e-01
3.640099757258614677e-01
3.777652223176019008e-01
4.330373492721157347e-01
4.843699501089069881e-01
5.053127090885067840e-01
5.765357342108958782e-01
6.411267764508620237e-01
6.384484087906947547e-01
7.282981657754140636e-01
8.405167642307301845e-01
9.164376557649795974e-01
9.079632831429884643e-01
9.637271225242797223e-01
9.855243993916681378e-01
1.083464352565420175e+00
1.044330566480976774e+00
1.179036419061171070e+00
1.150667597060555991e+00
1.138393050470921430e+00
1.185328664771197582e+00
1.119593483197159900e+00
1.108524928795256326e+00
1.055405602511745311e+00
9.805299816855530537e-01
9.857346954236545500e-01
8.751222985601053717e-01
8.148365207187264758e-01
8.018532658526503765e-01
7.121153672834433790e-01
6.759728797904894781e-01
5.783597586344563224e-01
5.341055751732290968e-01
4.919418007487444955e-01
4.314044006625481487e-01
3.783785310602069130e-01
3.382295652631828742e-01
3.069623312066157572e-01
2.925208104476542670e-01
3.037386904922713682e-01
2.993146331457289810e-01
2.006762763812293682e-01
1.951732012587175380e-01
1.905943568915298425e-01
2.831262165414328846e-01
1.803358003807666310e-01
1.196874337635918384e-01
1.811419151722738763e-01
2.095936976467518698e-01
2.048159852103916823e-01
1.915166677087873914e-01
2.352377572352035706e-01
1.632455074713914100e-01
1.969525606803560480e-01
2.121447909591516190e-01
2.040383939562262772e-01
2.256689803471486067e-01
2.043466966828436648e-01
2.691254796735365606e-01
2.542886963074506013e-01
2.595900899871493861e-01
2.621445365264547522e-01
2.453530509057953723e-01
2.245120748281208833e-01
2.694630062866280595e-01
2.873119236202105742e-01
2.232429161856319677e-01
2.619123312350405408e-01
2.744688581067437072e-01
2.781145316112508259e-01
2.237884761210566509e-01
2.427753193438594859e-01
2.896545234653962186e-01
2.500006758345004743e-01
2.457067291537513853e-01
3.089462350364314824e-01
2.874665676555984151e-01
2.759721075293604664e-01
2.734125878758255079e-01
2.857448401404835137e-01
2.967921743409706603e-01
2.684411343388459215e-01
3.048665907220141080e-01
3.733965092047871748e-01
3.137727028580866717e-01
3.062787872957870583e-01
2.706261716472148082e-01
2.967755784487799975e-01
2.479188871541942729e-01
2.702358059702784643e-01
2.460167631716249081e-01
2.943826429079747786e-01
2.200570513414024654e-01
2.722108093895757586e-01
3.603213478394414748e-01
2.743772496407132500e-01
3.248755815320596430e-01
2.467833289705089195e-01
2.989732526856497263e-01
2.511380333994702174e-01
2.557524544697322710e-01
2.179353740697276831e-01
2.714408301618772557e-01
2.426974834578080331e-01
2.167237200858990187e-01
2.788991931950365322e-01
2.136521277724886259e-01
1.987275704586792535e-01
1.783746195437749538e-01
1.784627716903746109e-01
2.027346438824715602e-01
1.901330498827283888e-01
2.253508029840957660e-01
2.161001333763721555e-01
1.617792368764251476e-01
1.730612186678955056e-01
1.281361519295333984e-01
1.106974142930188670e-01
1.576464029091397823e-01
1.336064545924416924e-01
1.562282512595820905e-01
1.303574624589398101e-01
1.897507459379461081e-01
1.041367422548516164e-01
1.104144487350833814e-01
1.234206252601788151e-01
1.528896751406841059e-01
1.067460176736303445e-01
7.006247211322876034e-02
1.401819519879779485e-01
1.568050528601971638e-01
7.094942280298896509e-02
1.286122502726410044e-01
5.323369818004228260e-02
1.682019843174843016e-02
6.579257307349317685e-02
7.306197414180475025e-02
1.096461489581701948e-01
9.570577047315113883e-02
5.926476321639512906e-02
5.181328461266600238e-02
7.838454146261715494e-02
-1.753108385171418121e-02
4.798197911241028346e-02
2.935203770851864402e-02
1.143374037846339175e-01
7.263416354714943152e-03
8.152322828023951529e-02
7.689402118481412918e-02
6.862170484591700870e-02
4.411073002601131193e-02
7.939708825261444780e-02
1.056480248399540994e-01
4.585733131531888329e-02
1.553784499956434306e-02
4.821525568664144362e-02
6.390345602669987579e-02
4.135170338098612813e-02
8.237616293464943007e-02
7.373294246139340535e-02
2.981583421822167623e-02
8.455265089046677673e-02
6.833672867865353551e-02
9.515034848430982406e-02
3.162898497732698905e-02
1.256876890795950996e-01
1.185107284559324681e-01
1.326669891000649693e-01
1.094711133931788594e-01
9.665906861182488319e-02
1.009233272006652693e-01
4.220735972140524789e-02
9.871510981868469869e-02
1.068187073657706487e-01
8.976358349999404018e-02
1.498103182056911842e-01
1.274241650424129402e-01
8.433998863371196253e-02
9.982854469104905648e-02
1.681845836886094459e-01
1.797025599063876156e-01
1.436321515198569487e-01
1.321587385682071181e-01
1.113820195889266701e-01
1.482275795078034364e-01
1.709415528419424291e-01
1.464433086507622161e-01
1.164059440433228565e-01
1.811241151158061169e-01
1.124120513668241950e-01
1.563912012601585133e-01
1.232155047535421627e-01
2.036705739862395004e-01
1.850291055907831717e-01
1.217221611850974466e-01
2.199687534505482267e-01
1.612438522825088705e-01
1.790418715453487297e-01
1.619539983363586233e-01
1.662841460509457137e-01
1.646365784133617671e-01
2.066662578168122766e-01
8.050831254761607603e-02
1.633602645044053003e-01
1.555070959675268760e-01
2.094657803158616605e-01
2.216204350174750259e-01
1.704394717495668898e-01
1.932103482404443628e-01
2.084986623768973479e-01
1.961187638945854628e-01
2.804672156607844191e-01
2.801190096325258394e-01
3.453138612897228565e-01
3.775689302354982568e-01
3.406609423694204053e-01
4.099296344648131751e-01
4.376658047588640743e-01
4.734445168096881318e-01
5.586207224082893052e-01
6.494469711527903755e-01
7.318898866774929957e-01
7.387633001134976674e-01
7.932039943555677652e-01
8.650360777939066770e-01
9.211162547095581576e-01
9.418568452200379859e-01
9.808282018629502774e-01
1.071666575044811776e+00
1.032006932127336851e+00
1.049915613735678876e+00
1.090009316063944800e+00
1.075740531039410142e+00
1.105690760984464616e+00
1.096780268987446627e+00
1.057580341192645657e+00
9.983085303157073209e-01
9.530531104998826164e-01
8.738933215368441809e-01
8.524699682070375761e-01
7.728102076710642310e-01
7.104695691290769943e-01
6.695713176979350978e-01
6.345645892982718639e-01
5.294474119155596625e-01
4.700934927672116292e-01
4.522142997068528958e-01
3.930146909809161260e-01
3.315808299300265216e-01
3.302451330828901077e-01
3.212439679379061053e-01
2.948272481771755382e-01
2.223575560199390344e-01
1.822124031719839776e-01
1.476888665631514719e-01
9.299264179721639101e-02
2.019689582481938583e-01
2.025021279335901814e-01
1.393000505933175148e-01
1.458038378428536952e-01
1.130009755039806524e-01
1.502371827290750195e-01
1.527705196599198345e-01
1.579175510483884770e-01
1.699302570063116746e-01
1.774915056784680256e-01
1.713648720566766093e-01
1.702960862814310861e-01
1.625006930584685094e-01
1.986770171431683218e-01
1.812843328323739400e-01
2.108480190982760516e-01
1.679471311506786912e-01
2.278177791344199732e-01
2.124482231937517007e-01
1.671226255544288886e-01
2.090659770010164231e-01
2.217433711421574749e-01
2.822661107285857063e-01
2.487739751267778188e-01
2.387670368630178119e-01
2.281090620062189434e-01
2.548488162201971163e-01
1.974309521721973881e-01
2.198572741453041490e-01
2.456346463189673923e-01
2.503562660915463201e-01
2.483095866663407036e-01
2.074412907782443583e-01
2.379785997085612503e-01
2.025377796916506268e-01
2.297169367169494270e-01
2.268658829416494715e-01
2.681805508131223648e-01
2.478680060625737258e-01
2.342155190565949896e-01
2.160212026960810772e-01
2.338967742173293785e-01
2.702077593300467595e-01
2.217257663411315860e-01
2.360502223389709942e-01
2.597814456094325042e-01
2.270635187708393843e-01
3.252263230301008501e-01
2.353205202290429565e-01
1.942058420626953941e-01
2.507056454212633900e-01
2.599734612882195206e-01
2.342104037649256343e-01
2.297381306600412010e-01
2.248135817923514745e-01
2.251359552953058063e-01
1.779294674998400660e-01
1.733223948385023694e-01
1.831275433477346781e-01
1.763208210861699765e-01
1.713869063941034221e-01
1.413655056208863725e-01
1.659670100932394143e-01
1.354546829438609268e-01
1.142007995428264144e-01
1.492891170395684863e-01
1.694678870290894368e-01
1.704725641285237125e-01
7.909346839907438476e-02
1.460847950935116046e-01
1.309205868852214849e-01
1.194143207346592406e-01
8.844219245830094167e-02
1.321504071011699311e-01
1.063059837666722046e-01
1.266023775345642421e-01
4.657820622350154760e-02
2.467618528577770337e-02
9.345254714484543812e-02
2.453750793028137284e-03
6.322555360933096447e-02
1.288154170828492706e-02
4.189175513179381471e-02
6.909570725799248081e-02
7.046845662804293586e-02
6.704357725705244186e-02
9.906110884598628985e-02
2.667271246230867865e-02
5.656881502909238968e-02
2.407001758131291705e-02
7.467085685900416714e-02
4.060101674802908678e-02
-4.654998007130005389e-03
6.777759561852784997e-02
2.960451701728887899e-02
1.115708424082864983e-02
-1.032651622541722047e-02
4.507753031642158098e-02
-1.275124641275668727e-02
6.066714739577908078e-02
2.746414354412269124e-02
-1.106311727000552220e-03
-2.770257441004461349e-02
-5.610929629828433074e-03
1.110989480196702614e-02
7.136233771429026373e-02
-2.967301670580363773e-02
9.197503487602058658e-03
7.541176526321143048e-03
-6.052780103980836407e-02
2.836149678063454305e-02
-2.789554865102573250e-02
3.313652436365824294e-02
1.701430488310407690e-02
-4.274305002178041546e-04
3.784051567425474050e-02
-6.371490780656328262e-03
8.810958515342449948e-02
1.280728827608731621e-02
-1.792605078383756323e-02
3.329014271910533257e-02
5.974600876234552327e-02
4.180879624720798549e-02
2.550402367643776758e-03
1.283840140546881753e-02
3.174925852302507012e-02
4.295423894824791644e-02
6.936828597441775657e-02
4.723412126058228189e-02
4.115248009245241201e-02
5.751437076219340083e-02
1.104218868150123323e-01
1.175167075084238150e-01
7.802114847102242789e-02
7.899908061413647709e-02
5.913044814692559187e-03
1.297619247981181834e-01
7.550156935684984583e-02
1.470780605393565144e-01
1.246634070473821021e-01
1.176212122255448633e-01
7.614944852475460935e-02
1.318407361562270452e-01
1.442894772951204274e-01
1.075310766646305344e-01
1.572788301801154587e-01
1.198071779286035698e-01
1.268239200330689709e-01
1.341962181514357311e-01
1.327834733139237611e-01
1.226222807467429732e-01
8.771891026126819868e-02
1.006886383372961324e-01
1.100880566459617738e-01
1.154543258241144676e-01
7.290839954557626346e-02
1.114487655420444423e-01
7.669092728054474617e-02
1.345413435165114802e-01
1.187451319668823835e-01
1.345248867925728509e-01
1.524487290207345025e-01
1.331187277114055378e-01
1.501857733757682445e-01
1.131382512662347101e-01
1.430645168812716139e-01
2.081620962741359271e-01
2.055396231795753315e-01
2.535600698273136611e-01
2.644531540008679960e-01
2.282307783498511988e-01
3.108232244004178191e-01
3.527107349043224760e-01
3.670822999594773317e-01
4.394385014998061223e-01
4.173537063263936808e-01
5.235609651244923501e-01
5.747106376241954973e-01
7.002869669711206946e-01
7.200057971406401691e-01
7.959439465775219880e-01
8.367783612579769992e-01
9.159539494484011390e-01
9.408313797114952193e-01
9.617466256149718173e-01
1.023125566291227084e+00
1.076967754897927954e+00
9.972844424042381917e-01
9.825021094124213317e-01
1.078895099691547843e+00
1.026745681400166088e+00
1.025091487124248690e+00
9.258376797431693284e-01
8.698406614150236971e-01
8.732527252541361085e-01
7.853018514438765418e-01
7.548299296015468229e-01
6.859093225736208055e-01
6.413198686017311800e-01
5.165985437677869108e-01
5.438516158133611667e-01
4.611401895789670746e-01
3.827958374770710770e-01
4.110749373714006616e-01
3.337615183834258814e-01
2.573684159045063202e-01
2.862662874895557930e-01
2.246098468680944871e-01
2.240304971272507051e-01
1.110602227489803084e-01
1.837637607974048626e-01
1.640803674208014540e-01
1.259517284164053397e-01
7.464972993628943287e-02
1.029409298609543777e-01
1.531230900242994131e-01
6.966159225038451308e-02
9.818305874983225545e-02
9.704957023234760116e-02
1.017374581115718518e-01
3.675414055801227986e-02
6.061694064160912110e-02
1.217199376353894358e-01
1.473339175705003501e-01
9.296051635542798564e-02
1.177620559833174596e-01
1.674573884342846208e-01
1.866247714362928578e-01
1.698301833201306121e-01
1.111505026534043150e-01
1.068126892471283340e-01
1.727996133961422487e-01
1.332107541302458564e-01
2.084997578976433841e-01
1.557172496812058160e-01
1.338067599084310499e-01
2.106311066837163459e-01
1.572883015486968294e-01
1.819478374042046154e-01
1.358651322895546298e-01
1.829516445632032584e-01
2.260202103369186033e-01
1.967961688698261491e-01
1.830457633693470809e-01
1.891144111218787671e-01
1.805367974324746938e-01
1.867328328027389461e-01
2.420431035678309861e-01
1.690752767872165385e-01
1.766682794142011570e-01
2.042937550913627165e-01
1.919417567525180390e-01
1.767486445316431842e-01
2.291957493179041516e-01
2.021236165931528939e-01
1.842659038849893127e-01
1.747443916224608040e-01
1.434428807561229924e-01
2.217809682396663651e-01
2.121268434931243285e-01
2.280552757148674448e-01
1.388521698395406290e-01
1.788239280815856203e-01
1.388042817559936581e-01
2.015019308713483226e-01
1.704343800006915821e-01
1.636524412123168126e-01
1.952757147978368968e-01
2.268208112633421092e-01
1.680812754388764929e-01
1.301878157779159939e-01
1.551764200627780421e-01
1.737801862540420683e-01
1.416107826138522652e-01
9.801065427770994098e-02
1.818049420010092454e-01
8.007296406223210483e-02
1.154417273416496748e-01
1.554998427618784207e-01
1.256270435680741648e-01
7.012345792686620893e-02
1.013588831715583061e-01
8.232806764783630327e-02
7.255200202000477994e-02
1.020791490986243943e-01
1.126536644636664253e-01
6.558534930980577937e-02
4.447250640347026607e-02
1.341662450410772423e-01
9.661903177616212868e-02
5.635525515184865858e-02
4.459470714780978257e-02
4.154162184694842191e-02
1.098247000953753577e-01
6.769963404439802157e-02
9.422448543119704700e-02
3.178737534665586340e-02
-6.801085996075567630e-05
-6.355601240401770324e-03
3.437862410545765995e-02
3.755221621711272995e-02
3.942458379920703998e-02
2.319201261585578794e-02
-1.969757391420161666e-02
1.412677088755389526e-02
-6.750080072600972425e-03
4.774325467666441086e-02
-2.911076438917529347e-02
3.914267350646205568e-04
8.662404836925013951e-03
-2.134267021977865469e-02
5.713410464228338426e-03
1.003042446351960770e-02
-4.414281563311137080e-02
3.737779735524339453e-02
-4.642153282035578477e-02
-1.133040408669028914e-02
1.630533215203240627e-02
-7.488314758557237938e-02
2.007330720969403848e-03
1.027864400819492041e-02
-5.610178562021124471e-02
5.890405820853067409e-03
-1.885693499970363465e-02
-5.248304891377619102e-02
-4.480779170853131654e-02
6.127049851040324013e-03
-1.012576353488037900e-02
-1.727900058811836920e-02
-4.549304837363216114e-02
7.862221861041490678e-03
3.423042841702574057e-02
-4.210840639140712993e-03
2.655754024908056621e-02
-9.491984440294538861e-03
7.189872406000136218e-03
5.456988004680037030e-02
9.839367551799170497e-03
4.567234914063677403e-02
-7.447518472666579681e-03
8.696199457484865558e-02
-1.532166443395013150e-02
1.463542383335168090e-02
8.608677806112688402e-02
1.036976527772581758e-02
8.274119594741667638e-02
5.853350335438052554e-02
3.156274090439663282e-03
1.144692880045450056e-01
6.142651021465617145e-02
2.222231149809014011e-02
5.402237151459919617e-02
1.354613494488462327e-02
6.319346277822993074e-02
1.178066826778642884e-01
7.879610060951455774e-02
1.064307940200656666e-01
1.466368891957456899e-01
6.572438317905396343e-02
1.333698601805099471e-01
1.039813801733824733e-01
8.820539186481857197e-02
6.490913263516324971e-02
1.273182642628990502e-01
3.955950962953475730e-02
6.564790602049938584e-02
9.997656799704555952e-02
1.196026296524218685e-01
5.702649107523495575e-02
8.263764471040313531e-02
1.069392958808051824e-01
1.236183717608762556e-01
8.397127850988983511e-02
8.527460320076726830e-02
1.072429967162241982e-01
7.794072297294701857e-02
1.433760383123820203e-01
1.039018058845837533e-01
1.733047377285834578e-01
2.032840984344869706e-01
2.070921127029523578e-01
2.310021992759893339e-01
2.480200429811682816e-01
2.872818587054154493e-01
3.014086774945194946e-01
3.996590054510130718e-01
3.965303799288196762e-01
4.250635901989691101e-01
5.395133890648645680e-01
6.105076094192899427e-01
5.907521626415928040e-01
7.245016386081921667e-01
7.280058876805971524e-01
7.684603260443307882e-01
8.371118903942957878e-01
9.510148016563075846e-01
9.344612160530711975e-01
9.521148142752476895e-01
9.820272581408882040e-01
1.020172172386891507e+00
9.910453084947892233e-01
1.067089956481561686e+00
1.054822895161654950e+00
1.003906242785151282e+00
9.314682446104027846e-01
9.548485026411663856e-01
8.850437065616562071e-01
8.690659634207275053e-01
7.393634805108112440e-01
7.215849119881366791e-01
6.155633309624320981e-01
5.777985323963338304e-01
5.733294157922503853e-01
5.357150872618945403e-01
4.877358888842187601e-01
4.367295701754382309e-01
3.243857166077117604e-01
3.325807790018324162e-01
3.429360879289131692e-01
2.923897759815983766e-01
1.965851351092297583e-01
1.948298571119360945e-01
1.257724715756859402e-01
1.527587485202862860e-01
1.483270662981882315e-01
1.312660952570347261e-01
1.396652298978899309e-01
1.483689268948557016e-01
1.339008408480331924e-01
1.522740469780232697e-01
1.070086927913373731e-01
1.039522930787100119e-01
9.570668643544477661e-02
9.261301537837215991e-02
9.776680355956954283e-02
9.824755438981597200e-02
1.645812769339144443e-01
9.753878107619484705e-02
1.702833510264823991e-01
1.307380745743635109e-01
1.252727710202981015e-01
1.600155945617858788e-01
1.933409532379681550e-01
1.568243812342241805e-01
2.169237851041054266e-01
1.525301384905113355e-01
1.976567184098028673e-01
2.261376604551625369e-01
1.758076658046008600e-01
2.028334185175182380e-01
2.039621443210574425e-01
2.335217726693956664e-01
1.498873617685811954e-01
2.006924063262761071e-01
2.138880416991501832e-01
2.009337340409059203e-01
1.945137600099728081e-01
2.448417340858672631e-01
2.332814132478098768e-01
2.286505245022633637e-01
2.994883049308334488e-01
1.777842210617991969e-01
2.577849838471928945e-01
1.763198233269091253e-01
2.221852200684667489e-01
2.194352920393629613e-01
2.565959761698922148e-01
1.743439262811204704e-01
2.264586032345548283e-01
2.194334628271188969e-01
2.102203967850498345e-01
1.557191986977446152e-01
2.280608589815804887e-01
2.124438530303469352e-01
2.279540399472555767e-01
2.025018305545671637e-01
1.931083765880474146e-01
1.785995397970087939e-01
2.533442952283098681e-01
2.205733871664023182e-01
1.902600862845015284e-01
1.949769377088291233e-01
1.477087026634029132e-01
1.912227757423995422e-01
1.641329131473224789e-01
1.720785069178686344e-01
1.173445629922995059e-01
1.780235994090789420e-01
8.383675925862926759e-02
1.152146114302838031e-01
1.276121066488989098e-01
1.484379759960106349e-01
1.125511785870882686e-01
8.924227747967042323e-02
9.040934680321685568e-02
1.320504574395346964e-01
1.170001180964772708e-01
7.258363086417964072e-02
1.156391903265593935e-01
1.883422447325334703e-01
3.813427234338978566e-02
6.403615488969627290e-02
1.003840208991464422e-01
4.523310975507398302e-02
3.219692352499217008e-02
1.046099623868162742e-01
6.970891829815889507e-03
6.773453952213528972e-02
4.701926412893808749e-02
4.970912727294761468e-02
6.060937389270686093e-02
4.280607656083057488e-02
5.344148265204176629e-02
5.725460672168046494e-02
1.006734011884630881e-02
3.701005973947860128e-02
3.937979819052024599e-02
6.381894146063325779e-02
-9.302740848273240160e-03
4.035698051661677777e-02
2.096886857569964582e-02
1.478577365267885052e-02
2.556243491506716980e-03
-2.648002164557590465e-02
2.358363318718962459e-02
1.025272274817341234e-01
-7.670510823209578805e-03
-1.406923019222038052e-03
-9.004454284945537929e-03
3.872819322254052177e-02
4.306287943083313835e-02
3.221971708152389369e-02
6.112050408411028035e-03
2.024186873942187409e-02
7.824796127156925796e-03
-1.729797131516522951e-02
5.143795561348981499e-02
-2.104433387445416720e-02
-2.008937768531328383e-02
2.632755809242278908e-02
4.000471273830429747e-02
4.075356529305844411e-02
5.613156757939413710e-03
4.038742624298813366e-02
1.472966862131344645e-02
4.278581704985125189e-02
5.381341457208338452e-02
-4.916351394576329303e-03
6.588149808316301481e-02
4.864932198535620173e-02
1.548953754777307804e-02
4.617464819296811240e-02
1.867280906292069845e-02
1.126868016214789547e-02
3.690909735495810640e-02
4.019810028754967207e-02
6.345217525283278204e-02
1.229129377233430936e-01
1.023372870119683697e-01
1.060430611212521551e-01
1.462158520989601529e-01
7.574303969677217974e-02
1.031380143983548492e-01
1.249839565971408301e-01
9.994419563872458667e-02
5.806535130943815681e-02
1.167933729072173632e-01
1.614076606477407583e-01
6.299313558336402941e-02
1.341254873422910998e-01
1.430036996116318682e-01
1.008333305198234886e-01
1.239467716466281788e-01
1.040090779496825046e-01
9.986587106610883557e-02
9.742395634743344912e-02
1.611193640532314064e-01
7.000137551022238280e-02
1.407611948334624441e-01
2.014779663735643822e-01
1.182970802952289374e-01
1.398961160961054162e-01
1.186298449505340247e-01
1.618548899954925790e-01
1.483677820963847649e-01
1.253650031619069627e-01
1.376006325292911392e-01
1.265985916143895496e-01
1.678729051386172733e-01
1.363272231511012955e-01
1.792905065584784186e-01
2.131414600187007957e-01
2.260477298168307725e-01
1.972264823520870070e-01
2.533326753803884501e-01
2.738626626296706279e-01
3.441429924039289268e-01
3.879967833068751482e-01
3.846217051270332532e-01
4.606326511774453958e-01
4.646861492241928793e-01
5.615656082907856117e-01
6.142492060358226702e-01
6.970259270572241039e-01
7.320798308174770730e-01
8.165170308760519857e-01
8.753352565824956688e-01
9.465752176823524211e-01
9.631655060059047813e-01
1.008687491304933737e+00
1.034885456694707218e+00
1.061292955538337690e+00
1.102110516143805397e+00
1.026054266063410880e+00
1.031436434863480578e+00
1.087983104483125185e+00
1.035243347119064516e+00
1.071374553904681282e+00
1.014688299433579077e+00
9.655475090701516327e-01
8.796342285476772549e-01
9.192224863783092781e-01
7.729098830191223346e-01
6.833924527588983722e-01
6.431620914554849744e-01
5.573509825031556231e-01
5.315986941579999847e-01
4.415451162474297586e-01
3.794182624510086810e-01
3.327644992750204422e-01
3.093742666429410981e-01
3.417538191435885442e-01
2.656023577518383250e-01
2.497648807775680602e-01
2.245182632069030459e-01
1.773604515085086819e-01
1.712280794511547855e-01
1.885008134420447790e-01
1.484966686191958318e-01
1.625474778085442273e-01
1.454933689603345459e-01
1.127633034022261921e-01
1.912883374350404231e-01
1.756131167473833354e-01
2.033124815734877744e-01
1.910855505856631220e-01
1.643498862989004883e-01
1.810127704780170044e-01
1.866013556540141727e-01
1.853120300585726354e-01
2.293982761025050998e-01
1.551861143770033313e-01
1.894177479901652805e-01
1.952380832528827215e-01
1.406842805916901362e-01
2.187436968307516494e-01
2.166851267790857738e-01
2.189187992323606280e-01
2.702830284231947933e-01
1.965351319189266588e-01
2.331884666091008640e-01
1.936502672113213364e-01
1.872153649535304165e-01
2.625238677905853413e-01
2.436032002708893307e-01
2.352804173886643702e-01
2.480419565349591682e-01
2.907734993014726155e-01
2.623262529496661055e-01
2.799919063453028545e-01
3.225138684840848646e-01
2.599962619995489499e-01
2.011349277450054929e-01
2.922398585642952962e-01
2.230826117699905298e-01
3.022437220692876791e-01
2.622748555520946767e-01
2.475300646079520439e-01
2.852900264049901269e-01
2.600514885303729096e-01
2.292533751733637493e-01
2.687205216560162868e-01
2.959038196778874807e-01
2.399594590236143465e-01
2.413285934391500853e-01
3.129694397850397158e-01
2.606940011316632444e-01
1.967390050464392637e-01
2.600394185460949692e-01
2.428847805837618945e-01
2.346524518620855260e-01
2.347847336407235530e-01
2.052862066003519614e-01
2.314463220755324235e-01
2.532308520981731981e-01
2.100085566350312627e-01
2.038092423122558616e-01
1.724813937613132730e-01
2.585692997101890489e-01
2.112363024409182610e-01
1.862088555966944503e-01
2.454168080195533175e-01
2.175801655243176924e-01
2.096791772641147245e-01
1.410919020047035344e-01
1.562520874055467468e-01
2.082473851721460545e-01
1.619081322648262544e-01
1.660156223621720717e-01
1.717731419138463778e-01
2.304092385421294131e-01
1.693483940488698658e-01
1.343721666639643431e-01
1.127634841921493492e-01
1.793457415904491092e-01
1.135850156389754395e-01
1.615687705420251752e-01
1.307060364838656952e-01
9.150207989100218875e-02
7.362271395847647115e-02
1.775439354791178426e-01
8.154650638839114341e-02
1.165088151584574849e-01
1.113215169014536848e-01
8.503518581302212109e-02
7.753067378627072348e-02
9.483518143424728153e-02
6.977329974138804514e-02
6.266060471375259344e-02
7.597857662216817021e-02
8.713744386200539260e-02
1.037779614626100910e-01
7.018562388709555233e-02
6.158233401369352100e-02
1.066896727468017447e-01
4.095220030722274834e-02
3.816065332331457227e-02
8.610024504495723818e-02
4.454630641073535624e-02
4.626162293247913782e-02
2.745281418014870051e-02
4.698594535563684060e-02
8.950375489286899189e-02
2.342801370983631226e-03
8.021619339225087575e-02
5.703998186403283488e-03
4.548563266221680029e-02
3.262453020072295790e-02
1.284808588666633000e-01
7.862113188352116977e-02
2.033112987858541609e-02
2.872082999510155304e-02
1.086044866484944110e-01
4.697812565156601894e-02
9.950063063645986361e-02
4.609821066375030529e-04
7.827216102524001129e-02
6.445945394626208247e-02
8.892931309706839094e-02
8.380024248799289310e-02
8.735947367566840316e-02
3.456179550949715212e-02
1.448319514340374869e-01
1.266200322708155301e-01
1.453232531919996795e-01
1.407755483652155803e-01
7.548455046278418346e-02
1.258738808984841695e-01
1.317302503813088943e-01
1.528609924854104629e-01
2.076387132710904582e-01
1.092408134197571656e-01
1.496150280319580583e-01
1.187650324864754636e-01
1.189815874594497835e-01
1.462551496958904296e-01
1.880169996243981900e-01
1.556993899941390702e-01
1.542660899176906131e-01
1.725799139975504326e-01
1.663498488354720473e-01
1.791066198267358134e-01
1.377786264387480808e-01
2.297748546933741087e-01
2.299663431674909275e-01
2.493169829241304314e-01
1.662038786349384900e-01
1.797267248005411377e-01
1.957644927532911083e-01
2.009013441616485096e-01
1.733419393117931195e-01
1.910023844467212961e-01
1.693180452139072534e-01
1.978098517913505772e-01
2.236532267635397142e-01
1.837587109307622368e-01
2.145184201180716232e-01
1.779986196850821822e-01
1.961336715547172815e-01
2.438977120992948666e-01
2.202341991879459282e-01
2.373155359843057699e-01
2.440833372272984414e-01
1.897755600856120273e-01
2.188218258570069907e-01
2.239868065960584631e-01
3.711691753701184537e-01
3.595797347874558070e-01
4.098711460515027660e-01
3.464965416727270320e-01
4.086639932577778578e-01
4.884622237159997882e-01
4.922037995248322306e-01
6.145778401314843098e-01
6.331575311603269141e-01
6.295100576177281582e-01
7.422833613973370825e-01
8.257711300807155652e-01
8.657285800121582442e-01
9.905527038193230327e-01
9.553324176704117709e-01
1.021797593972040730e+00
1.030489299410129345e+00
1.102449886434490045e+00
1.099317321228832967e+00
1.184809383430221796e+00
1.149509637062911649e+00
1.138988836316668474e+00
1.106711026121764307e+00
1.068335430886156123e+00
9.911367429034914078e-01
1.075407107169090715e+00
9.865139453680270565e-01
8.378762778884670803e-01
8.217734794093628503e-01
7.863204654075179878e-01
6.957773443771142485e-01
6.682352703225670210e-01
6.958680127377765423e-01
5.173091904894129289e-01
4.849184997296487887e-01
4.361108272789127049e-01
4.158423284445206813e-01
3.991851122350104086e-01
3.257434262354793608e-01
2.984590959024434054e-01
2.780988547053389603e-01
2.432998795882390652e-01
2.350971496136257943e-01
1.866919278635642276e-01
1.983326324987799705e-01
2.168064947347418669e-01
2.459071853375528471e-01
1.873342904963617994e-01
1.601958711309952044e-01
1.882231186944906265e-01
2.214462679322277694e-01
1.939199943863321729e-01
1.947152128949448946e-01
1.729654355239254038e-01
1.992273371812759708e-01
2.299266073711102587e-01
2.021229156775160296e-01
2.100198603643894657e-01
2.279899848433569465e-01
1.925451928897321530e-01
2.646568122042406435e-01
1.951685393511481126e-01
2.365720646259639459e-01
2.383003055970609463e-01
2.656919269921503846e-01
2.373562516591290750e-01
3.111532707768071004e-01
2.127255651489698141e-01
2.674928014716212998e-01
2.859246906519172793e-01
2.802212630849917341e-01
2.501728766637255630e-01
2.834122971524619117e-01
2.844871721325169522e-01
2.326504847034305268e-01
3.146639736921825747e-01
2.754756554625613640e-01
3.057408238682259860e-01
3.098361718436385970e-01
3.251936793002800363e-01
3.588727911670040460e-01
3.193254678974173366e-01
3.337839724010336351e-01
3.370256240013478344e-01
3.308789715662106556e-01
2.757954265422910001e-01
2.972485456084057454e-01
2.788457566214818106e-01
2.649152483401633340e-01
2.839257143046759468e-01
2.561442689462433142e-01
2.968665364531787310e-01
2.715297374263992980e-01
2.943919897975088573e-01
2.827862258759734071e-01
2.972439404904250737e-01
2.600477178998318872e-01
2.782054965615120001e-01
2.514672934283613825e-01
2.712034393206737004e-01
2.575780145952211719e-01
2.595764031289192753e-01
2.007764016787957906e-01
2.114273251276767296e-01
2.350162981068699142e-01
2.544046492108524848e-01
2.360326458728469468e-01
2.593321389908128660e-01
2.237352885324405960e-01
2.510265604168457343e-01
2.110983249204698708e-01
1.464111228237047480e-01
2.157869897992546193e-01
1.829940071954163916e-01
1.309933077942828095e-01
2.118754317936384912e-01
1.660660988299601515e-01
1.591019347918490590e-01
2.123139601502215257e-01
1.614118122942012623e-01
2.094690091358572537e-01
1.398456308595562025e-01
2.076852880208034380e-01
1.767996584617117783e-01
1.005051702133731573e-01
1.142861325439809006e-01
1.307165387634345033e-01
1.269562711126730192e-01
1.358641329081537452e-01
1.102343629908607014e-01
1.371265802686486290e-01
1.498644051089184082e-01
1.061888600340758770e-01
1.580931683409654287e-01
1.219191614655536215e-01
1.021374911615169911e-01
1.057676651552515307e-01
1.088239946572395755e-01
1.032343690635937616e-01
1.274036988623531430e-01
1.561515615443291038e-01
5.908646143435002801e-02
7.632159030823515433e-02
4.011336870054346693e-02
6.954707053936619310e-02
8.151074477544512087e-02
4.335338551206588398e-02
1.095080403356429727e-01
1.023649629600688893e-01
8.503591090523918150e-02
1.341394716171126489e-02
5.276177492453450885e-02
5.542447670636862361e-02
7.835785849911812428e-02
9.872160596396879761e-02
8.876152788738450594e-02
9.441421517073964043e-02
5.133028186662605408e-02
1.171706486598700636e-01
1.005893164295476871e-01
5.761059993706002524e-02
1.068834621534759249e-01
9.800418704686458815e-02
8.625551813846285554e-02
1.232942820474667578e-01
8.878732813207812491e-02
1.027401613913705575e-01
1.005604023580278644e-01
1.591971506962250871e-01
9.978065489802043220e-02
1.324999735390512690e-01
1.402700730248960248e-01
9.355342825075763091e-02
9.329087861444615437e-02
1.067696874330699291e-01
1.485346249684316722e-01
9.587269204692559776e-02
1.687688725508082466e-01
1.712852553744408923e-01
2.115240109640206256e-01
1.654676716364677502e-01
2.144614600953961281e-01
1.889897795319983309e-01
1.662191146471116154e-01
1.411244358934705123e-01
1.600631570186211439e-01
2.081447002510364297e-01
1.832010309869561981e-01
1.981377085310112585e-01
2.368857974337540417e-01
1.276865711642076184e-01
1.960977042566791062e-01
1.820445650896027057e-01
2.087438258426543847e-01
2.036058736597629037e-01
1.739426953594745417e-01
1.713620606744146735e-01
1.839842275090294299e-01
2.076509016623397652e-01
2.182242675578436042e-01
2.321438876994059430e-01
2.063223409713905721e-01
1.949458544517028435e-01
1.969138886034594305e-01
2.324818214826177010e-01
2.287326701690480246e-01
2.333607205807747276e-01
2.328251984390232454e-01
2.244890350265293932e-01
2.267679129579644459e-01
2.647813132982008710e-01
2.575098017179131005e-01
2.648995542634116629e-01
3.186934443003455186e-01
3.554024745434298804e-01
3.577860398263024710e-01
4.366534303659194149e-01
4.191213964382725088e-01
4.726658316515822134e-01
5.864685264580749013e-01
5.526380499071353869e-01
6.858432445262692134e-01
7.129455864679252741e-01
7.600498785280105363e-01
8.611256159670541699e-01
8.999035454244165289e-01
9.138489517993569899e-01
1.020943833683459978e+00
1.077049457384274156e+00
1.032320822967967899e+00
1.045182767959232262e+00
1.105221509814909409e+00
1.097593137160730370e+00
1.137277168929350601e+00
1.096523730943555375e+00
1.054668857124827497e+00
1.091984857325011715e+00
1.088019719707862265e+00
9.801835599926824738e-01
9.778233723879401484e-01
8.291707463707836956e-01
8.599221669850234395e-01
7.698592801417517562e-01
7.148412032714881459e-01
5.878167140257418710e-01
5.689849753224993645e-01
5.721825204500823325e-01
4.638870419236044151e-01
3.921057665987028873e-01
3.701815283298671710e-01
3.728832209643629936e-01
3.636524152889871186e-01
2.647654702876082178e-01
2.896553468192465952e-01
2.217399473274230814e-01
2.426255688321305726e-01
2.389312405160075314e-01
1.505718785357550160e-01
2.543354840552495832e-01
1.739720327639242559e-01
1.952619188287446350e-01
1.980527432282964684e-01
2.222759965207762312e-01
1.750304810608250550e-01
1.649538274583850495e-01
1.748881435395113204e-01
2.062882403528065178e-01
1.682884348247820905e-01
2.088591370683822168e-01
1.908113161881122566e-01
2.354121733781361359e-01
1.823939713887962333e-01
2.134767777876184769e-01
2.124914241681203075e-01
2.803645683318808368e-01
2.168776483240905939e-01
2.914666303402893566e-01
1.941453453961939635e-01
2.540648033167010045e-01
1.998960223594600238e-01
2.768156379934974543e-01
2.761393505754969335e-01
2.444084343598613429e-01
3.156056947102362509e-01
2.899079044766210145e-01
2.902114765424559373e-01
2.462401171096677555e-01
3.108508717564054114e-01
3.484387526057574624e-01
2.182642121034749361e-01
2.454057476478947453e-01
2.933225190822789097e-01
2.716987193814015544e-01
2.695360222103139747e-01
2.658728500078416657e-01
2.802645103658061299e-01
2.368688990022341512e-01
2.980380639443329649e-01
2.769594140981651020e-01
2.703572864488933969e-01
2.675026717586417857e-01
2.756150783625125888e-01
2.994293437167463989e-01
2.464128014091354069e-01
2.084715002367418801e-01
2.405175263213453762e-01
2.455066972456540486e-01
2.129063245893204337e-01
2.497752297504162999e-01
2.731528689018301037e-01
2.290607692370554005e-01
2.482709312647485844e-01
3.018534015478505084e-01
2.047036839060803470e-01
1.947056258882146618e-01
1.837634918222741387e-01
2.097533855654331592e-01
2.264929373839878468e-01
2.252780837002198444e-01
1.618437654243271850e-01
2.261782909278044207e-01
1.967923772502620239e-01
2.133096049277938555e-01
2.314035540617831455e-01
2.296776948576942368e-01
2.228555946832221635e-01
1.881711596171893042e-01
1.708308514531800548e-01
1.678202406592873008e-01
1.523115530281455854e-01
2.023312134474415380e-01
1.335703350868224504e-01
1.587437065312203299e-01
1.074195338177427322e-01
1.086252293283930803e-01
1.514368873740754018e-01
1.621303053239907532e-01
5.774614548961821969e-02
1.487395747143330782e-01
1.281854760851778852e-01
5.768528578904340287e-02
8.235157616398199043e-02
6.305333631747729595e-02
3.981343819191157651e-02
1.540392765314545220e-01
1.234866223193374218e-01
2.835522105049720007e-02
8.148905216817486918e-02
8.212704634529154057e-02
4.296117053734778424e-02
6.093231128630065274e-02
1.105026634485850590e-01
7.393382436675431657e-02
5.099509072985777131e-02
7.330036350268891165e-02
6.418870281713674741e-02
7.869561471962543964e-02
6.218028564514757606e-02
1.195898543311994938e-01
7.560377924237673963e-02
8.118076621949353588e-02
8.135296450260429135e-02
6.016569505255739414e-02
5.425361285300693559e-02
7.209455534481853944e-02
1.200482684108033701e-02
7.354383138817228993e-02
5.358636525758227881e-02
5.059518647636457311e-02
8.108616577618578403e-02
5.373308277389468590e-02
9.155864877317728551e-03
9.093489829184110695e-02
6.505803056751607860e-02
6.245873920380957955e-02
6.093060310702995419e-04
1.050634469787046638e-01
2.758281914307832150e-02
6.230497445445542376e-02
4.101180392680381370e-02
5.664754266029950469e-02
8.704471508768092669e-02
1.138918768366774109e-01
5.594858503089159690e-02
8.162482418070227119e-02
9.089623181395670160e-02
9.968920702319150617e-02
9.895461128558166730e-02
1.096963224064682191e-01
1.341418846332500525e-01
5.116432183526452293e-02
1.038595938850638278e-01
1.325578055565571900e-01
1.491179260974135612e-01
1.617114414844922354e-01
1.187509927755445865e-01
1.468038669745417024e-01
9.766508029297985005e-02
1.617221836105459387e-01
1.809787474316525424e-01
1.753418131935298718e-01
1.619689629373142759e-01
1.675793104135666067e-01
1.316259458407946781e-01
1.542998516822150501e-01
2.293586708307932820e-01
1.973294389306550767e-01
1.502940218838149100e-01
1.380842763204112589e-01
1.937667436672744770e-01
1.508099443985379540e-01
1.277041150461896979e-01
9.538486082746665262e-02
1.806555002177181457e-01
1.472840894942405165e-01
1.493426931104923083e-01
1.546267754391917881e-01
1.418777935520416367e-01
1.701066703689921300e-01
1.841866980533125586e-01
1.743527224373180307e-01
1.644983652590830681e-01
1.773799519777471134e-01
2.034441721974216410e-01
2.674754389839050228e-01
2.881675152179217769e-01
2.671310904539933584e-01
3.130472479809506270e-01
3.431126821211422095e-01
3.283494398050831875e-01
4.246100900892979535e-01
4.737203244776531097e-01
5.240382727184587086e-01
5.823536805090240298e-01
5.914536807243150340e-01
7.267164197906712531e-01
7.751508749640009244e-01
7.681680675943406422e-01
8.738531172677369563e-01
8.766086106028497804e-01
1.003104754524503761e+00
1.009562722297476345e+00
1.074414509316935717e+00
1.057940460081085554e+00
1.089020223752355854e+00
1.120303148638339463e+00
1.080413145350538562e+00
1.050733720694491113e+00
1.029131468994930021e+00
9.816503892191362768e-01
9.788754129821053418e-01
9.161340908930780680e-01
8.560144321828724312e-01
8.005908597773140345e-01
6.900963130319796024e-01
7.463293025012416315e-01
6.252711931856291816e-01
5.711049429980543657e-01
4.974787630146847994e-01
5.107644022013888563e-01
4.029969870265480147e-01
3.775191912997313826e-01
3.513644472107192995e-01
3.112289518996841919e-01
2.579049622165620059e-01
2.623254991203341491e-01
2.319875023999546371e-01
2.373947363686068623e-01
1.877112598008298661e-01
1.281792579652525910e-01
1.653997461575940908e-01
1.509760227355587681e-01
1.314761116098338012e-01
9.899234939526224686e-02
1.851313417952430429e-01
1.778418496366102053e-01
1.061452339420159707e-01
1.053660387457276415e-01
1.772966171770828936e-01
1.418147459411961964e-01
1.807418154621876494e-01
2.153861889093170445e-01
1.742604447424988545e-01
1.523272522296841847e-01
2.311525355019840300e-01
1.510565204190124078e-01
2.187242595768154330e-01
2.230705350482847515e-01
1.916481444792125788e-01
2.178289979173784752e-01
2.026143122928922846e-01
1.415005185762046036e-01
2.092736838206452621e-01
2.133098297361626927e-01
2.662615857355870586e-01
2.462762063219169906e-01
2.358804163560700995e-01
1.749116613804472808e-01
1.854436218442222228e-01
2.309592187938387942e-01
1.673874461308654249e-01
2.243625672961822859e-01
1.748405599488854767e-01
2.659538102132613657e-01
2.201595552125253097e-01
2.539828523934404281e-01
2.233510019211073783e-01
1.998260975051940058e-01
2.167800494637915354e-01
2.233175233699214168e-01
2.181580696259458607e-01
2.076413370377040990e-01
2.346733517593134755e-01
2.135600003145635972e-01
1.777655317376673205e-01
1.904856230678206030e-01
2.076926245521422965e-01
2.125861594305388236e-01
2.183100424362537373e-01
2.325324365259793524e-01
1.800519932664318423e-01
1.781920263521871162e-01
1.931828177563968685e-01
1.779135793932626053e-01
1.929969222025366415e-01
1.988865558371149811e-01
2.212079053597567624e-01
1.974647138571474780e-01
2.530221445255407264e-01
1.873221511333200973e-01
2.220254987921781442e-01
1.762410414485874599e-01
1.858290526136155973e-01
1.602055703444672519e-01
1.274918567052218676e-01
1.743383626889210281e-01
1.235243416694893903e-01
1.074368294807070690e-01
1.829573544840757959e-01
1.193093913247444959e-01
1.044486416584544664e-01
9.193017229313775462e-02
1.167952404022849222e-01
8.511385878654262327e-02
8.795755329565912994e-02
7.495050704882762205e-02
1.369388563795136127e-01
7.487995903437363876e-02
9.208388920440101211e-02
1.116683118556428961e-01
2.822213128393094572e-02
3.985387244642914217e-02
2.443115502444414416e-02
7.102908476388947179e-02
6.824271424474881442e-02
3.781552718235142718e-02
6.375418679434025071e-02
1.027310922314503619e-02
4.044203304682442157e-02
-2.760591430951841660e-02
3.332138117716564041e-02
7.619962161509258314e-02
-2.527622818174812824e-02
3.500244031726544580e-02
9.094523671484731897e-02
5.103260283853681967e-03
4.015420146369995391e-02
-2.197667171360069213e-02
8.651360493015333719e-03
2.988670665299820658e-02
2.073882077586061690e-03
4.053897850611087872e-02
-4.707429171452503364e-02
2.181497149246459932e-03
9.128223541712537220e-03
-3.847869481512314338e-02
8.859922971074976616e-03
-3.562518800801800500e-03
2.542095035110434817e-02
3.615863583169315332e-03
2.253983846610946654e-02
1.324233274083777903e-02
2.673280413949358572e-02
-1.374458143995311438e-02
-1.311464121053442303e-02
-2.029587633201282437e-02
-5.774096948636935761e-03
3.928507629896855341e-02
3.236391094826415737e-03
4.615053605850770457e-02
6.968347453811593595e-02
2.654703169620638292e-03
-1.529753500753906759e-02
9.261755857604289655e-03
1.566922229658618271e-02
1.231341476065506840e-02
1.606390768587864781e-02
-1.716740409339163886e-02
6.894936870854627420e-02
-7.271674145891852958e-03
7.202749759295834497e-02
1.370272400112299838e-01
1.040214200317245985e-01
1.098752903948146398e-01
7.550286973731283602e-02
4.982778321186822484e-02
8.276246838759988844e-02
6.269880323198243066e-02
1.044102284457931740e-01
9.874219066425068969e-02
1.517268031366948156e-01
1.789348639531298801e-01
8.045279782775326127e-02
1.690803245908396868e-01
9.475872544560012822e-02
9.357685729181924872e-02
1.180786344836532997e-01
5.663094050095674598e-02
1.438414944080509683e-01
1.493603456734948765e-01
1.300508697097212396e-01
4.530498275677871667e-02
6.012675089541864165e-02
1.071570962536826654e-01
9.510286580744460594e-02
9.307835183125817702e-02
7.821373837939063489e-02
1.250629885845462030e-01
1.078649780865317265e-01
8.173400781272252558e-02
1.282337796742202274e-01
8.452747429179964522e-02
1.114872165229889023e-01
1.272520347748249403e-01
1.630568458343580329e-01
1.211507094878518376e-01
1.251388559216282115e-01
1.866315462845351825e-01
2.110617395469057966e-01
2.426351228865708531e-01
2.722270792700677289e-01
2.945758441018139218e-01
3.471545364593348060e-01
4.283687473447882477e-01
4.290972350119958700e-01
5.665147120364367739e-01
5.366636583062176502e-01
6.456696824843065619e-01
6.990058782621132449e-01
7.402398940485627188e-01
7.620987567528964002e-01
8.323357957367036875e-01
9.270474245306391525e-01
9.354250376047129611e-01
9.287835245675069018e-01
1.049240530072273359e+00
9.789624757011191614e-01
1.085171844992003809e+00
1.070185472751698175e+00
1.033378920621745634e+00
1.003410084778512124e+00
9.389427729556841795e-01
8.801367356039467849e-01
9.186543429326721188e-01
8.531813762215827435e-01
8.278970366912783430e-01
7.238996009851428326e-01
6.933566154364811940e-01
5.854276075860807005e-01
5.470636461919983207e-01
4.968674019221994143e-01
4.341430506377604304e-01
4.066487772810508661e-01
3.230026691379494497e-01
3.192231582016763491e-01
2.906781099217850550e-01
2.595134811024323307e-01
2.365288602450827948e-01
2.204859597562987550e-01
1.747809629270042076e-01
1.703781703748711296e-01
9.337962512320285846e-02
8.111592915840458440e-02
1.490034798666295957e-01
8.722322413217556414e-02
8.737739052028964393e-02
9.943006535121527711e-02
8.297600340665955976e-02
1.088836309079024289e-01
1.025142482934723875e-01
1.395188770791360722e-01
1.031415449179403920e-01
8.178714557270749808e-02
1.403399213169256310e-01
1.350118267030066266e-01
1.284862160912218776e-01
1.352466911793021309e-01
1.271059044298522567e-01
1.238637171120931246e-01
9.205446658046781416e-02
1.671015440789901108e-01
1.673166137940331477e-01
1.290800786174080561e-01
1.850003844772746264e-01
1.461416972739125741e-01
1.708627651695532601e-01
2.373086184421500655e-01
1.417128943192874357e-01
1.969915371006384086e-01
2.164261265278544510e-01
1.803818165161591713e-01
2.393485191872009588e-01
1.854159513009179527e-01
2.090931460370789308e-01
1.711117570896983908e-01
2.123147587060688068e-01
1.944877279385613389e-01
2.169137601087110234e-01
1.983046366835470309e-01
1.592536823521362443e-01
1.665766251605631243e-01
2.179029404586733387e-01
1.844171408920988464e-01
1.824156793206359040e-01
1.546180765273052204e-01
1.393016701293684489e-01
2.146054804900257296e-01
2.280600891077446124e-01
2.103232212551353897e-01
1.723327494867745724e-01
2.097545947377218445e-01
1.914444241007388081e-01
1.732543517692584079e-01
1.582982188198324425e-01
1.706146579376673911e-01
1.302165832374135856e-01
1.604908596963863787e-01
1.907607984026072623e-01
1.990023508504338567e-01
1.561646813821030155e-01
1.543982367194619287e-01
1.972547773259127335e-01
1.563044814742763078e-01
1.480386510704300163e-01
1.540182810122137924e-01
1.235290855118506004e-01
1.826345242935141500e-01
1.314900937298437156e-01
1.602198571484289846e-01
9.890867789436891266e-02
1.280974576507513951e-01
1.437093827780163147e-01
9.669765713270131458e-02
6.684799643685182535e-02
8.880095656801316462e-02
1.096500954141073070e-01
1.124465035092909598e-01
3.782010154233856475e-02
1.197596631425437708e-02
2.187635667163510128e-02
1.057045269994915659e-01
5.629957910967624268e-02
6.308676741804736254e-02
1.026710265787008497e-01
3.901845453796519425e-02
7.287572850133873514e-02
1.168286926970567019e-01
-1.013945153924399739e-02
-8.064966890227190377e-03
4.251458518444273249e-03
1.036199203211873171e-02
-6.490382867533027456e-03
3.480509746657088621e-02
2.111195827044409085e-02
-3.996882484077041164e-02
-2.348307163874061021e-04
-4.602739494978167617e-02
1.513075994736115537e-02
1.034545081436578917e-02
-7.683659290654401564e-02
-7.562543685225313339e-02
-1.879640468838731510e-02
-5.909199831209453746e-02
-3.407974518245060480e-02
-3.126308368558530781e-02
-2.961206813646736699e-02
-1.944544975220189459e-02
-5.203729828463452001e-02
-7.199625181723663669e-02
-5.928857668032110062e-02
-5.174802231222011550e-02
-4.315648606419668354e-02
-1.532835799537396460e-02
-7.707211034654661008e-02
-3.581091798873577148e-02
-6.498648760851802320e-02
-2.511124379374111981e-02
-7.076239571291115249e-02
2.397751143755511016e-03
-7.825119837463032080e-02
-7.877220734039243333e-03
5.738889649101595880e-03
-2.308873055078211264e-02
-6.907541626887372943e-02
-4.065732121220032302e-02
-4.489431677813887633e-02
-4.314890086191783269e-02
-1.836857456559579105e-02
-4.940659767076420461e-02
-2.932294538028765163e-02
-5.488212062228868537e-02
6.290518455356886030e-03
-2.871928500224299463e-02
-3.197279707810526256e-02
-7.787031314239856172e-02
-4.177056780508071193e-02
-5.695412675907762790e-02
-3.621993481667758197e-02
-4.394570070021552866e-02
