9.832023853461656637e-01
9.719335823441808131e-01
9.573009641724294916e-01
8.868944074699447455e-01
8.635420078647756403e-01
8.941564030926146822e-01
8.410098957306906264e-01
7.752134216919287502e-01
7.126953549698467061e-01
6.624171139191604718e-01
5.796043256026754964e-01
5.430824216905674184e-01
4.599996517738057511e-01
4.684261670516298159e-01
4.003674991624460722e-01
3.289698112170826860e-01
2.918319354737705651e-01
2.574407469038918483e-01
2.072135657109551721e-01
2.184354824022690655e-01
1.845120425375779694e-01
1.428580591455131110e-01
1.480706496886212975e-01
1.886447727430654586e-01
1.213772611914200605e-01
6.935472220084895612e-02
5.731317363445192353e-02
9.010085772586379216e-02
1.025320535196108385e-01
8.514625844851556047e-02
9.185773960651741343e-02
8.099310704971060537e-02
8.121398833232865155e-02
1.393121176530400795e-01
1.247377901988095950e-01
1.332385733456928345e-01
1.582189510501106622e-01
1.302285633032037870e-01
1.387880724194995585e-01
9.910051134649408566e-02
1.952054775429069022e-01
1.567283206786202476e-01
1.553739295662571185e-01
1.210640803627855699e-01
1.451613993939085412e-01
1.536080475633156139e-01
1.939627489796703630e-01
1.918067760168342684e-01
1.604639432159445656e-01
1.986764264378707567e-01
1.982890477850633992e-01
1.403943478911695575e-01
1.722897548722389094e-01
2.408034475748064285e-01
1.979703147514107475e-01
2.478866480866765698e-01
2.221475396836718463e-01
1.947840715671549094e-01
2.092829402443142084e-01
2.370847852404129319e-01
1.965976837358094087e-01
2.456993727218341750e-01
2.494947702557822611e-01
2.535119899157800560e-01
1.740111120013294599e-01
2.210227099965627884e-01
2.067404186386339604e-01
1.887475908915486611e-01
2.501727600367418813e-01
1.773708012427712144e-01
1.884743595936351213e-01
1.944042621938779358e-01
1.842891352818810113e-01
2.081537468199002594e-01
1.704905700287409620e-01
1.796934721494596321e-01
1.799953111900478020e-01
8.764966401384638450e-02
2.332734446374648274e-01
2.041046296438206453e-01
1.320350677964778618e-01
1.717252850361604688e-01
1.535460904551646522e-01
1.953060937502107686e-01
1.701978102323806752e-01
1.076843258348703092e-01
1.326642326341287703e-01
1.568898997778447602e-01
1.111770727675743115e-01
1.227349156570599481e-01
1.379245712107140531e-01
6.647367813269178249e-02
1.495670094665692840e-01
1.485698352610564932e-01
5.449557447095652180e-02
1.051819252775048064e-01
4.864530834966801498e-02
1.203420517739781093e-01
7.252969013090571071e-02
5.966778976285699865e-02
9.930465861990173115e-02
2.438703922074655223e-02
3.695331267957119303e-02
8.557968199746393556e-02
1.265474038265437529e-01
1.112816397195551532e-01
8.572652667979091534e-02
6.112662799096497263e-02
-7.400030233516013967e-04
3.733527825313837090e-02
-2.941125622187221178e-04
5.469300452050496891e-02
7.529340783116686420e-02
6.478375963795100778e-03
4.022840118984608720e-02
2.455838672490021773e-02
5.609861687107038641e-03
1.166854327038458067e-01
-2.540275253651747694e-02
-2.827628032667408448e-02
-2.792724480344663252e-03
4.976283578630597004e-02
3.936669453201389890e-02
7.446197475701375745e-03
5.705014264382830824e-02
-1.291857845218305489e-03
1.325158888042697602e-02
-9.589812692040174807e-03
-1.961107379622810745e-02
-1.042872665824116571e-02
-4.113173048209679827e-02
-2.410378732977743604e-02
-2.626490683430413031e-02
-2.935683137943143756e-02
-8.528177508463730822e-03
-2.423239770342557747e-02
-1.138395180933212195e-02
-2.328281856097317790e-02
-7.480539645488901157e-02
-3.079677630824331422e-02
-1.429923549976198915e-02
4.993202783373452969e-02
-2.393889219965592702e-02
1.380846837147998649e-02
-6.314838921962342977e-02
6.426358749231534523e-03
1.484226304742433319e-02
-2.269685975331978134e-02
-2.788606204323997723e-02
-2.342832613643685419e-02
2.429133735098064351e-02
2.975824996663618827e-02
3.660448562057229405e-02
5.244659778756390056e-02
-2.779486195424331341e-02
-6.854708163037279145e-02
-4.443995945848988605e-02
7.942312102554374698e-04
-7.702513452387246828e-03
3.211064528088389963e-02
5.618385364531647969e-02
8.763121966734963020e-02
7.805531640582553943e-02
2.758062475775057906e-02
8.227583789333060837e-02
8.348135845289281209e-02
6.229737707559014626e-02
1.844996026425778715e-02
3.544383279350699079e-02
6.901745494775715639e-02
9.538095496741469392e-02
9.099144029036376757e-02
6.099087509528712536e-02
4.548728944074696690e-02
1.028157116853572473e-01
9.602957963283241527e-02
7.451352444488977544e-02
1.127983287009375057e-01
1.015285447817391162e-01
1.442865240362059265e-01
1.044280915029906220e-01
1.846677344147520383e-01
1.545001748407263120e-01
9.969418118075488999e-02
1.520224458439551063e-01
1.225937720958768240e-01
1.664908600492817636e-01
1.720019997951120483e-01
1.132082848170260087e-01
1.194910036124998132e-01
1.490128306414280068e-01
1.526761790477351999e-01
1.078343673342871262e-01
1.403345708698060523e-01
1.595698578925144606e-01
1.265921192996916078e-01
1.441153634245233295e-01
1.337662555832368205e-01
9.596791537053472876e-02
1.715066379880455516e-01
1.863292906017250672e-01
1.603365731357538904e-01
1.954635601284960000e-01
1.860021523249782704e-01
2.383272986942547578e-01
2.452392720603331910e-01
2.821643916944947539e-01
3.572325365687704646e-01
3.157707223649649508e-01
3.996151671444269637e-01
4.751969373905812755e-01
5.044415096956970102e-01
5.413894077672135596e-01
5.868556223250064319e-01
6.236039134942629181e-01
7.262319731646067478e-01
7.874338058215459846e-01
7.388576738692338441e-01
8.478716409361317652e-01
9.433656529230616261e-01
9.383901547145173661e-01
9.821178926161521217e-01
9.739909185745085907e-01
9.816408840462159668e-01
1.020329144881014560e+00
1.003052367178087989e+00
1.034105719290103309e+00
1.026427886907497866e+00
9.327038583234965596e-01
9.044765155861239636e-01
8.300474049248200981e-01
8.668182131662952594e-01
7.907140668439318620e-01
7.372531106838400294e-01
6.397446569571276775e-01
6.013440367141291709e-01
5.008621192512875409e-01
5.171892974222773720e-01
3.954265035113502247e-01
3.990134030716506186e-01
3.454771706205000958e-01
3.197981498311818771e-01
3.168664069626652702e-01
2.393363595587726378e-01
2.381709698358002447e-01
1.957372385626884870e-01
1.936313704539991409e-01
1.582134311740573673e-01
1.643624335076394882e-01
1.416567774556065085e-01
1.363459751953199350e-01
1.534350145996562220e-01
1.360143691653705744e-01
1.340303835546608202e-01
2.044682082246219723e-01
1.544930913672732664e-01
1.240434663277571736e-01
1.350603880281216196e-01
1.957764445127803121e-01
2.030125255757565805e-01
2.063075562617969483e-01
2.080669260492074291e-01
1.859072261693725525e-01
1.701399582762804785e-01
2.093306803095612567e-01
1.730028550292155298e-01
2.037069964280543988e-01
2.305430994807329825e-01
2.095727270736794934e-01
1.886904409433222685e-01
2.053906523446293320e-01
2.420552652518719872e-01
2.602682993114709964e-01
2.807204429700261850e-01
1.913448963452188956e-01
2.081451124462311841e-01
2.392529068073674936e-01
2.284259370502211006e-01
3.142043728024153104e-01
2.280714784256431815e-01
2.664544723480461452e-01
2.469176273185043069e-01
2.279158123538058689e-01
2.592682874036958962e-01
2.422303247029402862e-01
2.799490065053157339e-01
2.728049193563753527e-01
2.290821985917461390e-01
2.484092046414695110e-01
2.161223974266036074e-01
3.123973209128272366e-01
2.833537957214101732e-01
2.517119578829289939e-01
2.338647134922308968e-01
1.916493832393716679e-01
2.636903740218231595e-01
2.687980350035600874e-01
2.714650455798321427e-01
2.492246650333591884e-01
2.422486659192137071e-01
2.711023882005704211e-01
2.737440544146825250e-01
2.669627946007376296e-01
1.801110995055261454e-01
1.953181619900911103e-01
1.905850396921753287e-01
1.828958397694964433e-01
2.070032906800578776e-01
2.284728538379771079e-01
2.223066980765014133e-01
1.773128527480073713e-01
2.374228513123214923e-01
1.898558740420553670e-01
1.805034536666023093e-01
1.320717068579952969e-01
2.159057824806801251e-01
1.587551201528344946e-01
1.315458054970431723e-01
1.992874507475991264e-01
1.561652700687155282e-01
1.354338347407568477e-01
1.170550700560375468e-01
6.863761477037284842e-02
1.374778855560739310e-01
1.503069573911334222e-01
1.467939935328479162e-01
1.568839364458308738e-01
1.653848589044687178e-01
1.712430306429548188e-01
7.334707062921282106e-02
6.133585989178948206e-02
1.111809780538728920e-01
4.542190392130447674e-02
5.364704195366119810e-02
6.664260517864786793e-02
6.375511432744597473e-02
8.635466241183439862e-02
5.998426157840247575e-02
1.155280772801972611e-01
6.502751907129393494e-02
3.982048370202492804e-02
8.887626912483109765e-02
6.468250905596023559e-02
1.728122878851622371e-02
3.568107064016930868e-02
3.868690529720181237e-02
3.030577813908589754e-02
4.620851967505362756e-03
2.296522526677085424e-02
2.668697872290934359e-02
1.069500888117538712e-01
4.627054030084887942e-02
6.907800423615340080e-02
9.401683933483281908e-02
5.920489363435673530e-02
5.512138031151257722e-02
7.641218000653869635e-02
2.053900274982396051e-02
6.578867411124608711e-02
1.925744776471301212e-02
1.697997725313383707e-02
3.863098505303660252e-02
4.835518686404592648e-02
8.168042033043439176e-02
3.550776103270092410e-02
7.174530525191630259e-02
7.033817316018066423e-02
1.713830225506913357e-02
6.068688170221760159e-02
7.139258033035203455e-02
7.342942277502836901e-02
5.821201519928156931e-02
6.220765524880121633e-02
2.712631272377023783e-02
4.050810712192027402e-02
1.207175240528223226e-01
9.229886500948711325e-02
7.861521066974834493e-02
9.102156198422788058e-02
7.107605679144060606e-02
1.202846414728092478e-01
5.510819900401633942e-02
9.604429257956136057e-02
6.704500329932483460e-02
8.407845652706913420e-02
7.172293630612500137e-02
1.596754524564310274e-01
1.568949947331312877e-01
1.408079497155108051e-01
1.746755007059266895e-01
1.122560132957302059e-01
8.543350270973629201e-02
1.250802037576916048e-01
1.078474170981827129e-01
1.256939694135946750e-01
1.279505651870328775e-01
1.873946420199517071e-01
1.473987375245613407e-01
1.318376465141225251e-01
1.599099994447009121e-01
2.034610077567284292e-01
1.559904492174754298e-01
1.716563013439727503e-01
2.084245952089680554e-01
1.549454290556598335e-01
2.015269233893517697e-01
1.862070725679420835e-01
1.970308425439233346e-01
1.948209565604542282e-01
1.943733836477535004e-01
1.651990058278945961e-01
1.944560067524198077e-01
2.329050626356830855e-01
1.868799057086798221e-01
2.002503902930290181e-01
1.920184933803245064e-01
1.592100841312860116e-01
2.361525903854400088e-01
1.482079950775279376e-01
2.157777210930668377e-01
2.246313241463517574e-01
2.115932556659071151e-01
2.203196723272674018e-01
1.766915061448036117e-01
1.963763321077922619e-01
2.955152954315279357e-01
2.514561457228641772e-01
2.891408280253449092e-01
3.319318563974382741e-01
2.551941903686412161e-01
3.020038980752192126e-01
4.011892732959976282e-01
3.483292142674314640e-01
4.607245034140708961e-01
5.191769894655686723e-01
5.185452678021776896e-01
5.955980403214188312e-01
6.565278873891020606e-01
7.126588420879592656e-01
7.639412420074875865e-01
8.072010873422428290e-01
8.923458533359710509e-01
9.469147174764876995e-01
9.767921257333728180e-01
9.960433628186260435e-01
1.024943842399673066e+00
1.055670783747057140e+00
1.070178545009154103e+00
1.088229519199262141e+00
1.123903870573838448e+00
1.097455858135492957e+00
9.968333480439452998e-01
9.850702769034433981e-01
9.305867373183203117e-01
9.036462393418359662e-01
8.555352003173651854e-01
8.222973647702046529e-01
7.241020023112085813e-01
6.963087922879975800e-01
6.668250818866972018e-01
5.818995002167896002e-01
5.437493274449971548e-01
4.285862490678568615e-01
3.737747160232483545e-01
3.774864040154604639e-01
3.557969064131173420e-01
2.823491289325932851e-01
2.765159170677313760e-01
2.753865642606489472e-01
2.698295748164117325e-01
2.053672483530360471e-01
2.898823767217235114e-01
1.950121942225866711e-01
1.956793161825647609e-01
2.398939720560073763e-01
1.550445497783482784e-01
1.944512130970257324e-01
2.267715070718465120e-01
1.946033353662210419e-01
2.142548668955508995e-01
1.976161567540446473e-01
1.920252972682523485e-01
2.254010148808988367e-01
2.185008904329285573e-01
2.166105312320032172e-01
1.937536716697383088e-01
2.927744136443281020e-01
2.010766567643691716e-01
1.832424656845320632e-01
2.183384423356920234e-01
1.979010449527968396e-01
2.140541100129880192e-01
2.560579068651619994e-01
2.293860922716930151e-01
2.930010990310765173e-01
2.494549974961252914e-01
2.364235791720152857e-01
2.947572879428131953e-01
2.576646230723271813e-01
2.731523056429251417e-01
2.592262492268284646e-01
2.666245202639329626e-01
2.909853533713501195e-01
2.279552520436030350e-01
3.717479015728590297e-01
2.608249257994096904e-01
2.980588676825245420e-01
2.549003351964597708e-01
2.868614597966379076e-01
3.091633209656203807e-01
3.724038458438067023e-01
3.031627126544211293e-01
2.937981353431081133e-01
2.833583595213680639e-01
3.154695450413316782e-01
2.985001149291555689e-01
2.502852148107065355e-01
2.707731487052550401e-01
2.784103608545807629e-01
2.751031578313969383e-01
2.467969376840016549e-01
2.700559379175895280e-01
2.975026352355371606e-01
3.283348320681004906e-01
2.824080651438768408e-01
2.750483311406983766e-01
2.898864354438319690e-01
2.413452231459443653e-01
2.481317139783849601e-01
3.295590633883153653e-01
2.696109438826437277e-01
1.955480970166815213e-01
2.605550078503325317e-01
2.677920197371436162e-01
2.163683995380816516e-01
2.192192121093182178e-01
2.689239675022029874e-01
2.100329180790800887e-01
1.973043545359309259e-01
2.395622669266828098e-01
1.902900759226361649e-01
1.588817431945341585e-01
1.960706705921732573e-01
1.919778708763385522e-01
2.119293455424886008e-01
1.795725713837962034e-01
2.745804396719400131e-01
1.400688697847138342e-01
9.178661528228407307e-02
1.677128623164816090e-01
1.261671809523340626e-01
1.802945909273210301e-01
1.546661497143048680e-01
1.281605695524159205e-01
1.583297516861361109e-01
8.219592535029590641e-02
1.322930258798101777e-01
1.363311022689134289e-01
1.123020858083241535e-01
1.301493537065144812e-01
1.373494123168340075e-01
1.171570944495739230e-01
9.839968475599333853e-02
1.564646986111589977e-01
7.277108808794838235e-02
1.416802415949858229e-01
1.536684480545219555e-01
5.426466997108422841e-02
1.027138451487898813e-01
1.090150852989209551e-01
1.117034003989551549e-01
8.146590794580443884e-02
6.259357113162510033e-02
8.493825529859252987e-02
-7.977403389160288294e-03
6.598828090482358744e-02
9.824667105026269054e-02
9.268143600340109090e-02
3.761202593292516105e-02
7.220576082658783368e-02
1.043225972765035453e-01
6.680414565581380137e-02
8.109428861910217279e-02
2.405276211207069137e-02
4.025256737543611574e-02
7.383559062438821430e-02
8.935449277533687173e-02
1.190145788976122443e-01
9.766764620496901084e-02
3.460343339298120602e-02
7.043436180625285703e-02
4.170129043039104422e-02
4.937455165381752359e-02
6.497756969084554635e-02
5.067469330198370869e-02
4.272284576757944680e-02
9.817163539393063132e-02
5.425208052957013194e-02
1.082776500000133257e-01
1.131349447592950447e-01
1.119516228541163061e-01
9.261772407223242687e-02
1.074294212198232540e-01
6.939841413444754192e-02
1.038055071297965537e-01
1.036360782015278564e-01
7.181972774842074192e-02
1.039004196772862487e-01
1.427111746877775256e-01
1.186318285990764498e-01
1.038814433661147674e-01
1.371074899675899517e-01
9.133560073754004582e-02
1.337571838252073486e-01
1.469377867744746657e-01
1.089187784774965362e-01
1.907000247661627124e-01
1.730511044876709703e-01
1.582081938510257191e-01
1.765376845425466745e-01
1.217623409774220011e-01
1.475242594832623100e-01
2.596819325539754253e-01
2.108295889141953983e-01
1.242035787439228073e-01
2.233619843228062396e-01
2.023897437684438749e-01
1.934539146281012978e-01
1.922835354641613537e-01
1.749157154758745336e-01
1.330406948662236910e-01
1.786127566493750374e-01
2.389616072572088579e-01
1.790610716174683703e-01
2.120620440173642263e-01
2.390175736757000902e-01
2.176690053465577535e-01
1.792915073005252602e-01
1.557603450012416402e-01
1.729037930403684309e-01
2.292285145828273363e-01
2.101306679499461427e-01
2.154502739866694661e-01
2.357423783664328309e-01
1.731762843980390043e-01
1.617568823158376246e-01
1.829607931922866693e-01
2.412727520460962727e-01
1.918264066401245416e-01
2.239171731527372922e-01
2.445131499904520944e-01
3.074228035181279517e-01
3.117752115935535917e-01
2.935086686744506901e-01
3.699614738819642090e-01
3.921918623189402653e-01
3.879466568824324613e-01
4.990609801943250434e-01
4.750919717397897868e-01
5.463454975438089001e-01
6.328279472692829311e-01
6.475204013373391243e-01
7.498278390440470398e-01
8.081321332353563758e-01
8.252248302774315425e-01
9.034086421709481840e-01
9.953476872272657427e-01
9.710447786674235582e-01
1.000130882703948787e+00
1.064196621343693749e+00
1.038796405807561385e+00
1.047571711154267282e+00
1.066600325395179238e+00
1.031594827976715978e+00
1.011515582049231643e+00
1.033802221124510146e+00
9.896375890264206276e-01
9.578014607994924656e-01
9.178234848797984791e-01
8.149852284944332226e-01
8.049425990641836393e-01
7.578530667309526514e-01
7.353710307118526135e-01
6.590568924037790710e-01
5.171681958577865057e-01
5.149254315876106158e-01
4.874035386795821934e-01
4.158190908176614409e-01
3.977885760286942185e-01
3.842457701577620677e-01
2.577838297358250874e-01
2.890505802787878831e-01
2.090211391078196645e-01
2.291793336606614828e-01
2.530868947490809706e-01
2.423880461083768034e-01
2.129856464579110431e-01
1.891065951938419032e-01
2.240865757562267024e-01
2.308701303346609723e-01
1.769320699563101396e-01
1.596707585251097572e-01
1.886363917407032076e-01
1.625825515951068445e-01
2.078176086029513148e-01
2.511368074086220981e-01
2.111617376811970315e-01
2.260801967917208111e-01
2.249954846158016553e-01
1.992598192379863020e-01
2.107482846419876377e-01
2.280856091552977694e-01
2.251713681899731312e-01
2.277522605352628737e-01
1.815479246303514371e-01
2.346280396550730063e-01
2.645220714001100260e-01
2.755358253649948796e-01
2.499564204084266383e-01
2.406190353635055956e-01
2.707950570494396803e-01
2.325175225509218124e-01
2.641926414690987102e-01
2.233966653130029234e-01
3.025763980558743294e-01
2.071009342862488445e-01
2.316864344356711902e-01
2.711442343183246839e-01
2.612377023086180361e-01
2.918759112470166173e-01
2.944580535056742776e-01
2.613686101764465253e-01
2.635786162544559996e-01
2.678899260651322334e-01
2.763156890714604241e-01
2.551504716600114242e-01
2.839746847344114533e-01
2.521013853385088987e-01
2.925210306907914393e-01
2.703969803540951511e-01
3.062703827191983752e-01
2.998236643308216376e-01
2.678723866676258614e-01
2.423535758524252015e-01
2.510272166814774275e-01
2.650568808449682012e-01
2.365217303873131116e-01
2.553408652608490925e-01
2.220816511925917391e-01
2.263116399291090208e-01
1.714842733493050775e-01
2.564251842793901504e-01
2.678485596756395304e-01
2.616184965339287127e-01
1.686316252319509934e-01
2.879612105463943417e-01
2.512955441236024434e-01
2.676845754587155457e-01
2.410061806716597421e-01
2.247575064524737765e-01
1.801472557233317617e-01
1.378228911527251688e-01
1.898827097827409660e-01
1.857191537730080166e-01
2.031293701324480838e-01
1.473478202188204245e-01
2.373216934275457213e-01
1.308164553627986504e-01
1.669192691706567200e-01
1.477768448002102497e-01
1.172547190464056643e-01
1.999463194405190214e-01
1.601309621253133031e-01
1.134971586164780499e-01
1.734621847096174951e-01
1.041704744927406806e-01
5.651426065282471461e-02
8.973517394056142182e-02
1.050654443444839770e-01
1.011827337833072771e-01
1.152382097525229687e-01
1.001473403214955676e-01
1.348251776081159925e-01
7.584336060477302188e-02
4.810498880173484648e-02
5.307703632905057950e-02
3.323685386135608738e-02
6.605955183418213417e-02
9.445067757924138774e-02
9.863938629294330407e-02
7.610288504292869738e-02
6.448544197158112556e-02
3.304603868745339262e-02
1.110137025441476910e-01
4.066937116377807027e-02
9.179211749256090125e-02
5.223327512077927115e-02
8.492255930868546077e-02
4.031804430715345278e-02
3.059842216326724706e-02
3.919013549306460398e-02
9.084503197927475127e-02
8.935312544749857144e-02
2.131880012449895515e-02
1.970065868696341954e-02
8.780155154205597501e-03
4.625036267304443588e-02
6.827951941060669827e-02
4.952972628733968985e-02
5.975377322809662106e-02
8.702396433949488586e-02
7.413987420021374286e-02
2.381350365284703660e-02
1.072175718552785539e-02
2.640960431109692572e-02
5.851642418345830848e-02
1.222249925904461687e-02
3.087302767016989261e-02
-6.870114870511151092e-03
6.098714426740517447e-02
5.582262505997530322e-02
7.044813712298692021e-02
1.815959033066919318e-02
5.946100519395841610e-02
4.942711523536792023e-02
8.778484598428203112e-02
3.866799285388891616e-02
1.068598174284514229e-01
4.266860476988682677e-02
1.057688618635869993e-01
8.612455685623780777e-02
9.806450000668976569e-03
9.230188178629222806e-02
8.478690093119645166e-02
9.490182050554903104e-02
7.718910231372043407e-02
9.231142968383905523e-02
1.071121094430502463e-01
1.095743307873361522e-01
1.577975942591168523e-01
8.301963001056700264e-02
1.158374341753658360e-01
8.161572926026793018e-02
1.129482674706707018e-01
1.193933251198187190e-01
1.175416955936377239e-01
1.265434156840134772e-01
1.417176211913706574e-01
1.182475232005789773e-01
1.379614703860563008e-01
1.257288097066555366e-01
1.592467932399380393e-01
1.285714907313003363e-01
1.575128018768153504e-01
1.464281500956808868e-01
1.775698011616698435e-01
1.292368624578290881e-01
1.603949610674775816e-01
1.410120430920656642e-01
1.694391867545076424e-01
1.606354080905589010e-01
1.934103470641116151e-01
1.512647594227739256e-01
1.773133415058111284e-01
1.258326838389959845e-01
1.454538476440547790e-01
1.473936443779091388e-01
1.903907255647285246e-01
2.063023823290189851e-01
1.806620803447202273e-01
1.874239861556551701e-01
1.815489167500048129e-01
1.631677458573285444e-01
1.450446691201193461e-01
2.031632915130878181e-01
2.521962939944260018e-01
2.276983449425306061e-01
1.796085758621058792e-01
2.895569724684973201e-01
3.463272824587920740e-01
4.356712329106329218e-01
4.436821642384499165e-01
5.316994661019606161e-01
5.969035450547820476e-01
5.746708880747510850e-01
6.320272678159228885e-01
7.204874841034217825e-01
7.774436550484670194e-01
7.888956137727507478e-01
8.692494243848422064e-01
8.408050015736325822e-01
9.064235909843304517e-01
1.013432501779409911e+00
9.803088289133852218e-01
1.015018466516113049e+00
9.811926684356944151e-01
1.045012569205394648e+00
9.971654280193517073e-01
1.013476195540174762e+00
1.005984775101241846e+00
9.181871948101643088e-01
9.314464803805670989e-01
8.919095086283006513e-01
8.472998568122239726e-01
6.968338181389440722e-01
7.006702003722470318e-01
6.193279289096410567e-01
5.696710011031504983e-01
5.346774483277640932e-01
4.567695581452119735e-01
4.191705911524537531e-01
3.784748423476576029e-01
3.291430949479263179e-01
2.864833596554757777e-01
2.518288811586397724e-01
2.180200656701117845e-01
2.199051117233134234e-01
1.735107831906370079e-01
2.146635267411633463e-01
1.578631604312014380e-01
1.665252966639086118e-01
1.475498389132774424e-01
1.075296150717539173e-01
1.524335807956661293e-01
1.408475400956421542e-01
1.244748981365742108e-01
1.550718979444705992e-01
8.154125637210564437e-02
1.577703298928261888e-01
1.361011868183118756e-01
8.555826506919217422e-02
1.753050578935662629e-01
1.829793285790765889e-01
1.667637874472892856e-01
1.484405831845194701e-01
1.251483902683860061e-01
1.819406526957166870e-01
1.734978287702488853e-01
2.086058746141259690e-01
2.133437366267015023e-01
1.965420325186268691e-01
1.922241727650287890e-01
2.034123440584814646e-01
1.466521888774987847e-01
1.474025752607664996e-01
1.470613026124000799e-01
2.447511407714623444e-01
2.146725967147392611e-01
2.412503154920747905e-01
2.575123419271952985e-01
1.879051366088869135e-01
2.046363892168706067e-01
2.533678800549132304e-01
2.350111724101470734e-01
2.176200517800413736e-01
2.271346872554010354e-01
2.370781967590292749e-01
2.409465105509039917e-01
2.065667170464265123e-01
2.488494573152681133e-01
2.075769493476087579e-01
2.471982820301150130e-01
2.391414949941619850e-01
2.600510411368665564e-01
1.999574279375082309e-01
2.287203866238601557e-01
2.354884772495528522e-01
1.956545089363900813e-01
2.292945022218385587e-01
2.158197070634241266e-01
2.236852373457188514e-01
1.898319868909035535e-01
2.140588512996659254e-01
1.643836846248323269e-01
2.269279926390482816e-01
1.943134513845092559e-01
2.242382751173688238e-01
1.759634236372537019e-01
1.683929892589961508e-01
1.597530563748096322e-01
1.403441084623090751e-01
1.695571906249459526e-01
1.192318794895181333e-01
1.443582725357800967e-01
1.352310509952314999e-01
9.383312084728130664e-02
1.076194071596903168e-01
8.757359043322383851e-02
1.314312627120551580e-01
1.665891058038357353e-01
1.093802443443686462e-01
1.174431820635244705e-01
8.341875796922756936e-02
6.656427320467053765e-02
9.631959729401372294e-02
7.480716693820757546e-02
1.600571680306137404e-02
1.082478225279934897e-01
1.388868348821399867e-01
7.100684440295118582e-02
6.961402286970275188e-02
-8.344254214007029713e-03
5.108937304295357862e-02
4.861678754649602363e-02
4.762206253353845620e-02
3.909868425399652681e-02
1.050525617445454557e-02
4.030382383336346408e-02
4.361047479884820610e-02
1.223479518257835352e-01
1.936499348722602390e-02
2.893372532464233426e-02
3.628343000745881675e-02
3.073791766423659977e-02
1.183464426193321650e-02
5.575013115230748745e-02
-1.176603299387028734e-02
-3.466589029094309382e-03
2.275684102014878529e-02
5.237697636996524464e-04
-1.660293479473132910e-02
3.588694073972193560e-02
3.388046923107988079e-02
3.629959470666090093e-02
-3.236354127324611585e-02
6.749778946985246497e-02
4.089396681901133479e-02
-5.755699509610497089e-02
-1.518654966274010990e-02
-4.086740834723256305e-02
-4.586665889660226925e-02
-2.857412366457312558e-02
-7.260094373470679652e-04
8.350919154659984522e-03
-1.416843349348820974e-02
-4.959565208412983206e-02
-7.120214255325008068e-02
4.103680550012221706e-03
-1.070319741238100544e-02
1.752571806203209737e-03
1.966742504493027011e-02
-2.119540459153007594e-02
1.969385346106064527e-02
-9.939996866319932012e-03
-3.019294930836256829e-02
-6.332330057976939819e-03
8.379497926845835831e-03
5.288739403387407445e-03
-2.326412274438273767e-02
1.602611375636323748e-02
2.634594885536516856e-02
-1.829563001696269189e-02
-2.538545286271202267e-02
-1.141066036512585272e-02
2.238728686647738220e-02
1.250644212090674251e-02
3.374950379156444608e-02
3.066948863379078544e-02
6.121272753214782730e-02
1.506544440013152936e-02
2.357000357477519875e-02
6.205568232995374578e-02
-2.898949629316335819e-02
5.859909549243838556e-02
6.038447537500322287e-02
8.847275808959911836e-02
9.315768156665386879e-02
4.077095095504067179e-02
8.510635373949400340e-02
5.861008748691993314e-02
1.275239518689663398e-01
5.780474878859909876e-02
1.053183473535165837e-01
7.913323342239217406e-02
1.091631396121112707e-01
1.406887373314036072e-01
1.432694058600221809e-01
1.168272361498014500e-01
7.854429244255348164e-02
1.239824137679522847e-01
6.178870048554185868e-02
1.121556679020102032e-01
1.312708456260287537e-01
1.012252862713290402e-01
1.093396096853078425e-01
6.568479415227368445e-02
1.915354550323381533e-01
5.251708151533235336e-02
9.249710597976584792e-02
1.173322836069350117e-01
6.045949681954310151e-02
1.537766333980986611e-01
1.690478512903040298e-01
1.047485616547821768e-01
7.146301660616559415e-02
1.314710531061153709e-01
1.350383123105959871e-01
1.751940831329403259e-01
1.820556639047843095e-01
1.824388883097555758e-01
1.821249921887985179e-01
2.655522876408184518e-01
2.336257810750496100e-01
3.091788780132182501e-01
3.567873788793810008e-01
3.764540464319681146e-01
4.171310012735491846e-01
4.639876255481309442e-01
5.399116964509550476e-01
5.636688120174480066e-01
6.471127282153128490e-01
6.615225700964193489e-01
7.257280896390033709e-01
7.651683848391938048e-01
8.432175130122883111e-01
8.924865088746782860e-01
8.903962087322138119e-01
9.557083600247430200e-01
9.658490789583646929e-01
9.623181465125735246e-01
9.710670162212813317e-01
1.002598098113969272e+00
9.161640904643716388e-01
9.003964743718569919e-01
8.977020074067029176e-01
8.558363448075273494e-01
7.962354650893365138e-01
7.166659273655969775e-01
6.909348502201294595e-01
6.344119594498062176e-01
5.788379380629017357e-01
5.503481344393031938e-01
4.632654114073153084e-01
3.611622267148770216e-01
3.895017281172963308e-01
3.068942243581717633e-01
2.127745705351263839e-01
2.492237325968217898e-01
1.798447233441739512e-01
2.105689109784971147e-01
1.580932286599915637e-01
1.735379188808995887e-01
1.442640128092845531e-01
1.543731060248922371e-01
1.326021701281234477e-01
5.556798422679323085e-02
1.059032102440529421e-01
3.462414808350550849e-02
1.126070710521370200e-01
1.276166549610701084e-01
8.695033680404251619e-02
1.056622465753161710e-01
1.583429618558933882e-01
1.233923511507092063e-01
1.501603382469048065e-01
1.143427786456169409e-01
1.298883378628407637e-01
1.295071559777014047e-01
7.215000822684468351e-02
7.948363773778061026e-02
1.620082547550990848e-01
2.104883740872282583e-01
1.645521148925762622e-01
2.164759733016249632e-01
1.409120606406312481e-01
1.905765550829908450e-01
2.155854776903424752e-01
1.742647701546664041e-01
1.885878707839200308e-01
1.790592561334094779e-01
1.334867153208470492e-01
1.825366125892498304e-01
1.641183433254535529e-01
1.936603668782784782e-01
1.879933917866627446e-01
1.728462523787316352e-01
1.828585349158184936e-01
2.457189868437588964e-01
1.980709923209112433e-01
1.883410320737970434e-01
1.525668032568622545e-01
1.452964588572240590e-01
2.072717150400252284e-01
2.192482248845130377e-01
1.838116357356671116e-01
2.007688291933243940e-01
2.242837393288169556e-01
1.994610572754654809e-01
1.585531050434496603e-01
1.959646098989061835e-01
1.859822726354874167e-01
2.581070854197455855e-01
1.998107765340611519e-01
1.628286652366799092e-01
1.989659518062628640e-01
1.517221836977648564e-01
1.869981069790392358e-01
1.784115515104363614e-01
1.647938296919779499e-01
1.907992259653348288e-01
1.715120417896596472e-01
1.641291665792435628e-01
1.369057145297846168e-01
1.970494042834856907e-01
1.739801915675351085e-01
1.385135823507228081e-01
9.161310509540977753e-02
1.629142165463233483e-01
8.286776622485993171e-02
1.195030354144620000e-01
9.156475747806849808e-02
7.292833711973341349e-02
5.332656959246176442e-02
8.861246708817580031e-02
1.284910322718263997e-01
1.138537792974364526e-01
6.701032774958087801e-02
1.187563849018719586e-01
8.517902392238957399e-02
6.247637001413662572e-02
5.120828179687429704e-02
7.203136360777941116e-03
7.084296331184199158e-02
6.141484794038412631e-02
5.676374806568151854e-02
2.483537667061031656e-02
3.685493854229510147e-02
5.548817904082264246e-02
3.259117307149091841e-02
-7.331640569600603174e-03
2.759502311089258308e-02
4.833796524138541523e-02
-1.057556885592397800e-02
2.148972405108795503e-02
-8.240706109109881272e-03
2.964444523707726598e-03
-1.896201010743804941e-02
-6.146412403872231200e-03
-5.300223479693391693e-02
-9.510339779948029371e-02
-3.624548975254825167e-02
-8.572064747320487510e-03
-1.485458197827493193e-02
1.982747855582848995e-02
4.176051855364897036e-03
-6.674408082271138243e-02
8.480736209205384790e-03
-7.528919197770635174e-02
-3.422218072357388619e-03
1.240113136779930764e-02
-3.663846361619854664e-02
-6.255235755069719905e-03
-2.258722090753030251e-02
-8.461705282927237115e-02
-2.460293645746465183e-02
-3.432088751110784486e-02
3.201676122592004431e-02
-3.782906495883716497e-02
-4.696983354429815766e-02
-1.677106885818234125e-02
-4.890612963547382591e-02
-3.342885419005134362e-02
-2.720342468457001561e-02
-2.251135349200135416e-03
-6.806485058731910620e-02
-2.864267222591414946e-02
3.517012113009650165e-03
-2.069445844493595851e-02
-6.745553271191317979e-02
-4.029389182717273143e-03
8.691144166763364876e-03
1.017935090606425508e-02
-4.700729761383189848e-02
-4.509603235424334416e-02
9.709982709342181162e-03
5.013552583874689161e-02
2.647802022964835383e-02
3.303268101973516613e-02
7.472754083495340705e-03
-2.355394935892236169e-02
2.943210818994593247e-02
3.744171973181965180e-02
2.672584351472516440e-02
-6.762654936313117204e-04
4.252593257902731461e-02
4.407541679844286658e-02
1.132027843713836468e-01
4.817685921317724218e-02
9.679106258872716140e-02
2.713764289278389891e-02
1.237572670558899357e-01
1.679925476422715336e-02
4.460231249291016914e-02
1.041624754265604025e-01
9.546608668331905967e-02
4.988084832665411195e-02
1.060364641360756754e-01
5.940184030832510592e-02
9.595480009271586952e-02
5.879503619477171455e-02
8.759840050013639745e-02
1.106964116090571326e-01
8.319936621633541862e-02
9.396230415679068804e-02
1.101073590050514611e-01
1.356733886457715255e-01
6.718720499052828476e-02
1.428906476995965291e-01
1.844083302723273088e-01
1.181563946558049916e-01
9.300193228392711342e-02
1.292020356183920804e-01
6.723225540443308890e-02
1.199012017071636321e-01
1.218717906640938986e-01
9.192197423252450317e-02
1.227821914565711547e-01
1.149623694378666960e-01
1.319376267119691803e-01
1.253831131785161368e-01
1.233072536965319210e-01
1.560600612300704904e-01
1.349234964071223120e-01
1.959214305123451461e-01
2.328631522629366346e-01
2.428635626119037272e-01
2.752061006379716845e-01
3.105565353176186760e-01
3.208279038207048073e-01
4.182422903312872364e-01
4.259989663270764559e-01
4.955108336546372172e-01
5.736810902932671929e-01
6.047746532839601841e-01
6.761474017850113150e-01
6.848934163064049896e-01
7.589904733778938262e-01
8.119279307251539013e-01
8.878036870318731788e-01
8.777289351939647766e-01
9.585982929649637940e-01
9.989255751985137710e-01
9.772132438847339619e-01
1.095667419807607068e+00
1.057041178611268561e+00
1.006127150170277984e+00
9.528176715494289795e-01
9.428141059762221721e-01
8.941540444573248259e-01
8.882365451008064072e-01
8.298664248450491332e-01
7.966081713785092555e-01
7.346338491266629633e-01
6.440044892667399212e-01
5.534207514708362474e-01
5.698121197932333182e-01
4.853203806370749440e-01
4.215913602693179829e-01
3.803878139399442526e-01
3.415348631213455111e-01
3.071930643571345598e-01
2.446350445280219277e-01
2.846794839872254235e-01
2.090162753760263503e-01
1.850423196063332165e-01
1.908566936374859746e-01
7.649592430848489721e-02
1.620743308617986767e-01
1.384343737461318502e-01
1.491638644825502846e-01
9.011905198466158007e-02
9.484369994322079667e-02
1.040469655253419140e-01
1.013032864692467727e-01
1.271232221915038485e-01
8.702039804390201971e-02
1.939071996971938605e-01
1.806524766574597318e-01
1.210530964764540279e-01
1.082161912090127132e-01
1.691522611443490864e-01
2.015636322846748318e-01
1.899493904865542371e-01
1.584454417980262209e-01
1.278676685006222835e-01
1.652216889358579521e-01
2.093605544939420027e-01
2.058258870233848625e-01
1.887824801003698261e-01
1.361520262773071865e-01
1.996475283208226648e-01
1.819653210520943976e-01
2.152147805997457475e-01
2.059582888337052053e-01
2.592248070273815430e-01
2.261498844712984402e-01
1.887096336154923115e-01
1.994817377386356450e-01
2.193358034652680422e-01
1.976937854236564818e-01
1.748179465043516456e-01
2.915691400551330137e-01
1.979055795730453315e-01
3.038289339075786466e-01
2.188855425974565727e-01
1.868160842869616145e-01
2.286748868146660507e-01
2.219145571586718657e-01
2.435876124115923247e-01
2.295831024200221671e-01
1.926025952845205891e-01
2.254789448696799259e-01
2.006291608556828032e-01
2.125118343644472052e-01
2.189320683073948670e-01
2.227321257198964510e-01
1.668966599765987491e-01
1.728414205228712697e-01
2.289601199212016602e-01
2.193145216251941587e-01
2.380340122821693327e-01
1.726620230044691728e-01
2.569445273258410545e-01
1.344899439787108908e-01
2.117868000893313729e-01
2.254331509972095915e-01
1.719961709688731244e-01
1.541570417316192321e-01
1.771302976812311192e-01
1.665733944072026740e-01
1.530858701602008098e-01
1.736382666925018747e-01
2.089490307241996248e-01
1.452228243454063428e-01
1.590002402566670359e-01
1.958381304997088845e-01
1.553751677750613569e-01
1.950583197078061826e-01
9.165121290097467954e-02
8.326753991886411133e-02
7.014102082761815293e-02
1.360832712618869622e-01
8.937472531614308602e-02
1.290318671396244454e-01
8.967405147156967682e-02
1.025887194518123463e-01
5.764852624394881803e-02
1.220920317387977627e-01
5.826793748820777163e-02
1.236429069413826631e-01
6.036044149053242103e-02
6.228321423363469833e-02
7.038207735773334417e-02
7.581407825937097611e-02
8.563825755524723249e-02
3.763877010062961076e-02
3.838609593269798337e-02
3.733033804233626407e-02
2.050678610660869317e-02
5.356989463881874081e-02
1.553605663096448673e-02
3.421492189743420564e-02
6.215177368704416505e-02
4.645673526528545927e-02
1.892837005648596166e-02
6.967071309763021858e-02
1.495682491783950629e-02
1.469852720198685375e-02
6.459895313887699386e-02
7.484215553956316547e-02
-1.265926294291310795e-02
9.014233774305120683e-02
1.845420429762373304e-02
2.366911514084396248e-02
3.335059708844742565e-02
4.760958237416693106e-03
-1.894388847289878511e-02
4.814494634497244741e-02
-4.084900122316580118e-02
3.272001147425402691e-03
4.143067837603829455e-03
2.009079155308003337e-02
3.834188748549376829e-02
4.918012354615008269e-02
-1.963443634124490550e-02
5.451510683785304456e-02
-2.556280861702493051e-02
1.224577493460121853e-03
1.017887749817507487e-01
4.821620879826008649e-02
5.549836766880122257e-02
4.316202297853530268e-02
9.553614608481106329e-02
8.844651238098866219e-02
4.958506377716832142e-02
2.969209051836331492e-02
1.748961031880335790e-02
2.628386638855718938e-02
5.012351342213777067e-02
3.024217397689337936e-02
6.445270075873078819e-02
8.992557116060320710e-02
7.708465369543004986e-02
4.522632881186121334e-02
8.834828318629091293e-02
7.661903847209221297e-02
8.173831119950845936e-02
3.532318309360880232e-02
7.061867630704403431e-02
8.045042844226793499e-02
6.298238453502928713e-02
7.547163014059959929e-02
9.163900642370610694e-02
1.148830530671816064e-01
1.068760211727146497e-01
1.583855224553768481e-01
1.177909911486659106e-01
1.176878738506417499e-01
1.750217455993524351e-01
1.647810798526913034e-01
1.640233032494071153e-01
1.333805526851473688e-01
1.415951749585928621e-01
1.529464504772495015e-01
1.747969542957830691e-01
1.266481537044175654e-01
2.008293393929919679e-01
1.075248207815295426e-01
1.517222866046105401e-01
2.170728020843059047e-01
1.535280996946307985e-01
1.706873443201150087e-01
1.459253431705743176e-01
1.934382941909535969e-01
2.174376817410729468e-01
1.646028944198618948e-01
1.430302864947391173e-01
2.178359843209361768e-01
2.183422911309578773e-01
1.740674598945467777e-01
2.073332859519928240e-01
1.173386419574276307e-01
1.632735895811335269e-01
1.727694482215700045e-01
1.892138012450742812e-01
1.752110125526881168e-01
2.504501393410999421e-01
2.210389892023892355e-01
2.766467952671312069e-01
2.819255348816380180e-01
3.230770535156589074e-01
3.751624333774155606e-01
4.052148534096987054e-01
3.895922318853898281e-01
4.926020864156560597e-01
5.633761240261826453e-01
5.530929100977748369e-01
6.520150659522269132e-01
7.291826414997070183e-01
7.779020175106294843e-01
7.775091990825180321e-01
8.465463508356702027e-01
9.512705073698562996e-01
9.592959901619387830e-01
1.013863915917888825e+00
1.030938136959848039e+00
1.056451400867182810e+00
1.069399451342610385e+00
1.056879214178840343e+00
1.082959244854271752e+00
9.906330190910971334e-01
9.971045496036708977e-01
9.269107323265671772e-01
9.249161451651176646e-01
8.621758513788353451e-01
7.830016751551037713e-01
7.669885934610969347e-01
7.145668496121690971e-01
6.459946753296182953e-01
5.343017235247451424e-01
5.654991941548185297e-01
4.608737586162803823e-01
4.518338034772081402e-01
3.294280390948899906e-01
3.188606123815436177e-01
3.354539500191340284e-01
2.575659461867074729e-01
2.356207634706919962e-01
2.342593456782652017e-01
1.957989165109997043e-01
2.413259854745827826e-01
2.018374669716323788e-01
2.105561120480528847e-01
1.564795429304767782e-01
1.770296784527207179e-01
1.967200058913705640e-01
1.832376296747969535e-01
1.470147924735105138e-01
1.877418544467616968e-01
2.056882234630329209e-01
1.982764995212714376e-01
1.598088747812444754e-01
2.011983733116789463e-01
1.914469634019322908e-01
2.162932708185419106e-01
1.370280891586830863e-01
2.489206705803517217e-01
1.580176515702601814e-01
2.338264971922811020e-01
1.823881297382427824e-01
1.973645023638380402e-01
2.678216761245157396e-01
2.933591548536763072e-01
2.236591071102092543e-01
2.476803204613825249e-01
2.659792528679598700e-01
2.707650482472899189e-01
2.915882517552967901e-01
2.304722409108007630e-01
2.590979623506744489e-01
2.582734425289703317e-01
2.213670179618809353e-01
2.694975810764909108e-01
2.678426592634584047e-01
2.985921617241038550e-01
2.694699160196626364e-01
3.136545659459096247e-01
2.884920058527132292e-01
3.037925462976739377e-01
3.177533161380063920e-01
2.108315702093135069e-01
3.054617446709476658e-01
3.084083332760633733e-01
3.272690882079376529e-01
2.072499839158167267e-01
3.106724159754642445e-01
2.370876849024758370e-01
2.933178040054241209e-01
3.171406449434736041e-01
2.306955366119715634e-01
2.720168715567684581e-01
2.893020718726685425e-01
3.253213422184194625e-01
2.452244436222918711e-01
2.434214643541910417e-01
2.466906141973498889e-01
2.501159000089950846e-01
2.069339608667266073e-01
2.933237835167045726e-01
2.648840741975706514e-01
1.836306078815950482e-01
1.957251418270531118e-01
2.383694621163424399e-01
2.059683617418252288e-01
1.825570780818880079e-01
1.981893543672784141e-01
1.956131115118524555e-01
2.026593737283814423e-01
2.055425693418422017e-01
2.296244339222203168e-01
1.709923821121164811e-01
2.242546901142564719e-01
1.452012729797159951e-01
1.616217129452965362e-01
1.199527980055004883e-01
1.924135328087419050e-01
2.014308178528741999e-01
1.251605138041193832e-01
1.364960384222658196e-01
1.807940696687202753e-01
1.397425308958045731e-01
1.527029830302120694e-01
1.528789604481678166e-01
1.461495085832221486e-01
1.014038750813968937e-01
1.109039497308044742e-01
1.386904829703643482e-01
6.996624528374406626e-02
1.051772090291026862e-01
1.372998721755077645e-01
1.432437766494079057e-01
6.671936216445883971e-02
1.308127149514005660e-01
1.395386542163761789e-01
8.056712989618365628e-02
1.179467017953072794e-01
9.853861743201690337e-02
1.041244807934166433e-01
1.342931802051617329e-01
5.475838568099586356e-02
6.849129692979538664e-02
7.142452559430784165e-02
7.208727126092170923e-02
4.004303276022568026e-02
6.232912054045918610e-02
9.254390229883344143e-02
1.011389919933407266e-01
4.879917725385155003e-02
6.615853922635039908e-02
1.030738603854156193e-01
3.668233022913822139e-02
6.846447939882806255e-02
5.324962271598147889e-02
3.021007023875868502e-02
8.298513055037420871e-02
2.922902186111931908e-02
6.442799278288127707e-02
5.818819690011443890e-02
2.695229110706001338e-02
6.451274168470877424e-02
7.836566578696407825e-02
5.022789813333089493e-02
9.379494298638539618e-02
1.226653425388546381e-01
5.775989810069708658e-02
7.965103404376427942e-02
8.414454892780734441e-02
5.279045640688528884e-02
8.675450940271968447e-02
1.049458363236942526e-01
7.805917832726858019e-02
9.957244000776137305e-02
8.650256240644896288e-02
1.531601985929316456e-01
1.051999559175823273e-01
9.818765166023420143e-02
7.556507936324342867e-02
8.144674921094606501e-02
1.218945340803483379e-01
1.137612509625405555e-01
9.036057194012632465e-02
1.129158895236090365e-01
1.320669604050150880e-01
1.249098851798162158e-01
1.395895142285414892e-01
1.719852768655038278e-01
1.929298295348248482e-01
1.734852527017560486e-01
1.310391481314579221e-01
1.358804434191279720e-01
1.632800973924388166e-01
1.573465463734027292e-01
1.714666854514640681e-01
1.758238186455881591e-01
2.017107417845269979e-01
1.698381685102775540e-01
1.975650020746057278e-01
2.439796468639904570e-01
1.706064967507864016e-01
2.215865947181656637e-01
2.059838090055734761e-01
2.302034547716207968e-01
2.027309407840292288e-01
2.161865933529777406e-01
2.237526259244374538e-01
1.505322617355716319e-01
1.650941975441635734e-01
2.228546563978556494e-01
1.539376565821305443e-01
2.012358363761665991e-01
2.271925004550644500e-01
1.918666436716113255e-01
1.897564471374129647e-01
2.127628446531008577e-01
2.280358633003684021e-01
1.734947113994617929e-01
2.374078562429034478e-01
1.723571816231647125e-01
2.585772821716717518e-01
2.638916915516290040e-01
2.411547213451116223e-01
3.041042561470155281e-01
2.723599993743565650e-01
3.163169150485622416e-01
3.107906984258053673e-01
3.813594792814127277e-01
4.500548670659944017e-01
4.865912911453026957e-01
5.355547461753137339e-01
5.858842807151425358e-01
6.246884185382346466e-01
7.055988968845660070e-01
7.534837422879856472e-01
7.946245634466339025e-01
9.136854505649221192e-01
8.684317886441464962e-01
9.502791523210423197e-01
9.927719422970520124e-01
1.030877136741733313e+00
1.047276490833576323e+00
1.129888905911949237e+00
1.122435780548460604e+00
1.095270140227211142e+00
1.050002071212489119e+00
1.006350617636679656e+00
1.053323210937856746e+00
9.933734077252140970e-01
9.179549649400543521e-01
8.602186638101362304e-01
8.491202561216235623e-01
8.157535289423115676e-01
7.559976111963139234e-01
6.957080078888124852e-01
6.379618546921145272e-01
5.444372971555281326e-01
4.800408277868794538e-01
4.130927414882820670e-01
4.523959702848553421e-01
3.898064325260373053e-01
3.229499449160981306e-01
3.137960072162533365e-01
2.710571218758183742e-01
2.623637919154169773e-01
2.677514058886472093e-01
2.715417949850748580e-01
2.197236550592605031e-01
1.936790982612074385e-01
1.744307721248273269e-01
2.024474433174575927e-01
1.386022009340507899e-01
1.675281923101002990e-01
1.892734397851229267e-01
1.819887458050971074e-01
2.448495103834519016e-01
1.815167667421902220e-01
2.475354073763376406e-01
2.159045778845956609e-01
2.206652916693992994e-01
2.139562498829819803e-01
2.283033774325430865e-01
2.527640837919511441e-01
2.495114816460637930e-01
2.201260456238099406e-01
2.723746455934036304e-01
2.135415597208016047e-01
2.909805541605064994e-01
2.550651396288046158e-01
2.692900725971532072e-01
2.870904869964089334e-01
2.664207305242785040e-01
3.404941311618544519e-01
2.205416944131698975e-01
3.295958457913059081e-01
2.964203964498783872e-01
2.887236772115568950e-01
3.143526887581197249e-01
2.301408098775841737e-01
2.979606612731472426e-01
2.701214637646892625e-01
2.537623443450284233e-01
3.070459844140832062e-01
3.004641835880317857e-01
3.222213837641472178e-01
3.319114943755726577e-01
3.008775646969306106e-01
2.620918886015767280e-01
2.781396784220641072e-01
2.700837968261425304e-01
2.894503424031038552e-01
2.608605062919271411e-01
3.094513474752861870e-01
3.090270740094373525e-01
3.289943276517179327e-01
2.506264258551042512e-01
2.483408195506321414e-01
2.901171711271270937e-01
2.262635714346757920e-01
3.269246698244512306e-01
2.607151031011642472e-01
2.569563501663936211e-01
2.740183861024041989e-01
2.370754250316037259e-01
2.553296946249577482e-01
2.472384009960764406e-01
2.111047418751483273e-01
2.240891460487320908e-01
2.133750972658988165e-01
2.338101655592761674e-01
2.443912083216190911e-01
1.926361243124514733e-01
2.584034172765983239e-01
2.377840400857396952e-01
1.843765796885356856e-01
1.779555333751057233e-01
1.438691672770038288e-01
1.746949202298860859e-01
1.809413849532320318e-01
1.890484850008881945e-01
1.737187821854321024e-01
1.795651945515971959e-01
1.659937164500259466e-01
1.151689984409583201e-01
1.481151143613272381e-01
7.358925618087722165e-02
1.723498841655291824e-01
1.663990371034073934e-01
1.560272946851065379e-01
1.451145795854753562e-01
1.580908923398619825e-01
1.273241496350186741e-01
7.421575964729049124e-02
1.140337852650102762e-01
1.083753495296889968e-01
1.203574753847101442e-01
1.326470915815958773e-01
8.668673634692186658e-02
1.279738157480012073e-01
8.358424692315917504e-02
1.329902051023539866e-01
9.852939719068429247e-02
1.073469688305579151e-01
9.400871219521922395e-02
6.536056400964684876e-02
8.636645106224122292e-02
4.186338768545696393e-02
9.927021843519379107e-02
9.011363720658968623e-02
5.865801618006545592e-02
1.008690277962881326e-01
1.856393078329812360e-02
3.083954494432031984e-02
1.141337527566401583e-01
2.501840659136468983e-02
1.089368215579623184e-01
4.239763204130962693e-02
7.184958499685811795e-02
9.459685309502927075e-02
1.300989783604312722e-01
2.776994937332982402e-02
7.657465069753197073e-02
8.891420471930554237e-02
1.040051150554188175e-01
5.568784086027248059e-02
9.922674319473930027e-02
6.864439529350292724e-02
-3.023007949989796328e-03
7.866558378528465401e-02
1.143913156744714166e-01
4.793445270967543193e-02
5.900302949517365753e-02
7.501548953393899488e-02
6.972982387125976900e-02
5.179660910898943593e-02
8.945972849350124212e-02
8.993214752802478062e-02
9.426709400503943681e-02
7.491285240193011619e-02
4.706049477144172433e-02
6.424148084354204535e-02
1.213051694352442200e-01
5.044658236114478445e-02
9.935693235242695764e-02
1.341230736106323596e-01
9.460935936697542625e-02
1.243256939540659245e-01
1.079701847398162745e-01
7.106949064926210147e-02
1.499914434187582246e-01
7.606477318260246312e-02
1.084788860165400576e-01
1.069159180651693963e-01
1.246601607950281743e-01
1.558696130876261465e-01
1.384012923512373261e-01
1.245773195367207986e-01
1.238949903763381655e-01
1.469038761028796936e-01
1.784450212466921482e-01
1.556637294728488996e-01
1.721532492972933648e-01
1.968720588035974550e-01
1.878163469348252401e-01
1.552605249492471085e-01
2.130370794925222633e-01
1.435730376337309988e-01
1.913279973949470469e-01
2.039399776011910359e-01
1.926129217040762343e-01
1.971563999382499599e-01
2.010841963222543272e-01
2.550621783917315089e-01
1.537286325413241006e-01
2.459995767588103455e-01
2.142190719487324091e-01
1.490641564447920120e-01
2.179999476566541194e-01
2.014329423859780310e-01
1.774914366995213044e-01
1.836553196711241676e-01
2.173080501630258454e-01
2.175363412113245354e-01
1.502798399831383191e-01
2.053772356647776409e-01
2.521669487469097026e-01
2.249000174835737165e-01
2.717188530643737110e-01
2.792017506998055176e-01
3.352625924203082031e-01
3.157540199941886172e-01
4.183315023377592312e-01
4.145127560516470577e-01
4.451455891559371048e-01
5.623867592334435006e-01
5.911215290696010261e-01
5.547504458654032300e-01
6.565881259234954692e-01
7.538679563579435694e-01
7.654662309951055787e-01
8.420732158631686337e-01
8.741767906504231966e-01
9.855237785459781685e-01
9.406426488316819157e-01
1.005507028728059638e+00
1.080211442413498535e+00
1.045268838200618111e+00
1.086579665250951399e+00
1.062943307493716460e+00
9.905079252700168535e-01
1.060399349958219384e+00
9.632562389999170804e-01
9.781016783439111517e-01
8.788937556993173805e-01
8.701951926354046796e-01
8.434378343859301186e-01
7.435073144350188290e-01
6.729862830641668570e-01
6.956994999784753553e-01
5.597362999279535956e-01
5.333364913758575909e-01
4.893262639440607575e-01
4.294674605141051149e-01
3.895512483880625987e-01
3.328470823136832624e-01
3.192125971641781024e-01
2.653946699935267328e-01
2.442952532791234921e-01
2.102225326182388387e-01
1.890514935148026321e-01
2.011847381213807684e-01
2.124059206535684197e-01
1.990383539897913057e-01
1.749839332384270085e-01
1.742923102516416578e-01
1.726235436602437945e-01
1.562308564596393556e-01
1.759041023374208756e-01
1.605320558860513502e-01
1.325695859442125868e-01
1.680111551191178776e-01
1.826629633928998631e-01
1.909432727433725829e-01
1.931947681779928316e-01
2.077016107756237684e-01
1.940238005693268875e-01
2.413638020584875088e-01
2.344350925378693162e-01
2.236545171063546167e-01
1.959952233520738107e-01
2.239372830860955621e-01
2.230745854502895476e-01
2.456247412084982817e-01
2.213363350166447086e-01
2.727737238960027399e-01
2.357379523777538011e-01
2.428041741508223383e-01
2.220761351986041965e-01
2.560686430381118317e-01
2.318378131483342930e-01
3.115726433399237938e-01
2.576068014020888031e-01
2.676583881369985485e-01
3.126580457731681917e-01
2.691945113240448717e-01
3.108083397667653069e-01
2.482944029028247290e-01
2.569302656502965854e-01
2.772760365524392090e-01
2.584101338944982951e-01
2.425972268030019419e-01
2.693253932935942840e-01
2.835301631399538280e-01
2.357662794390712191e-01
2.686538628960719599e-01
2.640143707380622762e-01
2.910411992148638771e-01
2.804650153306500471e-01
2.029303886685620284e-01
3.038141707441271988e-01
2.081141546524132857e-01
2.388805629152836729e-01
2.122224390536689154e-01
2.241893789598588538e-01
2.192935853001058977e-01
2.719860529563499218e-01
2.108801389775593615e-01
2.117611400033145852e-01
1.850693620355251812e-01
2.288049576127791085e-01
2.125780199058895370e-01
1.903710626598038025e-01
1.725769761065893138e-01
1.685344856284305970e-01
1.333541438629416986e-01
1.989871746123613450e-01
1.551960645856386711e-01
1.584233389645975931e-01
1.642815846389805989e-01
1.761731425786988714e-01
1.717844141354430421e-01
1.762033689575061568e-01
1.533065026387204766e-01
2.035436268644556235e-01
1.288313566453824222e-01
1.462685466815195900e-01
1.249952340289397779e-01
1.412992904455101228e-01
8.985204286157826015e-02
9.132444682945677072e-02
8.134639734965121161e-02
8.700735793070007995e-02
9.793559674531131243e-02
5.798401083283032803e-02
9.336178513042756033e-02
3.615468694922455845e-02
1.269231846926445195e-01
7.950215193278044323e-02
5.486013569888368441e-02
1.022751543836366850e-01
6.869831624264650938e-02
1.682609489354259039e-02
2.934697202750961506e-02
3.955908263699891431e-02
8.158869797146724168e-02
8.889533224311776949e-02
-1.044470520866367866e-03
1.850145883273724215e-02
1.157373729131335044e-01
6.255195148889958201e-02
1.519599414142297489e-02
1.797072368970067252e-02
6.202530853231344454e-02
4.454755870812904944e-02
4.025429011982106092e-02
5.511742519262495532e-02
3.506256128171608699e-02
2.403856102802815614e-02
-3.714269437610372843e-02
-1.094221679344832901e-02
1.737412638883527316e-02
2.991216261416798639e-02
3.469754213573644774e-02
4.574399553435126546e-03
2.678130550092552853e-02
5.306201261489042198e-02
2.682933191691862576e-02
1.806519243646015696e-02
1.917366538177171786e-02
-1.929035717600320610e-02
-1.805120605792263910e-02
-2.953453098982581487e-02
-1.163758677426469240e-02
3.319078601771265069e-02
2.099898165193807981e-02
3.322072097283580716e-02
4.350999974058358810e-02
3.167164953511258929e-02
1.942713775373831886e-02
-2.599641169380826483e-02
6.341418831825265667e-02
5.435493102152046119e-02
1.361136991035745425e-02
4.431832139482851790e-02
5.070104651701288351e-02
4.293959558651298108e-02
2.987869446574641791e-02
2.464911437929825228e-02
1.075731679186741341e-01
6.173841548427737996e-02
1.173935040993081963e-01
5.306638335204101609e-02
3.819499137489813789e-02
4.763435729524062578e-02
6.828972415852530009e-02
7.778344343333565281e-02
1.346208287336622400e-01
1.170728738999929769e-01
4.789504938565368464e-02
9.550152054661426027e-02
1.170687864847040904e-01
1.240045590743387438e-01
5.206671656988324376e-02
1.429809983432165643e-01
1.393151504155947240e-01
1.288340775045860309e-01
1.282024981512648043e-01
1.550535546583814428e-01
1.250877164448152001e-01
6.565051342907263221e-02
1.211299926275741790e-01
1.386670095308066841e-01
1.419109813138464404e-01
1.516487164134198706e-01
1.291153659890110772e-01
1.322897444107441756e-01
7.754302884717916011e-02
1.273294210809026994e-01
8.935140811048840337e-02
1.532172443237259651e-01
1.177193407298485900e-01
1.650836111790972005e-01
1.381662826393134091e-01
8.132077227800427188e-02
1.787279824609890877e-01
1.689053184803304686e-01
8.066249451247800573e-02
1.527464160736490828e-01
1.798815763251577216e-01
2.265883962747371194e-01
2.236280297654132110e-01
2.658612099232306458e-01
2.550611846965953888e-01
2.250931713561765413e-01
2.852677084074196068e-01
2.942315580874271252e-01
3.537374303851656965e-01
4.195725621855462273e-01
4.644551560559123105e-01
5.305215905127035336e-01
5.493131414697446369e-01
6.659126379526408845e-01
6.767486992432248938e-01
7.438176399984278708e-01
8.092776127426639654e-01
8.555082434633894950e-01
9.112608373757483671e-01
9.286046908566805147e-01
9.703759187368420358e-01
1.022205164883812190e+00
9.581963402386873829e-01
1.018196980733754531e+00
1.045147180186037028e+00
1.037187767058449284e+00
8.996833468111339327e-01
9.107916207140388520e-01
9.212368849229176648e-01
8.639409262875886730e-01
8.007465669841935529e-01
8.117672643737373628e-01
6.722846170394263243e-01
6.036952249653155800e-01
5.705649674608453958e-01
5.484090282000044780e-01
4.423526377604385385e-01
3.675693479888856308e-01
3.538367603505029324e-01
2.945137157897522173e-01
2.894829084010944742e-01
2.759258226578730766e-01
2.294633011050955518e-01
2.435799672174668307e-01
1.898508021885281782e-01
1.529869215616913580e-01
1.164423481385542386e-01
1.296121702411254240e-01
1.146497040891783920e-01
1.362992068503085796e-01
1.179126689528993410e-01
4.929115626918743887e-02
1.219696603157879033e-01
1.673318084754431001e-01
1.064259853914524961e-01
1.451135497201534452e-01
1.221812436595167417e-01
1.160980215703333596e-01
1.318752220695434685e-01
1.856805899979569741e-01
1.691982439815187256e-01
2.419750967197326352e-01
1.216351584377401984e-01
2.027305766640730145e-01
1.242905651375610654e-01
1.950071276007779020e-01
1.301630643617898708e-01
1.349299903958955382e-01
1.156281903649764853e-01
1.760280094143825413e-01
1.857909605695379773e-01
1.980931212001050545e-01
1.910408529337793149e-01
1.937333378760418001e-01
1.801754288358777545e-01
2.056096491297635387e-01
2.208167898635393922e-01
1.984625047537124931e-01
2.291619804390751802e-01
2.487308041516464729e-01
2.508806059766999774e-01
2.466120036439580776e-01
1.922809622924646911e-01
2.276539556788008956e-01
2.361620294916514096e-01
1.803056901706811821e-01
2.160262072685174561e-01
2.375665288668195041e-01
2.286175425806656891e-01
2.726149320423472688e-01
2.064184356720561442e-01
1.872513771705269781e-01
1.856061385965314670e-01
2.392134723202165303e-01
2.218767084748238805e-01
1.929893088228410158e-01
2.541263946364963888e-01
2.232797087719474716e-01
2.158330216000276525e-01
1.492983750135958854e-01
1.814519068894616116e-01
1.681984285048575833e-01
1.536157094614069296e-01
2.650144076655838177e-01
1.844846925851285624e-01
1.784010002170609566e-01
1.707899365770700340e-01
1.236777767835054165e-01
1.718548996397224748e-01
1.828151186518807980e-01
1.171113700161012516e-01
1.301802467438890332e-01
1.101887782401731880e-01
1.159375217468782693e-01
1.431900690076081117e-01
1.466538319397615031e-01
1.123679338071938427e-01
8.400634060412547066e-02
1.418984216595167158e-01
8.724759166550220824e-02
1.183286712029603949e-01
9.467540037063079672e-02
7.415958805973668633e-02
7.160107773158244648e-02
6.114936540842940554e-02
5.466512917966607349e-02
1.885257108161975809e-02
7.081411682166802168e-02
2.952999115887725012e-02
1.021858518320965248e-01
3.355770960206618664e-02
4.283440727124131903e-02
3.709675510031473777e-02
6.547911668164527188e-03
9.162528950718604182e-03
9.304273509527721808e-02
7.487570329002063430e-02
-9.239734261924932579e-03
-1.163055950735781413e-02
1.701944048730401338e-02
-2.958852716535491367e-02
-2.044706108881836487e-02
5.094898803869431225e-02
-1.283873087421009973e-02
2.621066416544704653e-02
4.526699996810764487e-02
6.787555501343668640e-03
-2.556347774973702358e-02
1.703043961176237131e-02
-6.575841301131638006e-02
-4.860822111302413873e-02
-1.780574140557692614e-02
-5.856118194664987342e-02
-3.188918517457256518e-02
-3.640424087733473008e-02
-5.851924872605920869e-02
-4.141902516876100337e-04
-3.646127286190906092e-02
-1.855057328306322639e-02
-5.208918790691702272e-02
-4.762048706716967561e-03
-1.002050119542740453e-02
-4.578362478781784761e-02
-1.422387866958233632e-02
-7.522663370599487476e-03
-4.332902855746470494e-02
-5.675935120243225107e-02
-2.673531828192804438e-02
-3.591968069622786947e-02
-4.301025944528999445e-02
-3.560441611699692588e-02
-4.231227213363694672e-02
-9.960813195536571962e-04
-8.296449671738753695e-02
-1.131265058032758508e-03
-1.130905350345538102e-02
9.011512271828087117e-03
4.768782407991514760e-04
1.202402065156121108e-02
1.816714868837879249e-02
-2.270312528612474998e-02
4.256432337817160627e-03
3.476225661924402938e-02
4.412506688724318615e-02
6.589590295486974503e-03
-6.455558511359892060e-03
-2.974919400254407570e-02
2.050301716405122932e-02
-9.634572735650936970e-03
-1.796976718580020616e-02
-3.226020666517080693e-03
6.968386492886174954e-02
5.769953181381969054e-02
8.742178355069810114e-02
7.420941142387763034e-02
5.731776154904213993e-02
3.261028313109701204e-02
8.368869822066260511e-02
1.013469296759873794e-01
9.878471669038660363e-02
1.079502475395475447e-01
8.114975032296951885e-02
6.701833341984841930e-02
1.065127138711485788e-01
6.392946911319832837e-02
1.116880495556901443e-01
1.005148657454304900e-01
3.683551711974722420e-02
8.095499948149438574e-02
1.574493111680439206e-01
1.202920337453784738e-01
8.552595445591290590e-02
1.030342656247892064e-01
1.569393021521339748e-01
1.212738368940749489e-01
1.271599340973901815e-01
1.097698428499769285e-01
8.414341985025269866e-02
1.698489456383998619e-01
9.030064303779140877e-02
1.256670555400060674e-01
8.277458393507307333e-02
1.364976198819924103e-01
8.956903883748533468e-02
1.243250188563497505e-01
1.555481209431218703e-01
1.788550940716842619e-01
1.646375720074220173e-01
1.795392840432254999e-01
2.676383624847928910e-01
2.891896802567803237e-01
3.535958576671319187e-01
3.857138705474809637e-01
3.518984033060043037e-01
4.355596852160837917e-01
4.516628862100834363e-01
5.150720171056913932e-01
5.393041672343500403e-01
6.965825538430999719e-01
7.510213463850261562e-01
7.903509917648247063e-01
8.562394906552797114e-01
8.239561134059033565e-01
9.741258832522756705e-01
9.481071817622974685e-01
9.252761552782979848e-01
9.351845413950092833e-01
1.005032615333740997e+00
9.498765157635626899e-01
9.205107453013962049e-01
9.180784957893344256e-01
8.911147568674440134e-01
8.806765702406580409e-01
8.408677347040408590e-01
7.818861708890341156e-01
7.581512702674363391e-01
6.452324824625239597e-01
5.918815386603352158e-01
5.447421913244333558e-01
5.009753002002075295e-01
4.820142602184148695e-01
4.061940272712752376e-01
3.021405403623823038e-01
2.469032863794278221e-01
3.206330838271533867e-01
2.236834219447388916e-01
2.357533401617275259e-01
1.617539110063041519e-01
8.737944740095532348e-02
1.352358960420626532e-01
1.426944006522156694e-01
1.335671068924100813e-01
6.106778835615620654e-02
6.680472596721587220e-02
1.219468902262590693e-01
1.207002781413921144e-01
6.775787900005650344e-02
1.047095173936507251e-01
5.362463139460835193e-02
1.115490285736875364e-01
8.157340667115581256e-02
1.436820197911218011e-01
1.201564049281961116e-01
1.005092082665648978e-01
