1.094006478346619238e+00
1.016642851615658039e+00
1.073068018215702413e+00
1.013320124429348823e+00
9.642538710536798785e-01
9.409601603013905136e-01
9.020739736466967251e-01
8.736163904215735743e-01
7.827235330381981937e-01
7.126750045037457681e-01
6.387627827859891916e-01
5.419616746365617521e-01
5.535572167062331461e-01
4.096072256867952510e-01
4.505735335109236628e-01
3.608437877476185496e-01
2.773962736106960758e-01
2.599013797685783000e-01
2.287325170529627694e-01
1.779322201134072856e-01
2.013824798137864858e-01
1.881593032072255145e-01
1.595262811110211565e-01
1.472115047676250399e-01
8.989198229167078003e-02
9.825047504016573563e-02
1.188702355799850230e-01
1.469710192851140240e-01
8.562911675265885703e-02
1.712526345804588068e-02
1.284039387202466909e-01
1.449609208974418917e-01
4.059082204480516515e-02
1.192121197541341077e-01
1.321954645167182640e-01
9.304742290149838058e-02
9.606552271610757643e-02
1.207065709593942993e-01
1.410342235245032050e-01
1.206240547383789774e-01
1.441856097751115506e-01
1.393580703656695230e-01
1.505597058548103218e-01
1.406140189839915899e-01
1.605763814475888451e-01
1.473312439706660482e-01
1.908079902262388161e-01
2.049445837917241720e-01
1.493878017829249893e-01
2.309488846546136620e-01
1.945050534914568030e-01
2.073106907445280145e-01
1.986357924209746495e-01
2.238012412871738799e-01
1.947271946270729970e-01
1.782288954971867900e-01
2.346979269256356249e-01
2.278130661564949644e-01
1.843694872223355374e-01
1.852258246709891643e-01
2.115626617673713461e-01
2.412325999099959040e-01
2.744903273142302313e-01
2.024815398233583696e-01
1.863472335708449001e-01
2.119065436339125641e-01
2.197843468507494347e-01
1.986651790086606251e-01
2.228681888040766057e-01
2.587736348648642659e-01
1.521833979433766249e-01
2.245811583616225959e-01
1.921678049710969782e-01
1.588211958975034310e-01
1.530093182249931960e-01
1.889634135340676757e-01
1.700730720834620902e-01
2.028602963968921813e-01
2.390210656522722965e-01
1.920030272789634007e-01
2.227504061382365730e-01
1.431611907129793360e-01
1.352195198438481405e-01
1.422412101503026660e-01
1.579160087359540443e-01
1.158017457598213562e-01
1.543553810555076122e-01
1.405254063488252658e-01
1.210739540376511020e-01
1.364258661611047474e-01
1.284604578627390192e-01
1.451403652079547024e-01
3.914986068713768863e-02
6.614261826030205793e-02
1.305911462338493756e-01
1.020876209515161892e-01
9.593850193669026249e-02
8.810033426636738885e-02
7.215625746728254741e-02
2.439320860610338926e-02
6.827392132559051419e-02
7.722806701886589242e-02
5.308082540899385082e-02
5.938162851890510519e-02
3.857516643700806963e-02
1.206636864527252939e-01
4.632793582195265242e-02
3.432481892857126154e-02
3.677176265986993597e-02
7.485702237676522541e-02
8.026922556245180695e-02
-1.222473291699176928e-02
5.003697305880318996e-02
6.169389587271553038e-02
3.652259695762131303e-02
1.123632102960644974e-02
1.485131435068373640e-02
2.226727225053858061e-02
-5.888396160913200034e-03
2.366303069711542251e-03
4.196211056927526273e-02
7.431754339369370244e-02
1.280481917424177579e-02
2.423600194713153300e-02
2.873971375659681998e-02
-4.059837338413258001e-02
3.033843698205190842e-02
1.210357747641484585e-02
-4.002619081853522887e-02
9.876447060561829860e-03
-5.165408064371808383e-02
-1.174316563780003486e-03
2.668503631730059431e-02
1.438129984972656011e-02
-3.039387164474894459e-02
7.590755595974250231e-03
1.566536385888223776e-02
-3.733056928889127990e-02
1.188492258022563058e-02
1.172761337009715216e-02
-5.911579112000011488e-02
-1.824151297788766113e-02
-1.107411829603817052e-02
-2.461649724455575172e-02
-1.921633696196966765e-02
-4.127719332746405262e-03
1.461195799336684545e-02
4.476379030357711952e-02
4.659912326216471279e-02
6.734031584104137325e-02
2.120480026742199708e-03
1.173492112147149491e-01
6.089547070391192196e-02
2.652596708331567826e-02
-1.506321301180682526e-03
5.414816548603065827e-02
1.308303075536509930e-02
5.792492254175325705e-02
1.018398624932668473e-01
5.964921244172464304e-02
6.484093240114535694e-02
6.576056622459644507e-02
7.671489276022186443e-02
1.085341239061883289e-01
6.464571771986367399e-02
4.232891321213656799e-02
1.110346559069987221e-01
5.199710647329122692e-02
1.017720592811031388e-01
8.917723927466000844e-02
5.804796675874813322e-02
1.128184061863921062e-01
1.196913783260246666e-01
1.275273980412953700e-01
1.067572433055753722e-01
1.100410595681810266e-01
1.566024785914728323e-01
1.278538428072415190e-01
1.375976455248214547e-01
8.906206479634015682e-02
1.453230524097195719e-01
1.039198664791318727e-01
1.185074923802754837e-01
1.384521653559960541e-01
1.882383517169342602e-01
1.177810094434722510e-01
1.101103421409790478e-01
2.239342416258493229e-01
1.526368807539135453e-01
1.353090174696398862e-01
1.435790707401516375e-01
1.385781969098882627e-01
1.615327468632900276e-01
2.057265120226119681e-01
1.476629214923577404e-01
1.207889397136303888e-01
1.997852124788075667e-01
1.764691731931567198e-01
1.800331257163713394e-01
1.015867121245149912e-01
2.577990319584652634e-01
2.542414409733023684e-01
3.017631731132724981e-01
3.650245636343556477e-01
3.991352502147964554e-01
4.205835971315105559e-01
4.690461546105859636e-01
5.147731380831126469e-01
6.245315964964921474e-01
6.449153183615277118e-01
6.851272710333095040e-01
7.876972589534839697e-01
7.933137298521625302e-01
8.654606474765041968e-01
9.528774096044259068e-01
1.008147011725835096e+00
1.059339027078464834e+00
1.058449153293139489e+00
1.071189162777367976e+00
1.102383392769643811e+00
1.148240727226005120e+00
1.119379099316329951e+00
1.128048550604005440e+00
1.043532852263037158e+00
1.016394415657871697e+00
1.026673247041427928e+00
9.154665038462651561e-01
8.866443375312860198e-01
7.916682170804114627e-01
7.484106366057731163e-01
7.482564989508715403e-01
6.024285648311400454e-01
5.888577033059902988e-01
4.946232538573287485e-01
5.140662086820025900e-01
4.528479759189973919e-01
3.815677262569092676e-01
3.571665935021286487e-01
2.260774395318105312e-01
2.708981247124165881e-01
2.220549201473180911e-01
1.774596387598195435e-01
1.564330023656130553e-01
1.640540154147250573e-01
2.118059098430112586e-01
1.258714039687859054e-01
1.596032063711527726e-01
9.607245820289464500e-02
2.177442075521187903e-01
1.771155755958433720e-01
1.238289297896796176e-01
1.386710539707001477e-01
2.149051756680873670e-01
2.056744271005573610e-01
1.228967331480674274e-01
2.126006449666909270e-01
1.763367807499282014e-01
1.932890880715379678e-01
1.956365941752452320e-01
1.390527248141165684e-01
1.950758583312637573e-01
1.910215614974485054e-01
1.872281145129868485e-01
2.201495584985599940e-01
2.339822279977446517e-01
2.114582001660031962e-01
1.821528616237910458e-01
2.215816833502188554e-01
2.763728952474132083e-01
1.974027838408948521e-01
1.731833351206738258e-01
3.034223236349332109e-01
2.596859716269227514e-01
2.169739950401872175e-01
2.255599814593715891e-01
2.111616494965889990e-01
3.142520699050468935e-01
3.020436352623974696e-01
2.337289757875738172e-01
2.402193373135771692e-01
2.895815454834104186e-01
2.706335566366636636e-01
2.344606986720312036e-01
2.568276853153162453e-01
2.554589584919459422e-01
1.973847815208759071e-01
2.377024040222647794e-01
2.410590253819238915e-01
2.476979729659055940e-01
2.181020463839617174e-01
2.878272565274043182e-01
2.749976408591948696e-01
2.283615604381838138e-01
2.890802377541422108e-01
2.470562436960082320e-01
2.539266251123910578e-01
2.586029415738620996e-01
2.473224310798338710e-01
2.440866209079381177e-01
2.307684237892516088e-01
2.100605489797086611e-01
1.955675190564362120e-01
1.833659101116751899e-01
1.612410798869521045e-01
2.445734804561021380e-01
2.167458818128854547e-01
2.269886505440426583e-01
2.300420080664986877e-01
2.118807403292976288e-01
1.392952552635300933e-01
1.427057337523024994e-01
1.847133917544854231e-01
1.819385174467287869e-01
1.592096176191322709e-01
1.457097643138730581e-01
1.767790345993274503e-01
1.881777812517743953e-01
1.156252923861079140e-01
1.376422740962584823e-01
1.388005181533627785e-01
1.250417579687287117e-01
1.244418669565957453e-01
1.534435139727765296e-01
1.260256432482629863e-01
1.004473103964574204e-01
1.305755135921267684e-01
1.021271927634473942e-01
1.169115635188418961e-01
9.344951183735208944e-02
5.736523261597757661e-02
8.035628177256332050e-02
7.120565050601992962e-02
9.352766317932370566e-02
7.428993793340876728e-02
1.892416259564713710e-02
7.773902877140421996e-02
1.097080022109207104e-01
4.637907096274450358e-02
8.023434646873628395e-02
7.626553570166347273e-02
7.965173827136470819e-02
1.021052623763328143e-01
9.590896190851112835e-02
8.612906504058401302e-02
3.852365530877588373e-02
7.593322954440175077e-02
1.273421575623236157e-02
4.497166621489703114e-02
4.630004600340242860e-03
6.569821512471717834e-03
6.608099184245445901e-02
2.156478762661872065e-02
1.872823540966140135e-02
7.211115168546769483e-02
6.729898147997154245e-03
2.638233381008865674e-02
1.121839023172980024e-02
1.664496717308929993e-02
1.240416663238022577e-02
6.242765355968717123e-02
3.669819365606923067e-02
1.993702154410306043e-02
4.983083674203762220e-02
3.708422383574547926e-02
3.094386013066066643e-03
2.675093225124595964e-02
7.005708803286320174e-02
6.991147531794265901e-02
7.637428965557122029e-02
9.426158391732986086e-02
1.132851040790368718e-01
3.449510688593371982e-02
4.695897505158363322e-02
5.624405153037939642e-02
7.966243103970202522e-02
1.128559069346131566e-01
6.893241512735438781e-02
1.055217205240735340e-01
1.187781690930853201e-01
8.271784158136266663e-02
1.111222869979638789e-01
1.311250206965865472e-01
9.963798367752811636e-02
1.835897982044435162e-01
1.324528244575217673e-01
1.398707520147454419e-01
1.433459346381219801e-01
1.468806952125413789e-01
1.578093644242346827e-01
1.685580351647593955e-01
1.551775943873444641e-01
1.180650621892591762e-01
2.099318972047077292e-01
1.487501962695339519e-01
1.928234630266753014e-01
1.241535117809413336e-01
2.137580974367338515e-01
2.245185958518041147e-01
1.678193043753095637e-01
2.218628215735935494e-01
1.650187748023822232e-01
2.097406588089570367e-01
2.293699250440903725e-01
1.415245821669333659e-01
2.101569639902139131e-01
1.978121285321202960e-01
1.601469510547028630e-01
2.125361783544861549e-01
1.801238257683995259e-01
1.502572977276572519e-01
2.739711298816834284e-01
2.352679065597613195e-01
1.605739506148038953e-01
1.883436432664134796e-01
2.162616820473672041e-01
1.822096888854302932e-01
2.229601243306252867e-01
2.157315444383039738e-01
2.505028691205741787e-01
2.837050901231206734e-01
2.882892903760657655e-01
3.199012575305738570e-01
3.436985363756454026e-01
3.593128236578484458e-01
3.936349386878746914e-01
4.542270294823208543e-01
5.072027412884816400e-01
5.805301289409393606e-01
6.447489574127986955e-01
7.191143838957377854e-01
7.918590607087317990e-01
8.029676150268727497e-01
8.546046342503772486e-01
9.191679714612028818e-01
1.007734913080016836e+00
1.061209254680034908e+00
1.075398542080544750e+00
1.126360436834934031e+00
1.122398405601740423e+00
1.206343730554449545e+00
1.175567852038991612e+00
1.182350060450875873e+00
1.108819517967802648e+00
1.161113622899992981e+00
1.059260010781543748e+00
1.081206426166176460e+00
9.806134306843258264e-01
9.272351113433654479e-01
8.345811061862014046e-01
8.007930675828527356e-01
7.414530911019764359e-01
6.568269996604312322e-01
6.404810528727220564e-01
5.757663893183935233e-01
4.883183515470719271e-01
4.493802683325980873e-01
4.252040750491717369e-01
3.634759086381851301e-01
3.362733230305965937e-01
2.624435820420740195e-01
2.868165025034078441e-01
2.333427024284628337e-01
2.282855126891058517e-01
2.195920989688551761e-01
2.338184639973524548e-01
2.008341240774452752e-01
2.821805247323849741e-01
1.878372578015448657e-01
1.477380214393966551e-01
2.219125630881453592e-01
1.954469326736406332e-01
1.596720114973646520e-01
2.076859848145165555e-01
1.915677651711591156e-01
1.756254377058844018e-01
1.970306191217234548e-01
2.255882471419815571e-01
1.823251767130904810e-01
2.506611966925749724e-01
2.444020606701975962e-01
1.656853448069691148e-01
2.457264945944252488e-01
2.330942211122921659e-01
2.580730242063022928e-01
2.644606118470965717e-01
2.640025694896849240e-01
2.425325923236875958e-01
2.213191896470794451e-01
3.118941755284343476e-01
2.417070998554302352e-01
2.883749533870278436e-01
2.777848603259935878e-01
2.576510765087648980e-01
3.076979016445742232e-01
2.885017691365131531e-01
2.585407567812866292e-01
3.396480774450126860e-01
3.372296711134356029e-01
3.194827637490958439e-01
3.292048080316736236e-01
3.373159954914534131e-01
2.344605700683835836e-01
3.156352633395052010e-01
3.520726075262995969e-01
3.355674621875827657e-01
2.959632684039121275e-01
3.153862933259568013e-01
3.308732044649615456e-01
3.223172701037194665e-01
3.313654693813564700e-01
2.311738880277581232e-01
3.089460200280680358e-01
3.198355651858008630e-01
2.974388451342201423e-01
2.807113461644921149e-01
2.759691207703121596e-01
2.646780483089235525e-01
2.519290866002686924e-01
2.262514548572132633e-01
2.418374484912931555e-01
2.752836547177618942e-01
2.806815058047436029e-01
2.213721676177894671e-01
2.648728973663811992e-01
2.693323556094889826e-01
2.596206612033416516e-01
1.930093246054377931e-01
2.053510221031197291e-01
2.436849684463554544e-01
2.553210127097572113e-01
2.169949947964388004e-01
2.248259895747149462e-01
1.652704600659692935e-01
1.568380761186758676e-01
1.782710265945652572e-01
1.574634345759701182e-01
2.206837788441309844e-01
1.615952813172740199e-01
1.886459339123015555e-01
1.807972768225353521e-01
1.768586671442804181e-01
1.307951005067986838e-01
1.040537740229611069e-01
1.253304008304852168e-01
1.425256277181177200e-01
8.859623960697529665e-02
8.389964109525058222e-02
1.485991749550569230e-01
1.389446412279007059e-01
1.252986595899496514e-01
1.132564508361201122e-01
5.570231804457520530e-02
1.139207798442451736e-01
9.889517529405550400e-02
1.053313245263867021e-01
4.246358256362123967e-02
1.396462365338131673e-01
1.228990154518571631e-01
9.422783230866643711e-02
8.202974610382354759e-02
5.377561311677993283e-02
8.904696127961608809e-02
1.414985419628255192e-01
1.553007324875163020e-01
7.272034393319196099e-02
6.884679054551520738e-02
1.123013720948133898e-01
5.461853441545573562e-02
5.986915032872547338e-02
4.606284001116191934e-02
4.952628450570215057e-02
1.507532724872995833e-01
7.699727313201293333e-02
7.563530000440957246e-02
1.239087887988027659e-01
1.098391170778429682e-01
6.389115956296556598e-02
3.124675331813498227e-02
7.584867044561371952e-02
9.922990485900592961e-02
1.004324898557475837e-01
8.587969114988497354e-02
8.116691817396286257e-02
8.020546618700372110e-02
1.060999407044481979e-01
5.988844461946418035e-02
8.475748230382776360e-02
3.717874199931792828e-02
1.220790514054827386e-01
7.381436387860422499e-02
7.613768347269316006e-02
6.906299955726463713e-02
6.278761548097978873e-02
8.786582268420939368e-02
1.361837275080617637e-01
1.036065852448473101e-01
1.408081338337049404e-01
1.160204584666428146e-01
1.726455046992026454e-01
1.316535617386014878e-01
1.123865077763131770e-01
1.276917295569580113e-01
9.947101895682058936e-02
1.775487046566925353e-01
1.391048604886325479e-01
1.704275523838598427e-01
1.953128472774209312e-01
1.290454063094665094e-01
1.487967364228796330e-01
1.570060019870137547e-01
2.019476105260626098e-01
1.889897177345281065e-01
2.336267650278565644e-01
1.688985773042981364e-01
1.500532748582557585e-01
1.923831417016775569e-01
1.210540475468288996e-01
1.641186275125926797e-01
2.195316122414753268e-01
2.232143861890439063e-01
1.689180176113214693e-01
2.345397089638814048e-01
1.836367169778110597e-01
1.910773630644957699e-01
2.075275166932769033e-01
1.665194144046633351e-01
2.273451248281056214e-01
2.077110857930782872e-01
2.112851862112039292e-01
1.683050398042617024e-01
2.898254541041924703e-01
2.328640807480675812e-01
2.198746666129010319e-01
2.181088200828105728e-01
2.452250032003793490e-01
1.956832809783954352e-01
2.507928289131780009e-01
2.037231062213877841e-01
2.581698565452799077e-01
3.619955964351871391e-01
2.789973234614862019e-01
3.323992422449672524e-01
3.793364581879735131e-01
4.642240699515544633e-01
4.403652137026216606e-01
4.867565793062874624e-01
5.764792609295446013e-01
6.423141785247967750e-01
6.525915547096231561e-01
7.098494018602545808e-01
7.478823173657883627e-01
8.372101789920342041e-01
8.639260892510731704e-01
9.160244787714033610e-01
9.937713569989582441e-01
1.005178529872246207e+00
1.130426030958369132e+00
1.119015529761912875e+00
1.097056634132280717e+00
1.188695701659560511e+00
1.162537263883129057e+00
1.173575204560420637e+00
1.114203042433223212e+00
1.084969763517862784e+00
1.105984066919851738e+00
1.053484773774971739e+00
9.308812418438410230e-01
9.479290792856490677e-01
8.917988649454374750e-01
8.084972547126326736e-01
7.542633467392370061e-01
6.603040964315196604e-01
6.538049108442773871e-01
5.301301266702703741e-01
4.832469260854754811e-01
4.543453205508378168e-01
4.159332505941158997e-01
3.367380773271512751e-01
3.413740610364612293e-01
3.197533128199387398e-01
2.707516418852007889e-01
2.639325602948175975e-01
2.458925196962583604e-01
2.335864420612382975e-01
2.190928465788795909e-01
2.450262472827051674e-01
2.039175695251487785e-01
1.976913788238013059e-01
1.879764258874392358e-01
1.643456292631230442e-01
1.890017729456017204e-01
1.558558590001934419e-01
1.942381946065132037e-01
2.065960530551607943e-01
2.434482456994472854e-01
1.453876001502554249e-01
2.189434914787637132e-01
2.367176183494394681e-01
2.054240753094399574e-01
2.420062820355892430e-01
2.026521322092508792e-01
1.974862676899417913e-01
2.790941182602404425e-01
1.875891710758562647e-01
2.988935639081387041e-01
2.886495865651613757e-01
2.711993027161080372e-01
2.613849690615642762e-01
2.419812642686155479e-01
2.437343858255329176e-01
2.872073741082959986e-01
2.971206405840463027e-01
2.883838753643076513e-01
2.634041958062063871e-01
2.768795878591230886e-01
2.911579295526855460e-01
3.169782002562516743e-01
3.462105323165485804e-01
2.756715806261321178e-01
3.322896178068603934e-01
2.514833855106788918e-01
3.111792188345646748e-01
2.780423530857512038e-01
2.916894707157677291e-01
3.528946388778684273e-01
2.910015763283709256e-01
2.597907988700095538e-01
2.846422904356007422e-01
3.023090861359649661e-01
2.551105851675050662e-01
2.945663281312284054e-01
2.765148647828469253e-01
2.968617267735509380e-01
2.851602620957975898e-01
2.412655532636730216e-01
2.515365125668092561e-01
2.275431885786853570e-01
2.585332604350289998e-01
2.836601150888397038e-01
2.211359832444766971e-01
2.422354766308743024e-01
2.533453248211964826e-01
2.164031166615590640e-01
1.917648608426401891e-01
1.883288801533672951e-01
2.276438497141606565e-01
2.259038448562893930e-01
1.860122924640561781e-01
2.665758240172238502e-01
1.902208061240443504e-01
1.816031605159109108e-01
2.158365720589460468e-01
2.313841153886515289e-01
1.931553670855712113e-01
1.536792152894294050e-01
2.103651883576094783e-01
1.687667396462992908e-01
1.330930933435639507e-01
1.259008747609059731e-01
2.116789277633144839e-01
1.865960860989342163e-01
1.429861401203090243e-01
1.091923662320361810e-01
1.162549735872629303e-01
9.507847915461158095e-02
9.432557986782855175e-02
1.140872242441816481e-01
1.201476816778030143e-01
7.295693946873381408e-02
1.500752949535949510e-01
1.163304260550352270e-01
8.673640770394859534e-02
9.362403517282866239e-02
1.360834379627754165e-01
6.174529471687482257e-02
9.715744477844918958e-02
4.573272218978976372e-02
8.847220748736241147e-02
4.582403670357050596e-02
7.270223937749348275e-02
4.221347799434211484e-02
1.112039970126751515e-01
6.211782573962007503e-02
5.796983259005718259e-02
5.650863331281243823e-02
4.858848378014440916e-02
1.435159429968145273e-01
6.161059431553077975e-02
4.481724319121355160e-02
2.799726759261650724e-02
4.862394263451728232e-02
9.439949805167346941e-02
-1.225184130100596264e-02
6.347756111070276819e-02
7.254740544310173123e-02
-2.888452217902529040e-03
1.230397940431875170e-02
3.728513331417819543e-02
6.020435337957426997e-03
5.751003137683713407e-02
-9.552526890734363424e-03
5.572066817644241721e-02
4.967900300789165197e-02
4.636756375835260346e-02
6.157229379084951104e-02
3.638587012132415976e-02
4.629638203670556618e-02
2.743707590394896950e-02
6.028819300675876403e-02
5.271407651251901888e-03
9.275054524998757599e-02
3.835697805662405258e-02
3.815798275131684902e-02
3.346068534976288922e-02
1.315437230712039329e-01
7.125516440551073194e-02
8.955655111982883942e-02
8.517672168789418297e-02
6.867550752778281420e-02
1.147292547386675604e-01
7.467440868717738212e-02
9.396130670348731839e-02
9.266016986113927156e-02
1.163181493417634743e-01
1.156355951378375407e-01
1.118551119662021809e-01
1.306701635388973493e-01
1.499721228679295471e-01
6.885851431018780167e-02
1.568335614467498973e-01
1.560570971259855888e-01
1.157249804397756932e-01
1.706951690721286441e-01
1.809372199238134249e-01
1.467158775133009518e-01
1.647724624926095449e-01
1.530840111245130031e-01
1.831648741546107184e-01
1.712393282482644330e-01
1.595291610921986125e-01
1.442797494073821407e-01
1.650233549185472215e-01
1.981722440656435436e-01
1.665426482481133785e-01
1.585076190954601838e-01
1.005138351958349552e-01
1.668415278696592230e-01
1.404351045190388447e-01
1.602446508052569329e-01
1.250562970407422536e-01
1.233396146240189339e-01
1.859741875622103746e-01
1.935789080119069694e-01
1.857142082836761576e-01
1.898568366675063013e-01
1.714195316045594997e-01
2.250072051939611961e-01
1.542765295457985686e-01
2.448174070752555109e-01
2.403225964853158148e-01
3.093151852287396308e-01
2.929568478997562897e-01
2.828539577533211724e-01
3.459228382962927784e-01
4.482346075889061532e-01
4.811966621547587031e-01
4.380303419075083360e-01
5.409793204583565052e-01
5.871729507299067174e-01
6.763965988103282090e-01
6.919790363232698471e-01
7.966188787622653367e-01
8.480087054259883850e-01
8.593468594465503152e-01
9.770539678062870603e-01
1.002876145818991649e+00
1.022934188273138867e+00
1.049006585675539949e+00
1.101539336375611855e+00
1.086082387074687849e+00
1.107339288357154228e+00
1.059456536928505388e+00
1.086497886924879808e+00
1.098363494228190573e+00
1.059509336721625727e+00
1.016813825195726162e+00
9.155931843954691063e-01
8.765692817274880477e-01
7.892239523602755380e-01
7.700883966437388484e-01
6.790567890054686195e-01
6.297184546302065922e-01
5.850556341259212090e-01
5.090604312229274342e-01
4.824912943097195983e-01
4.185220051107812478e-01
3.965228963716379007e-01
3.135651167308812215e-01
2.789470844011383566e-01
3.007678307009041818e-01
2.012210152178913192e-01
2.183357074267000819e-01
1.797937087365400477e-01
1.262769751299754051e-01
1.344374734161640494e-01
1.752244859303259128e-01
1.528309036418599443e-01
1.593946150676247564e-01
1.737011741306594692e-01
1.702952396136626079e-01
1.560836382803369726e-01
1.005276738837060369e-01
1.519943516974455178e-01
1.698503834903050957e-01
1.668555203094550521e-01
1.459259396622472893e-01
1.847820699179093251e-01
1.504088725732301013e-01
1.699192482672094717e-01
1.710864427607984850e-01
1.328248487005919687e-01
1.891417427227529147e-01
2.290149829236263479e-01
1.320536567947571405e-01
1.941150585995698730e-01
1.891072880811758006e-01
2.111198914883809230e-01
1.894634521623970724e-01
2.155571585806422552e-01
1.789917239427310236e-01
2.195153540141133452e-01
2.105767561324743409e-01
1.974100012025578332e-01
1.907028909818293816e-01
2.893212275215613083e-01
2.707832411955776175e-01
2.266682652683847665e-01
2.299323333419374671e-01
2.643318038813773918e-01
2.737162962220798801e-01
2.368584805672061533e-01
2.162723491937488807e-01
2.004673769589615240e-01
2.363950981598432199e-01
2.276600977773634571e-01
2.453126394546964462e-01
2.363244444367536834e-01
2.351983729491428643e-01
2.099825117594502910e-01
2.233515871190043800e-01
2.200784339881606266e-01
2.473635362556682593e-01
1.572290759003350524e-01
2.844382969778123660e-01
2.572616809734361021e-01
1.913105820067703966e-01
1.648221043588289358e-01
2.484960813214731612e-01
2.045350116364028636e-01
2.454429830162584703e-01
1.800359595565714232e-01
1.640959860509151880e-01
2.140337060311926498e-01
1.618205669336270081e-01
1.437187182006145481e-01
1.640686974973007417e-01
5.987004534534025313e-02
1.334679279431723598e-01
1.756255227692979370e-01
1.661737701450411442e-01
9.780230841107361017e-02
1.904075281066662517e-01
1.662343742975150862e-01
1.146466891123587017e-01
1.247477410550052596e-01
1.105115570710945017e-01
1.368477225747708748e-01
9.714900205064123939e-02
1.212020722625736513e-01
1.599856050001810803e-01
9.446981878583995962e-02
1.030343339259336827e-01
8.152600709986695948e-02
1.036717000518409121e-01
9.271102438631510789e-02
8.799112735276105879e-02
1.424385482098459443e-01
7.880933771089639051e-02
-4.350689809977471845e-03
5.203584392689883376e-02
9.464235757444126873e-02
5.278587477725520810e-02
1.357588961270571673e-02
1.713972394928020906e-02
-3.160904620909634616e-02
4.533260293330450968e-02
-1.670758344756419558e-02
-2.673322509684630116e-03
5.840449924588916875e-03
9.029336169270726908e-02
2.653601140439103973e-02
-5.143326496966201672e-02
3.495346902797015487e-02
-3.912919896453648239e-03
2.662506931388429476e-02
-7.348293031185154645e-02
1.683283077004093381e-02
2.329189633316948102e-02
-4.029683284229378798e-03
-9.045939940188540973e-03
-7.000350168054744748e-02
-1.915596767328689443e-02
2.257304450871306517e-02
-2.922091002197961529e-02
4.521247106904563440e-02
2.064657812801878878e-03
-4.318692005890532870e-02
-6.383053365342278296e-02
5.518963364931975257e-03
-6.506311823709359787e-02
-9.746123341111037619e-03
-6.866790525954753061e-03
-3.467791826221977569e-02
-3.202116041850156664e-03
-3.515775420983041633e-02
-1.319188231059049976e-02
2.012723574366717672e-02
8.281890801332472685e-03
2.439357989962429030e-02
-3.112038207082054586e-02
2.363596986068144945e-02
8.419310959681772233e-02
-4.660906360299900408e-03
2.962435183463302257e-02
2.082657895862005670e-02
2.959584099713368638e-02
3.294953084843939978e-02
7.373848059884954842e-02
8.106773428364855150e-02
3.871198083291559067e-02
1.110761400733337873e-02
6.756334778473119251e-02
6.788396679077345064e-02
7.366455593768983512e-02
8.249754975423140291e-02
1.281018556293755939e-01
8.937211471829137333e-02
7.226433896979614357e-02
1.196352151244730322e-01
8.655213143145912280e-02
4.141572076337631664e-02
7.791943330526340805e-02
1.394888266924219078e-01
5.565891693437116650e-02
2.820555194880221273e-02
1.281666213600996251e-01
9.728630252888847973e-02
1.018927607272404889e-01
1.256465420506832076e-01
9.104755510110371097e-02
7.954557816319429708e-02
1.080597442866629565e-01
1.301630455838486133e-01
1.418682036136324487e-01
1.313856007544892679e-01
7.444889840410146009e-02
1.003938733451911064e-01
8.761864060334713378e-02
1.144676669678512809e-01
8.708173442855562940e-02
1.213682987279705305e-01
1.187640731602407906e-01
1.245555335714088607e-01
1.334150894376176788e-01
6.408541229492573099e-02
1.684972503334858096e-01
1.738913224476387742e-01
1.373225904319154700e-01
1.573640657092509054e-01
1.532796026877433215e-01
2.726733160560472768e-01
2.583806903337971250e-01
3.115102995551439768e-01
3.617737500952320495e-01
3.776333435252725024e-01
3.928928421878903898e-01
4.637011506318886034e-01
5.080275903859930997e-01
6.086912131854212982e-01
6.464604488696481521e-01
6.866504493497662676e-01
7.423904178129950848e-01
7.649335353619460820e-01
8.176465800731478328e-01
9.180789115658879451e-01
9.834698890900474000e-01
1.004720573341330914e+00
9.999509500020513642e-01
1.049792151936701057e+00
1.057715768648966659e+00
1.070260258879776050e+00
1.078870526175516487e+00
1.032334235484352991e+00
1.057847287372753575e+00
9.745470210987314807e-01
9.015276249275425702e-01
9.097167281842646336e-01
8.633065347463265704e-01
7.582172885774479676e-01
7.224847193144817714e-01
6.661390574521652841e-01
6.084607060402115186e-01
5.567060798932254029e-01
5.474312754119482483e-01
4.206324089196135652e-01
3.799627207324521860e-01
3.209205270607901617e-01
2.894834648831388080e-01
2.358665521918188457e-01
2.151886580107771341e-01
1.307789850407390098e-01
1.689743359364794528e-01
1.366059374698165851e-01
1.126026735307235904e-01
1.319084025360949819e-01
3.408360681740374432e-02
1.026159191638395529e-01
1.226185756551250172e-01
1.459297308948585559e-01
1.571148578861748801e-01
8.841721047804966538e-02
1.174859517111840057e-01
4.918777504896836711e-02
1.348025032291875480e-01
1.050412318464339773e-01
1.234005666875123419e-01
1.542971738432577511e-01
1.542951641346226310e-01
6.197130338489498236e-02
1.149282810211354061e-01
1.427086471925065603e-01
9.861288978603249822e-02
1.836639995832593797e-01
1.777370464383183635e-01
1.421508646015288146e-01
1.007493195076485104e-01
1.931409431741104299e-01
1.660081971102119192e-01
1.914484495776274664e-01
1.771527691779441749e-01
1.409541315372601911e-01
1.768837446280188130e-01
1.415206434400628488e-01
1.672407777885845659e-01
2.021734801688597483e-01
1.457314583954689158e-01
2.044679865738895097e-01
1.358102785989337424e-01
2.361357633875138251e-01
1.684790256736058978e-01
2.231757608865018172e-01
1.663828873551005949e-01
2.299724900864347221e-01
1.439121068392325564e-01
1.909931780520044975e-01
1.790762078680121216e-01
1.617519243685020536e-01
1.792005464900189859e-01
1.916454223313078797e-01
1.734512885588966324e-01
2.259142863823401237e-01
2.056524701029887048e-01
2.301137292641469156e-01
1.549195695128685324e-01
1.918838417164927534e-01
1.890975545477883157e-01
1.801041414226277615e-01
1.080680574161628771e-01
1.572507006421775821e-01
9.910397985570232327e-02
1.080860280736179735e-01
1.904137552063691063e-01
1.349689479545862492e-01
1.693840772486943924e-01
1.328717843094303630e-01
1.700481775185685440e-01
1.584074834226311401e-01
1.251661229702575318e-01
1.176329360477563896e-01
1.082530539601791048e-01
1.545108255509133888e-01
1.285213740217519551e-01
1.043358978840030205e-01
1.032454365005770480e-01
1.076602887707399508e-01
5.312416185010325476e-02
6.755435954444385938e-02
1.023262551590372049e-01
9.202535480073867347e-02
6.558557684728602566e-02
2.967935213675854111e-02
1.179758318942449036e-01
5.626429090457592264e-02
8.712724754364009616e-02
6.863190759409930342e-02
4.826550544994451242e-02
9.074079314036988253e-02
4.349246611040599036e-02
1.083581633163809149e-01
4.277076075963433949e-02
4.431474082193097297e-02
3.577124507574465373e-02
2.694126652658947185e-02
3.840947984074147975e-02
2.881469015615531482e-02
4.242341262312859795e-02
-2.286876206103306830e-02
-1.137809753387454548e-02
-8.566778072382687237e-03
3.186727437326730694e-03
6.357459230193317212e-02
-1.439550057182513443e-03
-1.033918547339255506e-02
-1.125185483264597858e-02
1.935750172506324474e-02
-2.017225629307624335e-03
-6.292540127121772076e-02
-7.486571051194465531e-02
-6.458528773144851798e-03
-7.263694872872972219e-02
8.259766603807894292e-03
-1.885265526140429693e-02
-3.864559944009104270e-02
1.301383421110864635e-02
2.602123380521287332e-02
-1.547209249810346104e-02
-4.232435511385836124e-02
-1.451385914260487631e-02
-3.528179179317472020e-02
-1.105728821541396983e-02
-6.399597262101221207e-02
-2.404078983813108875e-02
-3.738668410951419968e-02
-7.556706746972133293e-03
-2.150883838947994717e-02
-6.325048341981198696e-02
2.591304921956416596e-03
1.230436973791271260e-03
-8.880678065150041101e-03
-1.992017039638908915e-03
-4.434412702769807701e-02
2.141186181905627844e-02
-1.176504847329203074e-02
-1.855397379457033105e-02
-2.552642455369763530e-03
2.638123413021590397e-02
-7.475831316175289565e-03
4.418009905436856566e-02
5.160388172814653340e-02
4.218294737322193788e-02
4.385806776032478982e-02
5.144557676533913215e-02
7.496151187595503917e-02
8.610748173025750685e-02
2.538517154908646184e-02
1.091633188581114661e-01
6.312701642715815020e-02
6.754052989940664831e-02
9.058794358521288226e-02
4.060615508888942848e-02
9.822682583684880231e-02
9.061002936225825977e-02
9.514414154951014724e-02
7.109841398997601702e-02
1.024898957965393320e-01
1.293773152076490851e-01
9.992404766795223714e-02
1.040866611426989052e-01
8.858943812849764954e-02
1.117918852200345536e-01
5.675179367683916287e-02
1.059606522320833688e-01
1.315564484798613099e-01
1.525837353723008272e-01
1.384304973482281542e-01
1.407128058939387805e-01
6.785963642094049175e-02
1.127973350675954001e-01
1.042421115011710198e-01
1.199715357288712592e-01
1.346980033555540968e-01
1.115090171820510290e-01
1.193774626151159757e-01
1.032448345458803485e-01
1.183500755287413969e-01
1.261285209074408109e-01
1.909151054823861604e-01
1.401048618709766769e-01
1.928666369911948564e-01
1.786860345692710683e-01
1.984691184983587986e-01
2.569374791010365366e-01
2.805165743243619447e-01
3.194655156143086372e-01
3.282184490872726013e-01
3.310771602784726153e-01
4.172975832825259190e-01
4.897708187716693362e-01
5.656351503095100597e-01
5.980814893905721519e-01
6.805943883025445951e-01
6.752277485690254544e-01
8.362836465673817443e-01
8.256283724798754164e-01
9.120295117561234566e-01
9.513872884981687816e-01
9.743967652462417472e-01
1.073467851332998269e+00
1.072866271778015967e+00
1.054522888847950313e+00
1.111938921672986691e+00
1.051442618077531810e+00
1.113744088336609650e+00
1.033002042253731823e+00
1.004290408671530965e+00
9.678686564888443478e-01
8.433428769006975356e-01
7.958034330872636453e-01
7.972730116755164520e-01
7.574550527016258306e-01
6.907186072277901046e-01
6.183663899260261054e-01
5.696016627730164927e-01
4.580526523554360740e-01
4.458064103823407565e-01
3.661241527486601699e-01
2.367372338040169832e-01
2.246393052399768275e-01
2.937215361036328298e-01
2.638706663918271578e-01
1.850475719945460507e-01
1.361227939081835758e-01
1.711612987093918126e-01
1.709743900551562168e-01
1.087260439859443623e-01
1.158833641335255404e-01
1.176355498959182622e-01
1.120855649899678286e-01
1.261057807667707864e-01
1.267727712461726164e-01
6.756297824431192756e-02
1.589017328650261796e-01
1.079613828926184460e-01
1.045430981150432120e-01
1.085082657714409038e-01
1.369650897475168660e-01
1.163897785089311743e-01
1.148826848567857939e-01
1.635997410034524258e-01
1.114093920307002716e-01
1.783376165618286158e-01
2.257690989210461296e-01
1.849352304808751790e-01
2.025167713077385134e-01
1.660081070903925149e-01
2.067096130131937937e-01
2.259342701996386871e-01
1.752284898534222923e-01
2.069779534180043457e-01
1.895369590980034713e-01
1.587261245340648719e-01
2.167204014564275139e-01
2.283599914738435044e-01
2.342741576777550849e-01
1.875570231077374195e-01
2.435980391327813022e-01
2.486891986392048837e-01
2.354776029059004461e-01
2.335754984273837320e-01
1.696250654698153726e-01
2.110167951026498678e-01
2.175185647840416348e-01
1.922996411997863198e-01
2.415214457153112837e-01
2.111497712559173012e-01
2.241158937459020450e-01
2.491989284498203616e-01
2.396507708244288715e-01
1.909439789702673251e-01
2.294646213208516861e-01
2.349103475245723216e-01
1.534494557483220833e-01
2.166686428685239418e-01
1.578035594302434619e-01
2.041559809907966816e-01
2.448280678095873519e-01
1.969580031761954952e-01
2.211920146273891885e-01
2.003289364716724918e-01
2.329058283377961336e-01
2.013256605634395902e-01
1.785997662214996451e-01
1.981509661792144050e-01
2.219448299244906886e-01
1.391858569587689776e-01
1.390013116376098701e-01
1.629588548497306333e-01
1.697871658127721450e-01
2.085480400323187489e-01
1.304419351503049440e-01
1.037716707225456725e-01
1.690224917199208143e-01
1.215430871051063344e-01
1.884573364133495799e-01
1.491386606727680975e-01
1.033880092802590411e-01
8.148125688368113018e-02
6.174847756130801002e-02
1.372211215398348172e-01
1.603482361771799147e-01
1.029243106828446747e-01
1.133173474319238011e-01
6.517573475855542586e-02
6.008641835836833062e-02
8.063063077213614149e-02
8.382134933922573417e-02
7.746032463465762907e-02
4.428421979365762540e-02
5.429558445055745336e-02
1.979913323808708131e-02
1.287723453161848663e-02
3.300294139093178786e-02
1.095295700951351078e-02
5.251730350893778210e-02
7.118453448588497878e-02
3.221771441049572915e-02
4.299458155874713583e-02
4.411687255546151154e-02
-3.443155954997771662e-02
-1.662337782311117465e-02
8.648130598205276687e-02
1.545461904910297446e-02
-2.732596502136126759e-02
3.012091529363537107e-02
3.189157416905834957e-02
5.218004654690319710e-02
2.585728041761002627e-02
3.411897387529461839e-02
-2.281064347609545670e-02
-6.373720777779996044e-03
4.289246846498773191e-02
1.536276396927845414e-02
-1.370269740263050859e-03
4.930991219123501135e-02
7.021038685066868096e-03
3.700104005361290471e-02
4.148556627791810669e-02
8.128800805820009939e-03
7.329002738741187406e-03
3.880231869211689388e-02
-5.197685432209164097e-02
4.314572118631464920e-04
2.528043469649786379e-02
2.772074483888839827e-02
-2.311572594838810085e-02
-6.676487867831377987e-03
-1.413642181377052984e-02
6.467512277732112569e-02
4.000231258597655715e-02
3.124106905143985563e-03
2.314436833682056299e-02
2.481687263330589061e-02
6.095400755770369328e-02
1.543985119273308393e-02
4.457372968181577688e-02
1.809509108600691751e-02
8.836209808996647874e-02
3.806103788588077741e-02
6.037329421169686239e-02
5.723604043720555146e-02
1.504353634160836839e-01
5.981185079510291380e-02
1.238156307396995059e-01
9.915066766270659582e-02
1.138088916034815934e-01
1.230857695589469281e-01
1.219019611968133326e-01
1.025636844497718192e-01
7.705747392297747356e-02
9.446932385398501553e-02
1.533451574993686395e-01
1.438378613636874248e-01
1.166166237138392403e-01
1.096050476231784365e-01
1.683790021987956742e-01
1.496970071067649788e-01
1.637023910622471823e-01
1.341703152518089193e-01
1.377862056073577701e-01
1.383118982457036683e-01
1.627004477581347752e-01
1.384380060137987423e-01
1.160814701730520510e-01
1.554598675966274157e-01
1.143614695933902053e-01
1.833830327973437202e-01
1.191060463890817739e-01
1.515665374961129852e-01
1.553725817052721003e-01
1.548935177487186787e-01
2.012324328463772627e-01
1.898036996999448167e-01
1.578332324673874520e-01
2.067044768765204932e-01
1.979111517217418958e-01
1.988260930811024119e-01
2.039713827848091410e-01
1.874644055125782027e-01
2.431495883776524647e-01
2.322486922074458171e-01
2.236646823136328455e-01
2.797488523771752278e-01
3.300031924644091230e-01
3.897605201228096505e-01
4.025467545031643501e-01
4.068030905106033157e-01
4.783463656578439416e-01
5.873718423879356054e-01
5.450923588472554870e-01
6.651898739892171397e-01
7.193520939740832842e-01
7.689999460612969573e-01
8.590883295688446220e-01
9.187311367850460320e-01
9.781473402060475442e-01
9.931311968055721584e-01
1.036294186839514131e+00
1.069015786203997065e+00
1.092322496107568153e+00
1.088517203306278880e+00
1.115107524669707306e+00
1.119635635740498847e+00
1.067110174457731153e+00
1.048588241977297164e+00
1.033728961568673999e+00
9.680977750134843740e-01
9.785975895928213930e-01
8.796264355686526093e-01
8.931283376613521341e-01
8.240574946879208884e-01
7.460035462555435481e-01
6.963769022509906925e-01
5.809992570718877092e-01
5.129514333605812437e-01
4.984664247174031004e-01
4.001178890046481751e-01
3.724423269346079923e-01
3.791465197583173685e-01
2.909006919000618474e-01
2.406271203175973650e-01
2.318065840752325801e-01
2.383274326539928378e-01
2.385138100992817423e-01
2.054497133170092860e-01
1.753227434662912310e-01
1.613586084243604779e-01
1.732214018089215379e-01
1.823187372175970877e-01
1.539355604126434185e-01
1.514063267978806304e-01
1.206205745107910426e-01
1.484479522097386928e-01
1.231046105838863175e-01
2.171077362381855780e-01
1.488544924847498563e-01
1.767016471203999295e-01
2.151131756217846414e-01
2.253507970479664557e-01
1.830982323772540610e-01
1.346391490949044867e-01
2.074985046843826064e-01
2.097204355387673469e-01
2.152751535013693596e-01
1.867051968311077004e-01
2.090439010929701080e-01
2.770475696634192575e-01
2.717374944166472406e-01
2.031201910080584483e-01
2.126736404336936614e-01
2.005890299585190162e-01
2.192776467280319885e-01
2.495655040103063049e-01
2.326345560026407411e-01
2.783638123635086004e-01
2.871417704129627935e-01
2.634946675316216513e-01
2.559052487155760724e-01
2.776937300849280921e-01
2.366795399272100808e-01
3.552643705221879555e-01
3.189484770875507524e-01
2.784856371829680377e-01
3.452020548356277696e-01
2.448563400788775768e-01
3.226508028322682686e-01
1.976222967373350847e-01
2.711277242449769975e-01
2.650577501708378803e-01
2.842106095646252939e-01
2.512542257223732145e-01
2.473327198684074080e-01
2.780180862700670774e-01
2.619938462374011845e-01
2.372183646770406884e-01
2.327918287919097662e-01
2.478401645367189210e-01
2.648847416694637413e-01
2.771221946317591334e-01
2.979278741388566298e-01
2.000352722875352318e-01
1.927948735770888822e-01
2.425138997723495504e-01
2.189844472571786382e-01
2.493521377232444936e-01
2.223869152949346228e-01
2.175042167094266288e-01
2.015353269881929310e-01
2.205784645374156416e-01
2.255455257240533973e-01
1.389984475984890055e-01
1.340156739861076973e-01
2.244124606908628472e-01
1.400006130323346032e-01
1.525956981127643552e-01
2.282665948055329630e-01
1.799854570825584754e-01
1.856702291626317614e-01
1.074438784229697214e-01
1.834277681358839340e-01
1.701258780780514623e-01
1.417106731725900348e-01
1.339139252623310350e-01
1.383649631821287640e-01
1.039716583156135854e-01
1.436971764159157283e-01
1.635447470912758106e-01
1.901607729418403336e-01
1.719017986659448494e-01
1.139596523484543433e-01
1.426114752448479073e-01
1.484393133859345792e-01
9.969436248863733363e-02
7.622714084679531321e-02
8.360471649509548797e-02
1.098280661548159953e-01
8.665209916308160010e-02
8.710614948150161019e-02
8.120584275106167149e-02
5.318350515837799719e-02
7.121577928605149488e-02
1.248473726194182787e-01
-7.170015289872808117e-03
4.035224392776810831e-02
4.143774251380293039e-02
4.607308422198570091e-02
5.566514758768274784e-02
5.870088302999137281e-02
5.929800750429863043e-02
4.377870639649368567e-02
6.799172851312274002e-02
7.158123049676223815e-02
2.766422409977695521e-02
7.918348398489273576e-02
2.368487654641285300e-02
9.618298778842318542e-02
6.829173574357552678e-02
1.308406396510679859e-01
5.874906536994739525e-02
6.909897753471548609e-02
4.522723532547663627e-02
1.128386621732408723e-01
7.933538524259410585e-02
1.236058599635888600e-01
2.562130703737243789e-02
6.894594101922586760e-02
2.764582239647971063e-02
8.912482704034296876e-02
5.577333649332212595e-02
6.270241180576180406e-02
4.873736887263880463e-02
8.434855012701349131e-02
1.675482605823803983e-01
7.567483843451558445e-02
1.006755572042607738e-01
1.184642617937444742e-01
6.415364142492313571e-02
6.596562287355992038e-02
1.165828028983631193e-01
1.187659747682558303e-01
1.244907965067723332e-01
9.231383447227271832e-02
1.369509716886038175e-01
1.588381906666786192e-01
7.404263921927506376e-02
1.446903686125469435e-01
1.318349760337609589e-01
1.479312149430402346e-01
1.688820987981270727e-01
1.307938031174814553e-01
1.561060715791584286e-01
1.239339568464025987e-01
1.313151178221091120e-01
2.200322168117821442e-01
1.806151500450741409e-01
1.310627879541502727e-01
2.272296222557285694e-01
1.001904768238945087e-01
1.905722855631666601e-01
1.371033817059725546e-01
1.658662381837629762e-01
1.802682095774798543e-01
2.565274218653615934e-01
1.963003370647262436e-01
1.421358549091788492e-01
1.972031934836321332e-01
1.874116285446829622e-01
1.942937511494358671e-01
1.992374112409540377e-01
1.781269684550889632e-01
1.633232437292343742e-01
1.907135302228011864e-01
2.131057557596617857e-01
2.071984896328410430e-01
2.479693777504879959e-01
2.346491571094668771e-01
2.091692402306905563e-01
2.370751833183023516e-01
2.197442850971475514e-01
2.953928072809359762e-01
2.762322979738563999e-01
2.811000401845887287e-01
3.618694216817531784e-01
3.947601017419205549e-01
3.657761631228478860e-01
4.788689554994743913e-01
4.575063025992688326e-01
5.042669642358318383e-01
5.759203992723695986e-01
6.102224733398717849e-01
7.128369064511527187e-01
7.399636697476519309e-01
8.329940814049126008e-01
9.056858547867798759e-01
1.003066385210310107e+00
9.712918085391278877e-01
1.099668333844358470e+00
1.080472365580490646e+00
1.109163666261283376e+00
1.193896623285341185e+00
1.177073847235176718e+00
1.213883303499254662e+00
1.156016685852304882e+00
1.152090664076074633e+00
1.072978413260836872e+00
1.074457930118907667e+00
1.024203762303219856e+00
1.015880962583861180e+00
9.139182301914167139e-01
8.590967725430418422e-01
8.573599980214823280e-01
7.422851229865814471e-01
6.762339537941606249e-01
6.524708683659333763e-01
5.449670478422992126e-01
4.966775051914513739e-01
4.612781190356787242e-01
4.717438986033551940e-01
3.851374694056118875e-01
3.887418486065489787e-01
2.817896590101709453e-01
3.100909044048387742e-01
2.523551235494368439e-01
2.362552346301962647e-01
2.296426433669956357e-01
2.767881567446655589e-01
1.819893354421774634e-01
1.511946676506015497e-01
1.888930836788460244e-01
2.146067051636923462e-01
2.021207255619101306e-01
2.048159240494183686e-01
2.006168234251811122e-01
2.314897111942305630e-01
2.447653169735740653e-01
2.588240504341555170e-01
2.008129298613361424e-01
1.686606432315885529e-01
1.806600035295865547e-01
1.960311292234271918e-01
2.199804905441480607e-01
2.146056065858381601e-01
2.390517540171565591e-01
2.970473682955912520e-01
2.745339872227708922e-01
2.226744227810027454e-01
2.484089303334508503e-01
1.758145658070394968e-01
2.645386737306937297e-01
2.592104697602569674e-01
3.055511793244506391e-01
3.111552473097351501e-01
2.599981121894418545e-01
2.887529918025620312e-01
2.813926402175322417e-01
3.310128285746729571e-01
2.831815637968100319e-01
3.033730334985222932e-01
3.459779404717192586e-01
3.129772693821069596e-01
2.888132424550659549e-01
2.804946385817576604e-01
2.977845206785003640e-01
3.103772466740359337e-01
2.818650624454674403e-01
3.187173422873587070e-01
2.924923098000768995e-01
3.319267975561939199e-01
2.816335879001034548e-01
3.266595121335352236e-01
3.059342078329581605e-01
3.433833621226146104e-01
3.183772094507514305e-01
3.109921825890524794e-01
2.275275869831047681e-01
2.247518666257393716e-01
2.297771479888824908e-01
2.825803073035020319e-01
2.932897741240301226e-01
2.481699262707567910e-01
2.948916959319978215e-01
2.648532530655554607e-01
2.417838608763077102e-01
3.180531112529775828e-01
2.371794044436836280e-01
2.664614725035975851e-01
2.317787838623125707e-01
2.659988413871038349e-01
1.797899222333203539e-01
2.183999647821820989e-01
2.487953643755273503e-01
1.947790995652573798e-01
1.544627857965845674e-01
2.104159293601808312e-01
1.571716394395597238e-01
1.768685338036062038e-01
1.268578038008716657e-01
1.431327723979140543e-01
1.682810800051361411e-01
1.679397187541123437e-01
1.744455642233228576e-01
1.784102124250215859e-01
1.534608749862516608e-01
1.554576482601180976e-01
1.719050165884777603e-01
1.369500785082928274e-01
1.324854055086580051e-01
1.538390183004728629e-01
1.097293355801632064e-01
1.145705095879267499e-01
1.170442295323366605e-01
1.280739609442322902e-01
1.213211830183069662e-01
1.193177359493289846e-01
7.357601902237356772e-02
1.604894137479893901e-01
6.066678195530409573e-02
1.110503434858009786e-01
1.255409245807621310e-01
1.170334962921083799e-01
8.890736880682664767e-02
7.430263962494573771e-02
8.077924646806983189e-02
1.015232592346179963e-01
9.907626836955873983e-02
6.144936672916871678e-02
8.558530904028675834e-02
8.163658785309507726e-02
4.396206815545541935e-02
1.514145381485847430e-01
8.787792007142715411e-02
5.317703885540774056e-02
1.416240019694602614e-01
2.811487256830241810e-02
7.158934751694766285e-02
7.941302479067574582e-02
7.968014622860591922e-02
6.612922838715729057e-02
7.313253327309832130e-02
9.592184109017654059e-02
3.383999460530159875e-02
9.289755305532661211e-02
3.186652650858706054e-02
1.003684563063653584e-01
7.453111807379619869e-02
1.062602260535817494e-01
8.278322276964497628e-02
9.845455910353331785e-02
1.073851239205845243e-01
8.482802871861709615e-02
1.242636979100987804e-01
6.896805971764272125e-02
2.285552570521336840e-02
8.792699825332364605e-02
1.058126912799921271e-01
1.234350635856756445e-01
9.260945471384303407e-02
1.253318083395285609e-01
1.221281243361580643e-01
1.347018171926054886e-01
7.791870839055350939e-02
1.401032027661517354e-01
9.616324900741535231e-02
1.320210817576105700e-01
1.417839906903303471e-01
1.374974450921689073e-01
1.576787164664889551e-01
1.251610768755098135e-01
1.833048532617063964e-01
1.395709391868687477e-01
1.914554245762040696e-01
1.921928751275271685e-01
2.087948978846523862e-01
1.536899027265390683e-01
1.953652824964568213e-01
1.788649904767069532e-01
1.658204331385348673e-01
2.003382190171444088e-01
1.461625725816241006e-01
1.608246247960722630e-01
1.274645615555012046e-01
2.439788395130865761e-01
1.621860619950890592e-01
1.714838376612541904e-01
2.180060586494406705e-01
1.776211864524347150e-01
1.513197665852427654e-01
1.688530597567119984e-01
2.406733109876526555e-01
1.881270845915074819e-01
1.965643252360952942e-01
1.996140332345240631e-01
1.783980622625742640e-01
1.960519123744309811e-01
2.171380421949573036e-01
1.592395805506870432e-01
2.053461971182084511e-01
1.870794762585362980e-01
2.679812674923670035e-01
2.536045401175476832e-01
2.179782092185260090e-01
2.736860318107153800e-01
3.208197123410352347e-01
3.259922513376257713e-01
3.921013679965494325e-01
5.030638679514403133e-01
4.831354896241965569e-01
4.940141227747637531e-01
5.475670689896887655e-01
6.581418385804724824e-01
6.902879055014531362e-01
7.229341999057999901e-01
8.087692125853263025e-01
9.230814895565878642e-01
9.856136168777266393e-01
9.719138440377350641e-01
1.012081392058169049e+00
1.081737913840102872e+00
1.090100952380757215e+00
1.126992259018833487e+00
1.166271637422357177e+00
1.133648813449901427e+00
1.094336279979972737e+00
1.121990187954524432e+00
1.126546934697413072e+00
1.058092798653813116e+00
1.082011147605669077e+00
9.686107856691422713e-01
9.584545813595282127e-01
8.624422428904835458e-01
7.796626012562802854e-01
7.633498506275091522e-01
5.626904299131175735e-01
6.517381099403970479e-01
5.503075856087358275e-01
5.059590714578409143e-01
4.732661929949846247e-01
3.642450013495855399e-01
3.794688746185710393e-01
3.546531138236425629e-01
2.606667328981074339e-01
2.163327341737340259e-01
2.905990254855113641e-01
2.299046400419118563e-01
1.896616529057610634e-01
2.415052463660984916e-01
1.795767758380748536e-01
1.906716835471045923e-01
1.845827474770735110e-01
1.912686154827329676e-01
2.222015224362153263e-01
1.897738137087524590e-01
2.283851965338339340e-01
1.763722943743723515e-01
1.718843819039705956e-01
2.348583292852182147e-01
1.906230148743816855e-01
2.020160043982724418e-01
2.010938930647550027e-01
2.030864580029289046e-01
2.391554092817446409e-01
2.010049242005237935e-01
2.856564077151173553e-01
2.294024807297441182e-01
2.750077934411601088e-01
2.217031335211536724e-01
2.432290276364802994e-01
2.135522955097178821e-01
2.455615856539194175e-01
2.269460137646197306e-01
2.374109134281693900e-01
2.071577115339345299e-01
2.958793280911877766e-01
2.867220914566335210e-01
2.616983174569337822e-01
2.860761292144920476e-01
2.146734870473852030e-01
2.771495515326170556e-01
2.485864445937506217e-01
3.270358002301829159e-01
3.009105369947318032e-01
2.354541397965273786e-01
2.410221884160055339e-01
2.067119790839238580e-01
2.202972188355495353e-01
2.289697537896573099e-01
2.068676351443792527e-01
3.038845995273641298e-01
2.854583480602931322e-01
2.623514132829661838e-01
2.607449414789857478e-01
3.133631926102458110e-01
2.364116203095507351e-01
2.394380938953105387e-01
2.897535686733472837e-01
2.596759283978188892e-01
2.777551929468968783e-01
1.960874322156339888e-01
2.160317597488752017e-01
2.502082175048381263e-01
2.183022227863135323e-01
2.118425317083097725e-01
2.653911316117563701e-01
2.341242955585882413e-01
2.033859407542321640e-01
1.875503122582028448e-01
1.801707375242137255e-01
2.113524151366710235e-01
2.076264519066696734e-01
1.838363206956660501e-01
1.998060113022453455e-01
2.240176781252491700e-01
1.987203517140601061e-01
1.397139174026302832e-01
1.995025324345671425e-01
1.031957946672494159e-01
9.904893798902264512e-02
1.595482108476466709e-01
1.189927824193507261e-01
1.517377219649951314e-01
1.277351783164529520e-01
1.423014107090540548e-01
1.410173246809912628e-01
3.084932047043470460e-02
9.563932568372214560e-02
1.309456827937689471e-01
9.592522294446823028e-02
1.234876351640165071e-01
8.540491118510637469e-02
3.418213589363916505e-02
9.742688959702122675e-02
6.992446989777968691e-02
2.755118414077837447e-02
9.848949769441310564e-02
8.528991416228984268e-02
3.517199167095936413e-02
1.221294998240076216e-02
9.578117173087788427e-02
8.347314591726374966e-02
4.668844768749073892e-02
3.213359034694887595e-02
3.900098378526389853e-02
3.990111263131367741e-02
8.746083948806943065e-02
7.283178240838417139e-02
2.480262548409177190e-02
-2.801870217628115584e-02
8.661376046603216916e-02
-1.026200195560386316e-02
-2.500695989959922372e-02
3.825994665582209409e-02
4.919547661034551211e-02
4.337029970342305002e-02
-6.736685565474428636e-03
4.976620978062475109e-02
5.381688728681456590e-02
7.342735017399929995e-03
-2.286947627886044485e-02
9.497695762597499480e-03
2.954400645527794494e-02
2.508847011529904275e-02
-3.630772508426277634e-02
-4.388974880554121633e-02
4.524734275048599222e-03
2.812926771781783589e-02
7.076126786622059794e-02
-2.386962516658639941e-02
-1.619370601411237662e-02
4.003123643384611657e-02
6.529640691480489978e-02
4.883054171869296439e-02
7.034391785962564210e-03
5.666009786583253716e-02
3.776237173386657459e-02
1.013791066695463455e-01
9.741811442423754797e-02
2.842119823213169055e-02
1.320483889290096635e-01
4.960256027581677607e-02
2.699558229132732745e-02
6.326658209135138655e-02
2.928755949003546827e-02
1.046271214165119812e-01
7.252163945179962434e-02
1.254250101948585772e-01
7.766493172502833553e-02
7.094932695458712468e-02
5.751520668587557089e-02
1.382630676413940385e-01
1.007126250469464607e-01
1.290856057870901907e-01
1.138312790013755182e-01
1.249037860137689748e-01
1.124641186265986775e-01
1.317256331827003635e-01
1.459752349815685579e-01
1.439077560458245642e-01
1.721079562712757027e-01
9.339578282756172412e-02
1.762969167441617580e-01
1.053988772118238382e-01
1.475098540193794106e-01
1.413681296352040651e-01
1.899427355883753221e-01
1.489042812039330921e-01
1.176760074579620841e-01
2.213677026707988327e-01
1.072301081952043156e-01
1.811858398331202824e-01
1.615752834621231038e-01
1.380483258923602963e-01
1.531112110971929174e-01
1.475127140512259294e-01
1.590479605723896794e-01
1.317547667375923992e-01
2.068431400236903084e-01
2.142031826495412461e-01
1.513379148989234535e-01
2.133166601784812766e-01
1.546814585842910539e-01
2.311306202820825884e-01
2.329027149208343639e-01
2.870271410898247999e-01
3.102881231792846140e-01
3.536154793886941983e-01
3.439852567475550904e-01
4.447178104448415437e-01
4.815508748425440522e-01
6.023130198664888857e-01
5.691183643315183005e-01
6.223404376955969930e-01
7.267906727888077123e-01
7.828704797668019078e-01
7.921668833763341189e-01
9.051167895481935233e-01
9.118441533223385909e-01
1.013713757392692871e+00
9.926555594602745058e-01
1.104241752332411286e+00
1.089059219130952938e+00
1.048880190097020826e+00
1.076372367356699833e+00
1.085117541506212646e+00
1.054804405539896628e+00
1.048824255149327866e+00
1.031429444174094323e+00
9.479819760552155028e-01
9.384514954427192190e-01
8.897764787346098547e-01
8.378084581266119768e-01
7.086099069414053542e-01
6.908887141208439608e-01
6.011917807338325037e-01
5.449642265683094511e-01
5.074891095223680315e-01
4.530171109560787168e-01
3.483566826695571050e-01
3.386488956896153701e-01
2.931630622857139823e-01
2.759626595308246610e-01
2.603730462078570063e-01
2.267474657924244130e-01
1.839314381749442839e-01
1.426445862330394942e-01
1.672094374763333779e-01
1.564297422680307192e-01
1.255926686075820586e-01
6.901700999121929136e-02
1.190251263154125105e-01
7.243369579274155923e-02
8.998238460516996828e-02
1.553120372423163476e-01
1.082871088907059742e-01
1.138202725140830124e-01
1.174894734371811911e-01
1.852119440323050092e-01
1.494015838235254745e-01
1.193540254232967474e-01
1.657731995253971802e-01
1.335418996603361663e-01
2.200867640357241362e-01
1.355741616601074950e-01
1.949452560126803402e-01
2.016862537159469504e-01
1.727546601114205438e-01
2.065050875597348456e-01
1.908488970116938577e-01
1.852551467712132416e-01
1.809325140623049832e-01
1.649032398168737701e-01
1.983992037041546197e-01
2.572436818216578547e-01
2.354846861820834580e-01
2.463105206876165798e-01
2.145301762729135697e-01
2.041205860721846399e-01
1.567825946989657160e-01
2.230047834094582571e-01
2.304111091750518370e-01
2.049492493126564563e-01
1.924559775049670685e-01
1.896973848966087561e-01
2.193970144047993898e-01
2.276374606315590132e-01
2.031591640368023977e-01
2.338810416930691971e-01
2.260576489812752554e-01
2.274200807394387291e-01
3.158577030461016122e-01
2.199642395508862591e-01
2.343812468423073225e-01
2.120106312792866543e-01
2.107868692997297011e-01
1.738068353003226485e-01
2.077992972268799532e-01
2.121983411487602944e-01
1.700198381172006723e-01
1.789295641073841425e-01
1.953841340725071818e-01
1.887176052545952443e-01
1.796991708343613769e-01
1.869815228573819821e-01
2.348424548822230506e-01
2.018403761246123918e-01
9.176303431013149714e-02
1.773887293545215182e-01
1.613315783953189753e-01
1.856218365116882318e-01
6.873593023018900738e-02
1.270498256061299014e-01
8.786303373571069386e-02
1.412183525770606685e-01
1.363249968891086517e-01
1.379510148986096418e-01
7.712129228231537348e-02
8.937323657178877778e-02
9.055405016147585751e-02
7.213655915499272986e-02
8.449972440439618149e-02
8.582339698044191834e-02
7.895688834992177496e-02
4.638012976848548963e-02
7.088272849734852943e-02
1.209293094350120529e-01
4.902191282193058691e-02
1.051013328995027141e-01
5.746512363779114618e-02
2.469448202559731270e-02
1.447356866846143120e-02
4.669394842446306093e-02
2.346992533235594397e-02
2.457932500375920037e-02
-8.184716491308266506e-04
-4.639210531391879666e-03
2.063661179215035141e-02
-3.269622122531706809e-02
3.794272784275319610e-03
6.749932804849062551e-02
3.411526238088936902e-02
1.674962018777773065e-02
4.317522073269374622e-02
-3.203601880009175618e-02
-5.562449276714612201e-02
7.969529726039578654e-03
-3.202851214686512626e-02
-1.363264610010774328e-02
-2.329075320012412645e-02
-1.531445764553520522e-02
-8.433673290931148481e-02
-3.635712206225223675e-02
-5.235797820418485599e-02
-5.365016498856255145e-03
-5.378761514020641288e-03
-1.980447417255621831e-02
9.593313401304065513e-03
-8.386747001645766808e-03
5.459422823009540959e-02
-2.498324959470683143e-02
7.431020738316515550e-04
-1.017406126598044414e-02
-1.421369146671944486e-02
1.043982100042965822e-03
-2.344991150966036636e-02
5.167826022129825420e-02
-2.544048498350023543e-02
2.696194990202446795e-02
3.345080591809369147e-02
-4.881931732297448145e-02
-1.458200275917703737e-02
-2.546704500853579772e-02
-5.062671052054122656e-03
3.657113796417887919e-02
-1.545924935003607781e-02
-1.943465918821585606e-02
-5.394527615771887996e-03
4.595009387278554264e-02
5.418829223440204540e-02
-7.029956095522683912e-03
2.294763382673088020e-02
7.625000883231231041e-02
1.566182620126664593e-02
6.740266535746795851e-03
5.090208213707613644e-02
-1.492141920647739595e-02
1.668814637565656234e-02
9.779929192515302017e-02
-2.281995538376887372e-02
1.064239596939208499e-01
6.627922536176125701e-02
7.091033165028480523e-02
4.405867718774179181e-02
4.614715239858432905e-02
2.840773038127097222e-02
8.792680477581774068e-02
1.250737521269310315e-01
9.865807751487125354e-02
7.120848204256459424e-02
7.787140326974756332e-02
1.235336979952438852e-01
1.274869093705607859e-01
6.095367715314813778e-02
7.958079552708913207e-02
1.282336020773681140e-01
8.649613467660657862e-02
2.810658891884833255e-02
9.362085833853654726e-02
1.030370993832724624e-01
7.459852307510136948e-02
1.130682738842779395e-01
1.701414556381471710e-01
8.523340124950903873e-02
9.839984567126017212e-02
1.001710226170077489e-01
8.106712215691251611e-02
8.504183986641744575e-02
1.616898150881713736e-01
1.102763463075328021e-01
1.076585616887815733e-01
1.641938090921544746e-01
1.955125273203605629e-01
1.600945571146346891e-01
2.415253951327659965e-01
2.304653218069533105e-01
2.974534717831627262e-01
3.302485449187295696e-01
3.296099744853335234e-01
3.539924089164838694e-01
4.243261816693166821e-01
4.543791220569245448e-01
5.867240662861927802e-01
6.234103605263170422e-01
6.355462270475662478e-01
7.464963856195026004e-01
7.441011337949284821e-01
8.239671238867019021e-01
9.180416759266835092e-01
9.419892695720613052e-01
1.006947037959326163e+00
9.583944823968119087e-01
1.105020496757876503e+00
1.050051141321636905e+00
1.043565357797519022e+00
1.078792877094295388e+00
9.894590117921320260e-01
9.683512313500824975e-01
1.011799532678997249e+00
9.781516529124203441e-01
8.928367285119136465e-01
8.462058454977939848e-01
7.334528247282877667e-01
6.540493766592266889e-01
6.520179251885647176e-01
6.248203492514676771e-01
5.110549767330607729e-01
4.629010913155007789e-01
4.606262074603256207e-01
3.843789403802168603e-01
3.038986148050304426e-01
3.120969287212763121e-01
2.115228955576163306e-01
2.280724862413210929e-01
1.632077404957317235e-01
1.573225733055286790e-01
1.246748790630809178e-01
1.573391330363275442e-01
1.191221711182532811e-01
7.694668357825003302e-02
5.324880930740288898e-02
3.980955189067303390e-02
9.311982940222002236e-02
9.989741649815903068e-02
8.525853194117982703e-02
1.262585397337629700e-01
6.404527954861642669e-02
1.023398116075763670e-01
1.934390956846373522e-01
4.335537184564203228e-02
9.047272242444207024e-02
7.369375981151703170e-02
1.650573324253853669e-01
1.044704908307361457e-01
1.779716941156772869e-01
1.215142382905244345e-01
1.593153695443785267e-01
1.818842551176844957e-01
1.528146703010318797e-01
1.525544215093066203e-01
1.941818829624158138e-01
1.428722232845167917e-01
1.760945477492341649e-01
2.677590393678487835e-01
1.705399622042383934e-01
1.711812085415082563e-01
1.702083276121080235e-01
1.759827841550976324e-01
1.662990904711549311e-01
2.721579083240469599e-01
1.998494720381153444e-01
1.818280025840647296e-01
1.846643630692474114e-01
1.625682940644784247e-01
1.805889868729093350e-01
1.656024323696508593e-01
1.894550506436205595e-01
1.705353742062564182e-01
1.599071702966697595e-01
1.621978586372623821e-01
2.060866847639652721e-01
1.815475310942568643e-01
1.775978518307427811e-01
1.939569825413166859e-01
1.487522232210593265e-01
1.860336777785454865e-01
1.275791165247673054e-01
2.275716795659039893e-01
2.565817289423764080e-01
2.080206209251020955e-01
2.049866700393767061e-01
1.666922023070405434e-01
1.625593056794559232e-01
1.603315332379944558e-01
