1.012048374219988833e+00
1.040827885775936101e+00
9.329540269637133232e-01
9.599709233404618569e-01
8.916223934080570457e-01
9.037617343381546542e-01
8.389796392730044516e-01
7.483197567290401642e-01
7.178381035331887761e-01
6.198009110844046043e-01
5.661085402675473111e-01
5.880933316892003049e-01
5.329560918951729009e-01
4.406479098925512039e-01
3.689065939959016438e-01
3.868850905060628453e-01
3.402974251893896018e-01
2.467775948096385397e-01
2.241871479152360291e-01
2.081527624809197952e-01
1.828019444656301951e-01
1.551293076435517060e-01
1.423269120923597031e-01
1.250212599427697746e-01
1.144095230704234856e-01
1.271254648726872494e-01
5.794898552909074491e-02
8.468302469512664632e-02
9.429805707119623404e-02
9.695358939861239977e-02
1.881628969256217421e-01
1.082131867370090816e-01
1.609786989056935236e-01
1.194833296341381162e-01
8.807783059784327073e-02
1.267608328196850875e-01
1.251385368841566592e-01
1.026893257522776826e-01
1.336709662977004776e-01
1.210308614215698519e-01
1.545436536167527075e-01
1.711978993203255028e-01
1.477304089090334394e-01
1.620398505612646312e-01
1.909570160447249809e-01
1.888954311566723165e-01
1.717715946254086135e-01
1.619289131855649044e-01
1.530395474452556637e-01
1.600878460742720666e-01
1.633977025366210034e-01
2.088201778191507985e-01
1.997664792011599466e-01
2.214226184106435347e-01
1.476309614710072382e-01
1.973115038853545944e-01
2.502509842451672295e-01
2.173976427569368208e-01
1.768442247826991220e-01
1.958441529822786686e-01
2.386103371441678778e-01
1.670720051202474465e-01
2.010183462230788198e-01
2.320436058507679700e-01
2.247262103204876182e-01
1.977374507638521572e-01
1.785740141858104257e-01
2.329920685090323129e-01
2.083499962961375407e-01
1.572298395735204635e-01
1.671473994223094950e-01
1.565541945809411362e-01
2.190990240573222336e-01
2.089696957679299527e-01
2.295828322588357451e-01
1.639023785160459434e-01
1.821442979421968311e-01
1.283726074146791518e-01
1.615107960323419745e-01
1.560501357697440250e-01
1.903767423089673672e-01
2.237327569597623578e-01
2.210675311740412374e-01
1.084148421133709350e-01
1.346518157195053522e-01
1.724173184529100566e-01
1.188848657371039397e-01
8.708550975089210389e-02
1.138121201240368113e-01
1.881922925188457829e-01
1.586116102750868562e-01
1.411976879689047504e-01
1.007791145045066339e-01
1.193961852740312163e-01
1.137432371364467953e-01
1.313533965305560824e-01
1.067078088128188273e-01
8.112474562315465099e-02
1.232310823286325713e-01
8.746124473690583545e-02
3.239060188729801781e-02
6.808762116453309643e-02
6.900132775422096465e-02
1.330740426183314451e-01
5.923805935321257293e-02
4.714487190125388888e-02
4.252282570151081492e-02
1.780006073802705563e-02
4.861054051269612930e-02
5.246323245252640377e-02
5.542038798080602818e-02
2.567044440649571269e-02
3.686882716427884732e-03
-1.514729983763498516e-02
-1.386934596554204729e-03
1.342899905776804431e-02
-2.857364556494833979e-03
7.934511867548156572e-03
4.708300025296142943e-02
6.074610173147862446e-02
1.444817260560175842e-02
4.470079422435349614e-02
-2.821604925515447393e-04
2.855408124611373555e-02
5.555408869507215408e-02
7.200947813776226170e-03
-4.417344442266875337e-02
-3.774443136223638862e-02
-6.325990259400340876e-02
-2.830401755041722298e-02
1.080455297725391173e-02
2.234038632601489244e-03
-1.225704022193628909e-02
4.048760131780739652e-02
-7.010148022425763403e-03
-3.437216863400573141e-02
-2.694465353274352881e-02
-9.756076769058031478e-03
1.434407524419784724e-02
3.936428639265149992e-02
1.636987912484319518e-02
-5.524161076363859335e-05
1.394730492527922194e-02
-5.701354522509483047e-02
-1.895520823313507144e-02
-5.682824821342090382e-02
1.701996160056911192e-02
-2.546103428883871381e-02
-5.142688280518044330e-02
-3.864293031595171513e-02
4.916235572416149946e-02
-5.281633633325787114e-02
-1.665162836373533170e-02
-1.929952327619903485e-02
9.227931328735554384e-03
2.904889786018658923e-02
-2.262486546798789938e-02
4.272891404537450255e-02
6.500830462315429492e-02
2.148396902044284046e-02
-5.765131485362035013e-03
1.201900249876228927e-02
1.739500700412133227e-02
-6.166581005605378113e-03
2.493281530773789126e-02
-2.770833188545341816e-02
9.110095907690145267e-02
4.953481687489509622e-02
5.126121005082820425e-02
4.867024114595978890e-02
3.316847361866714916e-03
7.526953741766120864e-02
5.314643130245370883e-02
4.661498143461806354e-02
4.852447351440007661e-02
4.120028772923564619e-02
6.287248627208055773e-02
7.077137591925600213e-02
6.042777913205875373e-02
1.215162017464902489e-01
1.264432504716196670e-01
1.353519013309933405e-01
1.017511135925112803e-01
1.061609404648794497e-01
3.132841998990933130e-02
1.180171271036498382e-01
1.175201434597226008e-01
9.882220804878599774e-02
1.080703959820294158e-01
1.612801410838523575e-01
8.640984230651825582e-02
1.306237378492111356e-01
1.209200320642154491e-01
1.587818212392170525e-01
1.101414215866507451e-01
1.110091785821381571e-01
1.997671312379018516e-01
1.420044117498815428e-01
1.205727480622979797e-01
1.386433661107307758e-01
1.292900829291794562e-01
1.029060631924444413e-01
1.739904804120689097e-01
1.674653783332021029e-01
1.247802502800689356e-01
1.789494615493719132e-01
1.550879917733160307e-01
1.666840489693850458e-01
1.914534594936716239e-01
1.763086919813029729e-01
1.693604338412166288e-01
2.062543830957227209e-01
2.179113993073779343e-01
2.506806039396123342e-01
2.530660310710639571e-01
3.303574375675382702e-01
3.344347320389809974e-01
4.111886741720086058e-01
4.416592513861390401e-01
4.720315280220421239e-01
4.992029355248233657e-01
5.899124354930677105e-01
6.418417148669516292e-01
7.018240018760676380e-01
7.625027117785398989e-01
8.245682150408959465e-01
8.528368174468388130e-01
9.211524741998997623e-01
9.250906535061433900e-01
9.674663742625355667e-01
1.034677710119638938e+00
1.006458476720224482e+00
1.108867301807234584e+00
1.060937596904198532e+00
1.061675838970635333e+00
1.089860894638059907e+00
1.005173086531435001e+00
9.554053239945197173e-01
9.204810644182431778e-01
8.485227082679754895e-01
8.381987233780316959e-01
7.334705429904793128e-01
6.293249040954992379e-01
6.296630993877287974e-01
5.610983379310811037e-01
5.131573037446049979e-01
4.427095779677488463e-01
4.231551018842202860e-01
3.671711617088460056e-01
3.558241724072234158e-01
2.899835137201997592e-01
2.754396646629587719e-01
2.896024715595561516e-01
2.232771951901971197e-01
1.696009977160006510e-01
1.619341620765289147e-01
1.867502896319852279e-01
1.961164496621503883e-01
1.488289957929497531e-01
1.388100385209410370e-01
1.794319113445406733e-01
1.347459588839063638e-01
1.571165449234132871e-01
1.294599131099544720e-01
2.187555908463671983e-01
1.342902292664439334e-01
1.908568613852064666e-01
1.964965859683557858e-01
1.446298668573687551e-01
2.012251277780014169e-01
1.660729378416639090e-01
1.946454059790111990e-01
1.675538525499990494e-01
2.086501801099294173e-01
2.077471214607055083e-01
2.111085314468177931e-01
1.710062160622360938e-01
2.258336139741462245e-01
1.922299493588419950e-01
2.107605253490385799e-01
2.185606447515610617e-01
2.096811595206612977e-01
2.844308470183895543e-01
2.614567863086853516e-01
2.011174366419081483e-01
2.653718542604803221e-01
2.265313488001869935e-01
2.318191875437243255e-01
2.696788978345467380e-01
2.520343775863161939e-01
2.985545399170544956e-01
2.322255115488976451e-01
2.809087650270019054e-01
2.447639491398325984e-01
2.646583113979003032e-01
2.502015556211623637e-01
2.668897796353019158e-01
2.384590772733274910e-01
2.164855226876357397e-01
3.105709553609651286e-01
2.413806533654000996e-01
2.850689985581889574e-01
2.371617662707305174e-01
2.013485364638554487e-01
2.427207598814945799e-01
2.359313056773793271e-01
2.695278642726108287e-01
2.423555816341836922e-01
2.023342712505912799e-01
2.284269716305446507e-01
2.442148206272776734e-01
2.187035359494070574e-01
2.417187632163047273e-01
2.308575046313885992e-01
1.917521943920411920e-01
1.837577892288638770e-01
2.165530728422559170e-01
1.838782050070692231e-01
2.147446167207078260e-01
1.933210578119985978e-01
1.916359594198267791e-01
1.760173554872357382e-01
1.308475513521520917e-01
1.434405835059280598e-01
9.422198932503228486e-02
1.574218490052056441e-01
2.116874350885450673e-01
1.419732973177628421e-01
1.641872774444763650e-01
1.721069316670288951e-01
1.682036314551619005e-01
1.428310040702105987e-01
1.000789838718950525e-01
1.558903695803013079e-01
1.239969132834536220e-01
1.742975874435328532e-01
6.931252227268112909e-02
1.182524433253716589e-01
1.193222281815967956e-01
8.467841843128925960e-02
8.409088608767109618e-02
6.802636784230879641e-02
1.449505047064152119e-01
8.636901881159547711e-02
5.232072279659938374e-02
6.850591841417821848e-02
1.053690619930495731e-01
1.056882442836303698e-01
7.437518978715530749e-02
4.889875542944149833e-02
9.414125543749440883e-02
6.723909484676604542e-02
6.944515988434341036e-02
7.999199497011424964e-02
4.588594635374061703e-02
4.249706137963532582e-02
8.749639647340616555e-02
7.117926062853886793e-02
4.142582367364658347e-02
6.049536752744677504e-02
7.428171708188435751e-02
2.464908318161120396e-02
2.321739463598627637e-02
7.516072211925239888e-02
9.329238741035376925e-02
2.529161203429754201e-02
6.615973410267286803e-02
3.824188430826103852e-02
5.216900912633769954e-02
8.150882799564593273e-02
8.599064216520789505e-02
7.487032507534366332e-02
1.463123011432609921e-02
4.821543532221338191e-02
4.620711148371635379e-02
1.530683119561215833e-02
4.675673621171377858e-02
5.234010574919692460e-02
5.535760126124400493e-02
1.887059365788875190e-02
3.615454280845667445e-02
4.054990726811761453e-02
4.143932129372464301e-02
2.219262685366527738e-02
7.555910216981900906e-02
5.416677994304776311e-02
2.133774442972758908e-02
5.716864281765739186e-02
7.772389882999883315e-02
1.122959417429401086e-01
6.658002354722433735e-02
1.014852998972039511e-01
3.017249108444109568e-02
1.080841036589529069e-01
6.993337056806352148e-02
3.317839839448812750e-02
9.213044925507873906e-02
3.499505914990237027e-02
6.653206709424430709e-02
1.023160521895303265e-01
5.253657256066233960e-02
1.121853235971880525e-01
6.642891401959927222e-02
1.354012042174274899e-01
1.039204690999070979e-01
9.214556987730673776e-02
1.415935708020275574e-01
7.380640176129546481e-02
1.519545808654169383e-01
1.190904305738999525e-01
1.484541187858320621e-01
1.532439491781613927e-01
1.521240434948066822e-01
1.085211474510805740e-01
1.273312748844148412e-01
1.435841255124415405e-01
1.669506570101649268e-01
2.276865712239545536e-01
1.913884571881547814e-01
1.777390537609005450e-01
2.150759842684028811e-01
1.922664323160956645e-01
2.131106382710271085e-01
2.013703231629736246e-01
1.314062664234314504e-01
1.808898372799188081e-01
1.608046830979276975e-01
2.052217365251833014e-01
1.544593992378555380e-01
2.409042934880675779e-01
1.689833601428296084e-01
1.830184921528619779e-01
2.197674346262540879e-01
1.289446167827453249e-01
2.203845811843192226e-01
1.896491494883014717e-01
2.372484513126549566e-01
1.797308906434684772e-01
1.979838512112473692e-01
1.658238157505683430e-01
2.138454215345156062e-01
2.964164099815151387e-01
2.473471031907447104e-01
2.635462048580391459e-01
2.881310904116592964e-01
2.858394120204978406e-01
2.576279125759409205e-01
3.144849623625985968e-01
3.568976626823530118e-01
4.028783990994337372e-01
4.255976957454798426e-01
4.917438464436011958e-01
5.423402408123030316e-01
6.221243809811041192e-01
6.277824263501097235e-01
7.310933157170513841e-01
7.691058681683160536e-01
7.724314313819365951e-01
9.192517368500856545e-01
9.274524872079391580e-01
1.000180463946971798e+00
9.593496303671241732e-01
1.048264935349910720e+00
1.089049398791959833e+00
1.118597926316375668e+00
1.105188640412641199e+00
1.140356886797450731e+00
1.067738056262552471e+00
1.081402442394722829e+00
1.030259940445923839e+00
9.918655498058998043e-01
9.799008314997589286e-01
9.326904209244714083e-01
8.735848697997464773e-01
7.950313464731381119e-01
7.260903387840553780e-01
6.755251119111252978e-01
5.969082652770963948e-01
5.307695611451175299e-01
4.966631118789281985e-01
4.489021321321815527e-01
4.199709762765146404e-01
3.650888188291938063e-01
3.279658581057336986e-01
3.011513170061584921e-01
3.183206285926089008e-01
2.842955584922489676e-01
2.771680412231189439e-01
2.288119132137546863e-01
2.785761000572216095e-01
2.129626911610506823e-01
2.338305939302862679e-01
2.022137291833467354e-01
1.662553539072641473e-01
1.771612133235339059e-01
2.063633751979194186e-01
1.764481316528899169e-01
2.789254947886840030e-01
2.162666577561678793e-01
1.970398250991817757e-01
2.173373817825575427e-01
2.009979709267324388e-01
2.101170077869677633e-01
1.777255634772600679e-01
2.086723811409391116e-01
2.227463736861138299e-01
2.292089318394533448e-01
2.666557476586896569e-01
2.689288983628789764e-01
2.658627662212607046e-01
2.867353290413561795e-01
2.503113872380495208e-01
2.704454337603673930e-01
2.656727197289598941e-01
3.345796632489385636e-01
2.561339675933768656e-01
2.639779916314390351e-01
2.697350283667639959e-01
2.483023933550930762e-01
2.915609461523152590e-01
3.058898912030127426e-01
3.365613922424983695e-01
3.181671923849144767e-01
3.502506933626522989e-01
2.969921140659300685e-01
2.507920509808916898e-01
3.038231818304958365e-01
3.008057661127340188e-01
3.408971911511268216e-01
3.322833729097043332e-01
2.655284901595570402e-01
2.910333123729895721e-01
3.222088461126355052e-01
2.984029842694064238e-01
2.673708678130369831e-01
3.310035348512175291e-01
3.092156430663633992e-01
3.371739526917441054e-01
2.553677328386967926e-01
3.041945483112188930e-01
2.371462343129529804e-01
3.175990132084502426e-01
2.721604226322091313e-01
2.543000113910284798e-01
2.447696542535553466e-01
2.600984008852853524e-01
2.750189657001967936e-01
2.847277660032940805e-01
2.604055957009105970e-01
2.659353101480572690e-01
2.499631127173101430e-01
2.253202024739457687e-01
2.577245541410003171e-01
2.212918873407835052e-01
2.184416920594085820e-01
2.184025455827104112e-01
1.949960307766894496e-01
2.404001302073706103e-01
2.047404310871849265e-01
2.322800699191605589e-01
1.759741454018088624e-01
1.444015571181060942e-01
2.100353811327527742e-01
1.593885116599789709e-01
2.100147664159192074e-01
1.730155045417453574e-01
1.433567522071846068e-01
1.435336314846233918e-01
1.520495744653511672e-01
1.546290768048565467e-01
1.680976293940886213e-01
1.271293688212644657e-01
1.101730270782183829e-01
1.256181117894146493e-01
8.791337653852029921e-02
1.076030672921228087e-01
1.372435169220053985e-01
1.452786459503700445e-01
1.161837325285624001e-01
1.043259238452123455e-01
1.660501227664000490e-01
1.117624793273271633e-01
7.338331237268755358e-02
1.549027789375291286e-01
1.286931495598123976e-01
7.679904264167430883e-02
8.719466967738789820e-02
1.019090186594203418e-01
4.225827474029044545e-02
8.656925733241684073e-02
8.330362287254552967e-02
6.032513424044465278e-02
5.948588185716131849e-02
7.940819320824900329e-02
1.094384143194647996e-01
5.194714070855724342e-02
2.585254105543879563e-02
2.939025892308880575e-02
5.264545383101518899e-02
5.866431947133564362e-02
8.505620825113141548e-02
8.071488380688883468e-02
4.366740884834541953e-02
3.270267349832489678e-02
1.074502217225054290e-01
2.219105264194482646e-02
-1.179611571610105630e-02
4.852755897983354605e-02
6.694506731337669658e-02
8.633784941136413149e-02
4.558231277412948257e-02
7.103383546519370650e-02
8.539677006052356911e-02
-2.031950971569107534e-03
1.060128266543826636e-01
5.033276184531792347e-02
1.142917248622895843e-01
8.868381295023533561e-02
5.630255892787826982e-02
9.457431560198734100e-02
5.603077517449742834e-02
5.576653110295945459e-02
6.154527573983764599e-02
7.787102121963199175e-02
8.358106327423861504e-02
8.032582680378992646e-02
1.290670074678537671e-01
5.558367620008597410e-02
1.269521765904451371e-01
5.454194795368065563e-02
1.157614050702536201e-01
8.094632009783125914e-02
4.516995245761588895e-02
1.434377336838863481e-01
5.920853093214380886e-02
1.504368739369225383e-01
1.594757703964205797e-01
1.451212238998867421e-01
1.175999931136846033e-01
1.244123764947521193e-01
1.477909391154351992e-01
6.828118949577419161e-02
1.871409858022791972e-01
1.438008329153248888e-01
1.633641654991523362e-01
1.170687334692735587e-01
1.621214570242163200e-01
9.864158036032272259e-02
1.999492783301963228e-01
1.467480527129822188e-01
1.203650441041495545e-01
1.775752218710981434e-01
2.500274511789394305e-01
2.325364407305538783e-01
1.741851829439149679e-01
1.518126633743407672e-01
2.124213481243582557e-01
2.086655497105998625e-01
1.471840028610514328e-01
2.259763656764163242e-01
1.903632776069380528e-01
2.485051904093850961e-01
2.073845517084021151e-01
2.343410862000964434e-01
2.143821805747377907e-01
2.385221485634228533e-01
1.487194343312156775e-01
2.568147812289393594e-01
1.902268725486667422e-01
2.164127029249186263e-01
2.464786970255249399e-01
2.139831623110760583e-01
2.014704774470311432e-01
2.432689193404094508e-01
2.204429200039849657e-01
2.410574173026019951e-01
2.755126692343161654e-01
2.989849037640245344e-01
2.648429686049120768e-01
3.259521129683436991e-01
3.566227827514030224e-01
3.272590977919083155e-01
3.892845646236295365e-01
4.686837804405932784e-01
5.454271434542665720e-01
5.540058338666999926e-01
6.040226267991204434e-01
6.779852191892259405e-01
6.985032451092605399e-01
8.268576288935974850e-01
8.387453263321017483e-01
8.992915876116556184e-01
9.894243596645281302e-01
9.929535889952532113e-01
1.070973022311493272e+00
1.062409203156503334e+00
1.027971779094627669e+00
1.110920995883428741e+00
1.063219611260251884e+00
1.084124411210711791e+00
1.096903646419485234e+00
1.059897278643378238e+00
9.771898312294799993e-01
9.647334075986648827e-01
9.733187560158205187e-01
8.455575758796552988e-01
8.068859990732559773e-01
7.053834079800365142e-01
7.073241273990322764e-01
6.407305211372038567e-01
5.839935538528564507e-01
5.645598367592052913e-01
5.111372336327978383e-01
4.307963229256356885e-01
4.057214898673527914e-01
3.420170661216820895e-01
2.826864458674394620e-01
2.856379733579564317e-01
2.649429053311624926e-01
1.924922716474440354e-01
2.382458301126690881e-01
2.675797591976762368e-01
1.920614791644226216e-01
2.473548745083876121e-01
9.904510700588922689e-02
1.441777559536076558e-01
1.554273370194676207e-01
1.725597539753785936e-01
1.809934535629021957e-01
1.390758855816633943e-01
1.780640976237069517e-01
1.727774095374083607e-01
2.254687662797659198e-01
1.690072046466125077e-01
2.301470969464402827e-01
2.315414129082588590e-01
2.018094749666334287e-01
2.027990117462762920e-01
2.603190227265027024e-01
2.034358959991388049e-01
3.014468679348289437e-01
2.498356447553420068e-01
2.545168861619488410e-01
2.145034840138696497e-01
2.832317519467909550e-01
2.664233212992892508e-01
2.015122582385171501e-01
2.116358736889255299e-01
2.904753758376076300e-01
2.767700014990233104e-01
2.733343171145202755e-01
2.458931434432687357e-01
3.039314611185861548e-01
2.542037433000727265e-01
2.966071709144368906e-01
2.652812948767305223e-01
3.083695247072983925e-01
2.663554550769819396e-01
3.175252428628815293e-01
2.950596506361214399e-01
2.710848440747891108e-01
2.512502788421368538e-01
2.805767821207236223e-01
2.548983884540882427e-01
3.080610584333464130e-01
2.373824673434162535e-01
2.325597178384247177e-01
2.813117893212972453e-01
2.573827387580608916e-01
2.449802503522718888e-01
2.666574928795409360e-01
2.599359457180803190e-01
2.178240440326840999e-01
2.797776073822605958e-01
2.318415740354012600e-01
2.190495962708968736e-01
2.661355110398336277e-01
2.228170533713906831e-01
2.537496827391551024e-01
2.367490098196193826e-01
2.198469555852858581e-01
2.496814055573927105e-01
2.337781938240721946e-01
2.123605680999013368e-01
1.930614942845015614e-01
2.285359964249028542e-01
1.968216772271497716e-01
1.995717736023142896e-01
2.211394423667910614e-01
2.025285177292145966e-01
1.410501385873921543e-01
1.813716520140738753e-01
1.875678164741305387e-01
8.276483987812753573e-02
1.474232972425945642e-01
1.569510377417215330e-01
1.370106724779770468e-01
1.383846741106488365e-01
1.596187655853071874e-01
1.214328926570579226e-01
1.913841467074857139e-01
1.146235318595162644e-01
9.958976258503714207e-02
7.581833071259413970e-02
6.782178735189320351e-02
7.522822045932037183e-02
8.318917527842577264e-02
9.451857735810770267e-02
1.027827596283694828e-01
9.438670909235868933e-02
1.063060375214444631e-01
9.212390079273162502e-02
7.582148014453035656e-02
5.954872407198716355e-02
1.329291542733987697e-01
7.256950269340797788e-02
6.183896968674020000e-02
3.814348798432595777e-02
1.160855939169735257e-01
6.767794082812889078e-02
7.092248513273483046e-02
3.879814440676578741e-02
1.453292764293034889e-02
4.965121610099179628e-02
3.762115627968160014e-02
4.109487542453986453e-02
4.532923080529786819e-02
1.549749899261849972e-02
8.155345460775448654e-03
9.050745118553261623e-03
4.570999721256191473e-02
2.923916423163465048e-02
9.262527484315578527e-03
6.944400317765285491e-02
2.823599788577997594e-02
-1.042712707202591779e-02
6.260102554053341428e-02
-1.811900652762358024e-02
4.202505411442429215e-03
1.460387582082583839e-02
4.626009098694610147e-03
1.412708565244201811e-02
-1.201244745739664561e-02
2.190016082584481105e-02
1.594531460302930914e-02
1.564397255036684489e-02
5.101137773040050061e-02
2.386391171457985863e-02
2.456662356632466696e-02
5.745463431667978405e-03
3.261432500473985391e-02
2.893426446770686750e-02
4.808688688140084350e-02
-2.180955682929356515e-02
1.946960555047601293e-02
-7.396608326167442710e-03
6.266763645967225738e-03
3.285481705606711766e-02
5.822720672484655441e-02
5.923806485555095647e-02
5.875287331996640466e-02
3.125180458761770558e-02
4.316982215547997964e-02
2.603697509132992666e-02
5.851327011947646956e-02
2.481164698591953321e-02
7.092093375724912996e-02
1.365499496658889034e-01
1.130267037977526756e-01
7.579284036879169184e-02
6.506123580542846896e-02
4.466718885517793891e-02
1.258616725421100591e-01
7.018247233578446542e-02
5.180888764819178982e-02
8.917890547583384731e-02
9.571230771095072531e-02
1.719524945535673699e-01
6.575526789532670779e-02
1.084049234101355230e-01
1.474513310153746093e-01
1.009109875512343019e-01
1.180260774050223144e-01
1.041157290775642785e-01
2.136410826126486084e-01
1.440622860021603668e-01
1.540633448078097822e-01
1.620961457811460893e-01
1.028036368240099474e-01
1.486942047947634737e-01
1.341943074937740066e-01
1.158955403007651819e-01
2.018898853422271822e-01
7.612531563521340860e-02
1.671574922264777163e-01
1.315239853799684555e-01
1.309271502368765105e-01
1.812651355181252866e-01
1.467891217871478415e-01
1.483766567361730349e-01
1.398688993499436761e-01
1.278211209382613955e-01
1.320467427006006278e-01
1.502056839935000387e-01
1.536720432975633155e-01
1.579853217410404909e-01
1.443874451635108747e-01
1.261733332660714413e-01
1.418528286863877386e-01
1.565478273473738802e-01
2.037494414504087137e-01
2.628712931203242009e-01
2.850181245934422236e-01
3.747628407155436103e-01
3.065085546165999819e-01
4.136113114856745931e-01
4.382759411561675811e-01
4.346363277453241802e-01
5.473436829558896433e-01
5.875089834212240403e-01
6.485760337529461461e-01
6.843990639293571210e-01
7.566288036214927626e-01
8.688536060325069421e-01
8.231159511953471952e-01
9.243646740403314022e-01
9.746324035010638376e-01
1.015957716207867012e+00
1.053690375957114123e+00
9.894348137114754582e-01
1.102361042580185302e+00
1.044503924072559986e+00
1.017336912050484932e+00
1.029064974362852825e+00
9.848477490375078247e-01
9.697332302902773593e-01
8.687774937376717688e-01
8.872672495320939046e-01
8.536277366049808135e-01
7.964904891422354138e-01
6.999161752961940985e-01
6.201752688000565783e-01
5.922334694592398252e-01
4.885878361381656987e-01
4.324162408530637935e-01
3.973798146247388141e-01
3.853262426031201504e-01
3.719178179722425481e-01
2.724326207800310540e-01
2.746311878230349723e-01
2.291477214342291235e-01
2.235124397632038407e-01
1.861249153197984119e-01
1.520825241997956767e-01
1.676496146181606084e-01
1.280385730355449447e-01
1.198551782098500884e-01
1.195951729844971084e-01
1.155514983291443254e-01
1.015076694411993496e-01
1.018881486043705792e-01
1.137238929786641567e-01
1.854378700312986350e-01
1.891017337653665142e-01
9.892705273606661187e-02
1.411765235770026661e-01
1.163470793720307872e-01
1.828228808975953523e-01
1.521256109799521139e-01
1.476940977701523272e-01
1.785609608121590253e-01
1.910057613869548254e-01
1.642014568720908119e-01
1.879058771626414825e-01
1.430682942308467709e-01
1.768723765147718896e-01
1.807488210762672465e-01
1.943989640246915340e-01
2.116496147838229924e-01
2.063966198239564065e-01
1.937871524254115019e-01
1.798448863997254010e-01
2.570421066771848562e-01
2.156020004255909672e-01
2.186590432749562218e-01
2.517342645678024571e-01
2.375747872564509255e-01
2.310137473276787645e-01
1.998679646766736151e-01
2.722852172753165712e-01
2.213095089463518461e-01
2.480620240476832383e-01
2.013353454672799359e-01
2.320545316887299703e-01
1.822111532663828193e-01
2.137678495450872074e-01
1.878836849816626353e-01
2.500272136039365933e-01
1.841174071189172201e-01
2.008547809018124686e-01
2.218695044768437263e-01
1.846882353979688030e-01
1.881530489592011246e-01
2.343919015094654279e-01
2.167151790549688428e-01
2.196324984015203818e-01
2.552228797330987620e-01
1.905242040237087875e-01
2.082465904646425559e-01
1.363203903283895513e-01
2.052081456499511292e-01
1.840391635997391251e-01
1.654439254536840542e-01
1.855544886676908922e-01
1.715982798578753743e-01
1.787910804187366753e-01
2.151920425991220853e-01
1.575232687745244387e-01
1.455040024370135854e-01
1.592281521904042596e-01
1.609723850943556300e-01
1.092535238212101467e-01
9.872870218202725590e-02
1.879885775413067672e-01
1.211082056826198461e-01
1.265094190770326421e-01
1.004531275404169366e-01
8.591018201821434830e-02
9.843337634632806643e-02
9.509279903094824959e-02
8.271781886090018299e-02
1.369625703598357502e-01
5.770324679685655961e-02
3.168581356386979131e-02
-9.147429148128209675e-03
4.336051401129668165e-02
5.515780445146351713e-02
5.301714684050044812e-03
9.974064603681720431e-02
4.922028273427496436e-02
4.296081069430038313e-03
4.893651003601720562e-02
3.525035693138812987e-02
3.189190276034097049e-02
5.556513573526783434e-02
2.856353043108170869e-02
6.295934619381111930e-03
6.059616856629232440e-02
-1.098344001877431947e-02
1.704143922215376611e-02
-3.111305836830783461e-02
-3.430904834858625185e-03
3.225143316814869932e-02
4.813597941670208491e-02
-2.152988895021770363e-02
2.603260088854218030e-02
-7.714216612998807399e-03
-2.690693119386543958e-02
-6.694612778678145359e-03
1.314717730786528482e-03
-6.134588985004624240e-02
-1.914138237191446990e-02
-3.109289036903453707e-03
-5.747086882461789614e-02
-2.725353669337333973e-02
-1.060441987290626081e-01
-4.510023623960046635e-02
-8.778582446773866566e-02
-6.191410535363824075e-02
-7.295463057797603457e-02
-2.388095075877813209e-02
-2.273774569469706741e-02
-3.885754334402058419e-02
-3.719780784154815001e-02
1.831381970123023561e-02
-5.602558459270659541e-02
1.616753105806614799e-02
-2.844598842684541162e-02
-1.211854697493562269e-02
-1.833400195426315715e-02
1.083638057764041429e-03
-7.421185594049610479e-02
4.863971552671715604e-03
3.906329830488176197e-02
-9.129562502984321648e-03
2.931492581313997758e-03
-5.126825613290790506e-02
-2.685615954541091879e-02
-1.877588094068602387e-02
-1.484161685607094869e-02
3.690272479404566042e-03
-3.747801121132267321e-02
-5.922730438531587094e-03
1.323441920883504375e-02
-1.667001201447471104e-04
3.647862637850379786e-02
1.778630118585093622e-02
3.535063184350970000e-03
3.526051677359232084e-02
4.308413044845716550e-02
5.602616271463432135e-02
1.102004217623338556e-01
2.720347159949468296e-03
2.172783210506336327e-02
3.246182654200413520e-02
5.652769946627346498e-02
4.087975348447796253e-02
6.952820357837267984e-02
8.442334414794147590e-02
1.262196531526481313e-02
6.796149226899919626e-02
3.706306132473251996e-02
9.017351716433838482e-02
7.282421665579816294e-02
6.470657779371372098e-02
9.273006510690531834e-03
1.468672056020423611e-01
1.095679947935499360e-01
1.053467672140159239e-01
5.217658314167688410e-02
7.907229852193892183e-02
9.923088426824902553e-02
1.045715228546763853e-01
1.328363503146854918e-01
1.043940310302790136e-01
1.089760675419644831e-01
9.961826775291096614e-02
8.532074175520423798e-02
9.447553159374451337e-02
8.194826299352858667e-02
6.191089322504310377e-02
1.385937904218995098e-01
1.418748966880564177e-01
1.553602313254686396e-01
9.037328960298114666e-02
1.045504336903028686e-01
1.387655420982319976e-01
1.369277509921098257e-01
9.508740918977659495e-02
1.323434808657605877e-01
1.498288592275090481e-01
1.726329011434720728e-01
1.392318877846843994e-01
1.767000091244358140e-01
2.488818349273546060e-01
2.411114442775439404e-01
2.703600440000732408e-01
2.892129305579946297e-01
3.471648175375814938e-01
4.092159084985277917e-01
4.876212107087222747e-01
4.940674029240262888e-01
6.036956927953653906e-01
6.132636634521418939e-01
6.529594650773882236e-01
7.574848991658552633e-01
7.952607184846662847e-01
8.321113563765566434e-01
8.868089188319017158e-01
9.755236258852322262e-01
9.575181856251760992e-01
9.954096783707616636e-01
1.016183086727957541e+00
1.011708860849792391e+00
1.005776340050766882e+00
9.479395308533228315e-01
9.306971849206113756e-01
9.008851192570277444e-01
8.702761059693794321e-01
8.388777593924463538e-01
7.564916252142319664e-01
7.307478463040883998e-01
7.188526820774496784e-01
6.123943485131035924e-01
5.675266576567271626e-01
5.359629299960981808e-01
4.663149574035868050e-01
4.306644111156117116e-01
4.103297151456377634e-01
3.552244810207897951e-01
2.504997836542102174e-01
2.124863581557429049e-01
2.529093742667085087e-01
1.627171478923185310e-01
1.860433664136483256e-01
1.863829093580375296e-01
1.124713141219574331e-01
1.404564861043040569e-01
1.029164215747415539e-01
1.483955592525234568e-01
4.687522347471359541e-02
9.289279807925621135e-02
9.507343729122696985e-02
1.136250475541161209e-01
1.093187951082969928e-01
1.331933109153702888e-01
8.842550262389975435e-02
1.231916966638139654e-01
1.443156070183407857e-01
1.554773642538447298e-01
1.485494138212549442e-01
3.914733750050656408e-02
1.223307488730188547e-01
1.673605916693510220e-01
1.188358282383222553e-01
1.202650630165646300e-01
7.737764201912113171e-02
1.554784811797834121e-01
1.875156346770353588e-01
2.126016635407387834e-01
1.210345278772155253e-01
1.511725452087755439e-01
1.361501936655895306e-01
1.749038274791191172e-01
1.848716420696174534e-01
1.477988466777316046e-01
1.894559549055230829e-01
2.430901788284352827e-01
2.034791945170008332e-01
1.679736191156208647e-01
1.545916293499794980e-01
1.907695413793054073e-01
2.511214890227956298e-01
2.027602015827650872e-01
2.039674572072644465e-01
1.537230496425888993e-01
2.295738325865740448e-01
2.145890999368296470e-01
2.215462116414318450e-01
1.912594128274942851e-01
1.857205843385856814e-01
2.137934153489852718e-01
1.852768536863687587e-01
1.758901439061690830e-01
2.335979115912733273e-01
1.782537883005562707e-01
2.047026419363517091e-01
1.625965274809318406e-01
1.723259016239863661e-01
1.955447792998320500e-01
1.698230179572112197e-01
1.772168847427906813e-01
1.346721298569572012e-01
8.830503889827999442e-02
1.633693349972161757e-01
1.666501981917227204e-01
1.131334442698174181e-01
1.231805037082644994e-01
1.545887076069694110e-01
1.504073432636414687e-01
1.409012604667009561e-01
1.105691440676613568e-01
1.125549808101381777e-01
6.203220430331937013e-02
9.791130347983623139e-02
9.886763891952526917e-02
1.154125278141074906e-01
7.600851083913462425e-02
1.258395355073235744e-01
7.062172302325618600e-02
8.938932958122282335e-02
4.449330863963556204e-02
7.350177379447093984e-02
1.042058816134756039e-01
1.019389162574599050e-01
3.953737575428885320e-02
3.033600068570432157e-02
-1.028525165589086465e-03
2.139000950124826661e-02
4.941361320928740197e-02
3.306464879121030764e-02
5.020868912555809249e-02
-1.632377311502977713e-02
1.428477861240490254e-02
5.047929743584678858e-02
-3.247530287768421453e-02
-1.932256487789724836e-02
-1.239590696364539779e-02
-3.967743442144573696e-03
2.249407084884964825e-02
9.473724577405771841e-03
3.158696230631039686e-02
1.372524510746132159e-02
-7.902684864053335922e-03
2.377894883582643004e-02
-5.894890466024833853e-02
-4.575991815818285235e-02
1.270245123367109985e-02
6.521268285798113851e-02
-6.563132793965670286e-02
1.808393270696643379e-02
-4.633958426702829148e-02
-1.068668683023488442e-01
1.614088620524140733e-02
4.183145899106938126e-02
-3.419531783792859742e-02
-4.165027140817564866e-02
-1.699739098325987047e-02
-4.301977733566358930e-04
-3.781935483152887995e-02
-2.491766257366075099e-02
9.599325484002045605e-03
-4.540101902217272278e-02
-7.155377528329669168e-02
-5.780889058896050009e-02
-6.661962448415489901e-02
-2.493516270977811505e-02
-1.512332526604705935e-02
6.509988217715648173e-02
-2.637630748847553594e-02
1.680140813477790790e-02
-1.762012976135439446e-02
-1.677457460314511067e-02
-1.144932462601296053e-02
-2.565281995560276737e-02
-5.018592757831966122e-02
-3.279910626507152871e-02
-3.227853694145303015e-02
-4.645163929119136559e-03
-1.828447634430037383e-02
-1.418871527315176267e-02
-8.192790658671615656e-03
-3.164220223803902721e-02
-1.649560237958347386e-02
-1.078427052544288223e-03
1.126786472756313023e-02
2.660946332230398892e-02
-1.469934741582532012e-02
-4.923595072478637036e-03
5.303759072531662871e-02
7.306732619114626737e-02
7.622371603639191417e-02
-7.592990827327984749e-03
3.056572497871165583e-02
2.640869233925735582e-02
2.736732018307767855e-02
2.792519082744016751e-02
9.449245259809095632e-02
5.376640066072212870e-02
7.083751978334207333e-02
1.031551928499499504e-01
7.691285618450990902e-02
6.264048788290216274e-02
3.478436842403907076e-02
7.992393223510088629e-02
1.198713178554749736e-01
5.960573479965174809e-02
5.918610141710786005e-02
4.105410888775041373e-02
4.767368082173793070e-02
1.663821891335130199e-01
1.739380511331249379e-01
1.651791217280862145e-01
1.174620735676975974e-01
1.308497817189435697e-01
1.219661078951888855e-01
1.510733692919359328e-01
1.003575534647836998e-01
1.048251561133251020e-01
8.611268448901254757e-02
8.123858904041382500e-02
1.512814814517313700e-01
1.376970242299589697e-01
1.194666877814102579e-01
1.153316298370808402e-01
1.590573901941863266e-01
1.371659148708708476e-01
1.049314651549626831e-01
1.663845270371189511e-01
1.261132652537430010e-01
1.077907655427327305e-01
1.750602982006011221e-01
1.824911104876729695e-01
1.290198678670111121e-01
1.699734789054113127e-01
1.580618360237073805e-01
1.490530199736216921e-01
2.314566560709679088e-01
2.359482867620174007e-01
3.447555187881432559e-01
3.429998019422959565e-01
3.631552669012397261e-01
4.585842977596175096e-01
5.211443798743550238e-01
5.473055009995390074e-01
6.129170503047025598e-01
6.823749831271139765e-01
7.765557203932078600e-01
7.828267281517259368e-01
8.531735393462543948e-01
9.203827324575740709e-01
9.416072940700288552e-01
9.825073057618827210e-01
9.668817856990109538e-01
9.807959677192569226e-01
1.014295273797303665e+00
1.026100439143885268e+00
1.045976763600132697e+00
9.630213335501466299e-01
9.675236195236397441e-01
1.024359372539092927e+00
9.298341556256407570e-01
9.029450583636712269e-01
7.846226839660344066e-01
7.300667822357818082e-01
6.651808364963363029e-01
6.336008616847182973e-01
5.924064711429429808e-01
5.037929632116850964e-01
4.441235503492206305e-01
4.172198904483531146e-01
3.235071628142837108e-01
3.322032979077240711e-01
2.969055520601726617e-01
3.162079277715227899e-01
2.360770753106231634e-01
9.605269676900445031e-02
2.194250868771006613e-01
2.008507151954328218e-01
1.535361265519624152e-01
1.643774691956688405e-01
1.576203245435404132e-01
1.155325760849642558e-01
1.660117383721833040e-01
1.413488690586474361e-01
1.447686534387855606e-01
8.809647994247676861e-02
1.133221175906191786e-01
1.235489057993316708e-01
1.290696031935530397e-01
1.334801616878740216e-01
1.569678817680907890e-01
1.852818326592294562e-01
1.701249308065354016e-01
1.819783963581364516e-01
1.802247309126225328e-01
1.833403265497660639e-01
1.536243968222572587e-01
1.752582691792055336e-01
1.580131607694623130e-01
2.136151985982737145e-01
2.417731726207410781e-01
2.105270443218668630e-01
1.701968588321610687e-01
2.137453737951208188e-01
1.911743289762425357e-01
1.955535055142866296e-01
2.078069409678774682e-01
1.935419557839790639e-01
2.194989927595106527e-01
2.395453351774760875e-01
2.350777526106995197e-01
2.144052743009268736e-01
2.459117909090913767e-01
2.752047651539245576e-01
1.942066287144137426e-01
2.337774896304266881e-01
2.404032567348334537e-01
2.434891150590684783e-01
2.862427996449792844e-01
2.077549536053745483e-01
2.229467234081533578e-01
2.590448591641574261e-01
2.196169136301245606e-01
2.432671491154228260e-01
2.007516300595062197e-01
1.967621905455473053e-01
2.228159175163948458e-01
2.637582062675827288e-01
2.466677081327478260e-01
2.516713051553572389e-01
1.549724794437670472e-01
2.203432221634504251e-01
2.237421997213338010e-01
1.673780676717729066e-01
2.389896888107393980e-01
2.225806744732063691e-01
2.043729012229549835e-01
2.407118554968131208e-01
2.332792603870463277e-01
1.874250988616151248e-01
2.201618143349353407e-01
1.703549352989588150e-01
1.738715091827367498e-01
1.623218883498388221e-01
1.972300465387515078e-01
1.601172123065779940e-01
1.236287634948484149e-01
1.873134658031558597e-01
1.410754102600285942e-01
1.333235037846652316e-01
8.651719842610247624e-02
1.140118582882901910e-01
1.273028199454434295e-01
1.668684437626579420e-01
1.526939499525405974e-01
1.410862744475780972e-01
3.721918666558798189e-02
9.598706547195424987e-02
8.708172912958250800e-02
1.269648494224264457e-01
8.354208300042455237e-02
7.345642014831232913e-02
4.842313605247959563e-02
6.081478935847739464e-02
-1.933645838290851474e-02
2.627377948640548244e-02
8.763568828555771961e-02
7.959278024093870141e-02
4.453504521192259979e-02
4.089989707099164068e-02
9.602957151579946671e-02
9.213182649585589801e-02
4.474068106782401466e-02
1.005032887940773279e-01
3.019184486758283437e-02
8.636732786787505722e-02
4.175526596184794825e-02
8.133722190972525468e-02
-1.041370802938088730e-02
5.590193386483064547e-02
2.026181872553621532e-02
5.713910889031023621e-02
5.366265792447224431e-02
3.829812435447997598e-02
7.803469932972144363e-02
1.541169283689453398e-02
4.744990709682235519e-02
1.932969724074058704e-02
2.631703015343063098e-02
2.456729389278486733e-02
-9.777667242246148790e-03
2.198089550446372109e-02
1.864319321324551040e-02
2.126810855985995091e-02
3.742235974058643472e-02
-6.001105218436621723e-03
1.953971875375650619e-02
3.601027178951244495e-02
2.955571840349790341e-02
2.411072429372455167e-02
6.244726678962356919e-02
5.063414457225676180e-03
4.042128519110348844e-02
3.713589284879668245e-02
1.275400674335697496e-02
-4.168831746218162881e-02
-1.976688380570525844e-02
8.388503709096686162e-03
4.353606141423425197e-02
4.747163265128136883e-02
3.309924405434909456e-02
4.921975619512198447e-02
3.088377725491363648e-02
2.710700086734163169e-02
3.330998940742052605e-02
2.698451510112600399e-02
5.159340865381330243e-02
4.686067901466164226e-02
9.598110313889678114e-02
2.406979354867645055e-02
8.460323326854465864e-02
6.312817627365591155e-02
2.570052422706032430e-02
5.770937713762575028e-02
1.063282346653586230e-01
6.948867427363486504e-02
1.901250137976679550e-02
1.347959470915202629e-01
1.202250722313039089e-01
6.952811573031812686e-02
6.600510801178471887e-02
9.143621372266629022e-02
1.321973871053239435e-01
1.514650118135307255e-01
7.879684352521235113e-02
1.424425582552401315e-01
1.212736150437187105e-01
1.698934728320407594e-01
2.023303821787576784e-01
1.149656178136741203e-01
1.890274728881429500e-01
1.562973026525194264e-01
2.009399292257291747e-01
1.786538234165446770e-01
1.722065430708041855e-01
1.258803891770516881e-01
1.718137510435210624e-01
2.042300494106454312e-01
1.592787403856096851e-01
1.403469039377487904e-01
1.762700673116636696e-01
1.928174448531484453e-01
2.054058034205354377e-01
2.161642457016007823e-01
1.393733103864985834e-01
1.820128312421585848e-01
1.784492785879830401e-01
1.880800905400593359e-01
1.569106866397599331e-01
1.761655608808166684e-01
1.503695252446993480e-01
2.111948750079467862e-01
1.355941761386531830e-01
1.916314367822066767e-01
2.026741058842519705e-01
2.006299960221198941e-01
2.316899046718545740e-01
2.236143915487792955e-01
3.280196341647756975e-01
3.275072901101447886e-01
3.037425334093808438e-01
3.979583053528271130e-01
4.653358134402881263e-01
4.568670848695768338e-01
5.064895149469812452e-01
5.854872677787432700e-01
6.525220629236700987e-01
7.029112670876956903e-01
7.537810928816770506e-01
7.989680491707009669e-01
8.647466842040316681e-01
9.584496262963824176e-01
9.128563702485198439e-01
1.015870925796781954e+00
9.748286027963797284e-01
1.047599027531691540e+00
1.072202633022709239e+00
1.085039991129763015e+00
1.078347443202949840e+00
1.066989301610227869e+00
1.036100155906551690e+00
1.039934409483336486e+00
1.019194810804421314e+00
1.021705206858469772e+00
9.056795222917785049e-01
8.216322753614817564e-01
8.021203461983471561e-01
7.100134473333582497e-01
6.499571912214653358e-01
5.663062930257116712e-01
5.259798348885021957e-01
4.447419431537832923e-01
4.448150316147398420e-01
4.192266040931365567e-01
3.902087792966014157e-01
3.379149599330416587e-01
3.560339104135025745e-01
2.685380512756096461e-01
2.729817226802119245e-01
1.959086522260200247e-01
1.800209835161360183e-01
2.006982064333622806e-01
1.805017487252039976e-01
2.311307047696261885e-01
1.356959230059038291e-01
2.146462477188417206e-01
2.045052599645207914e-01
2.062077012682636268e-01
1.699916664210118777e-01
1.981904089359712573e-01
2.175484164047603308e-01
2.015831893265410124e-01
1.941073158702974477e-01
2.230491570486465291e-01
1.723963653073917746e-01
1.731882038100121812e-01
2.354156534212208107e-01
2.814073509003020557e-01
2.601575122049816224e-01
1.955690171585151016e-01
2.429152036546068927e-01
2.484307508813547727e-01
2.900494669234637835e-01
2.065826086566454611e-01
2.364158644203859516e-01
2.790799261116961860e-01
2.730354726881802363e-01
2.740327642160756971e-01
3.506239426962197703e-01
3.127870644267875533e-01
3.445065400002311207e-01
2.923072784375784772e-01
2.835301869361386284e-01
2.397665198392306407e-01
2.881692737695378259e-01
3.079250621215904316e-01
2.995229288812774060e-01
2.682377578373875693e-01
3.083625149869939075e-01
2.895440222793309593e-01
2.635989716645329994e-01
2.964342285787471276e-01
2.498879990146526120e-01
2.253947975334081866e-01
2.685351216768604998e-01
2.475976289174786071e-01
3.178828650558784275e-01
2.549918796928309916e-01
3.158366198886792264e-01
2.991545829370264586e-01
2.923830018338066106e-01
2.527224768589514392e-01
2.786689011568461161e-01
2.991489751996689872e-01
3.458425695035775016e-01
2.454028640948218432e-01
3.229588077323718998e-01
2.653608737414191454e-01
2.772238463006752029e-01
2.192438271828417995e-01
2.222910190002846953e-01
1.833388887078684082e-01
2.734626054831770237e-01
2.218865468793297380e-01
2.405859362461359174e-01
2.083793720459023446e-01
1.886283432070622601e-01
2.080801247331751092e-01
2.473075252755816411e-01
2.177869519754322414e-01
1.862018085026158065e-01
2.147668306762469115e-01
1.718841540942006307e-01
1.874383125356783586e-01
1.340961309152323144e-01
2.239320390170840558e-01
1.465267963498424753e-01
2.277042020409875689e-01
1.216940523912484196e-01
1.836132204790909273e-01
1.410078796352458863e-01
1.247439579405894283e-01
1.460109933734533016e-01
1.474071034726212037e-01
1.658908176810884871e-01
1.478907533709651612e-01
1.338046708753765912e-01
1.550851280391093157e-01
8.768664439808508682e-02
1.523866720613621384e-01
1.564162822263812647e-01
1.097076153930930387e-01
8.980746564326219650e-02
7.517753324971562789e-02
2.129639701249137068e-02
7.834922882584169357e-02
6.771090380793787222e-02
5.913537166511535770e-02
6.638534926854047780e-02
7.285929125534046369e-02
9.596170662783543026e-02
5.857684597123051506e-02
6.057346712118141796e-02
9.570846721473433294e-02
1.296410573232053554e-01
1.392234848109176748e-01
9.993553826495001069e-02
8.522022790884072052e-02
1.281020147455330105e-01
8.773798262759863187e-02
1.132141764753520630e-02
5.537817708935636324e-02
7.551950142247387809e-02
-1.139687122706649347e-02
6.230894479326224561e-02
5.672953188854450851e-02
6.373135316192569955e-02
5.260701557932848105e-02
6.556615608221609548e-02
1.057864983546582816e-01
2.696823279335083118e-02
1.048476339701199800e-01
3.690820049153509946e-02
5.848959068722886512e-02
9.706617855663043914e-02
9.438864343941583135e-02
5.589000472103894390e-02
6.704375852537310110e-02
7.843217742945757243e-02
6.222255675590691176e-02
6.318592116247701007e-02
2.723364581338032220e-02
8.802856305374368029e-02
8.261778373306161161e-02
9.143700979453711630e-02
6.875942469165258197e-02
1.013530273381993002e-01
1.149832486993682679e-01
4.242881138722325030e-02
9.351692025471106118e-02
1.167865555501416130e-01
1.077798048485241744e-01
6.832919120695869764e-02
8.606132496108037655e-02
9.210384905265721345e-02
1.296091311362616294e-01
1.383145359443038735e-01
1.193019745844338814e-01
1.350972316263993334e-01
1.170517457828895019e-01
1.279901942651432423e-01
1.486873123190161905e-01
1.036190223169165259e-01
1.522492358273139501e-01
1.704553464055317824e-01
1.182418118816578601e-01
1.414803319119587732e-01
9.948036643939489609e-02
2.255906909851518594e-01
2.449260022155532734e-01
2.020515153146675569e-01
1.694356185466329712e-01
1.955076358847467610e-01
1.488108583563974296e-01
1.591888507664852570e-01
2.228383669268549638e-01
1.823487980004228348e-01
2.317471249987897441e-01
1.803824918060676907e-01
2.079682943610696166e-01
2.022198414872429517e-01
1.707554300296802441e-01
1.990478916000951171e-01
2.447706759757111994e-01
2.624684046182341746e-01
2.351684653906603584e-01
2.114397431030815566e-01
2.264901353840471643e-01
2.088447984603615526e-01
1.729600067018401410e-01
2.144272769312620674e-01
1.776769189131693905e-01
1.498341945212975923e-01
1.978410674400498392e-01
1.773079894996701378e-01
2.306016554917869610e-01
2.352177347846873268e-01
2.695681233289782819e-01
2.716084896259542969e-01
2.246702443135999427e-01
2.734571369835823162e-01
3.442709497476498792e-01
3.605730448443291714e-01
3.870727634206646561e-01
4.300367830626143917e-01
4.347533932866276540e-01
4.997111587564964097e-01
5.711694956106982968e-01
5.974805788139985196e-01
6.860795493945748280e-01
7.542833497344867411e-01
7.808423798331428634e-01
8.785950463897466145e-01
9.204094731561263121e-01
9.588269365618710127e-01
1.027384763408826673e+00
1.016931238911221724e+00
1.084275853001891887e+00
1.123026695386958540e+00
1.084647476245526931e+00
1.145325559931088311e+00
1.132530497271612369e+00
1.089889043265024116e+00
1.015306649003076878e+00
1.078000793528295365e+00
1.013821942746634175e+00
9.296435061228160990e-01
8.926543892587223139e-01
8.330299560218512589e-01
7.059627816984351822e-01
6.960317245222975568e-01
6.337336501587902404e-01
6.064493037243242624e-01
5.442875270033665780e-01
4.375649685114761378e-01
4.365217733564745739e-01
4.172927615682853197e-01
3.845377950123224919e-01
2.978688281047194297e-01
3.182176554291633597e-01
2.955052534312458956e-01
2.808694549826316056e-01
2.438397957564867879e-01
2.158612031732427827e-01
2.381789385365451484e-01
1.999847405504599218e-01
2.306954869884301484e-01
2.377014111821699194e-01
2.439475534273489732e-01
1.568332509907151007e-01
1.901905009752451470e-01
2.068248210035615042e-01
1.863614880460019996e-01
2.480122862314217413e-01
2.810297360941789169e-01
2.441458206470558667e-01
1.927433907674406532e-01
2.036257040108168659e-01
2.428023447743373198e-01
2.047231382944550149e-01
2.100194626505506590e-01
2.331029175071079040e-01
2.944308846497399323e-01
2.754387413922105288e-01
2.334527318754227587e-01
2.350759731571920585e-01
2.939575155182163613e-01
1.918158834807302537e-01
2.858066656973800024e-01
3.024418147247993627e-01
2.821103660475323682e-01
2.935161683085511508e-01
2.794379691233512264e-01
2.584902657805103199e-01
2.920900951078493346e-01
3.079315280159857782e-01
3.596714940987064124e-01
2.620143597106741051e-01
3.107912393948665253e-01
3.067200830478237217e-01
2.481936485379344359e-01
3.091703392553454277e-01
2.733975254060302396e-01
3.230086142925076009e-01
3.413362608854614288e-01
2.764701408345078826e-01
3.274450219458881484e-01
3.071172006049155967e-01
2.198304253210088266e-01
2.737427365170416738e-01
2.909820839142662763e-01
3.020909521236220807e-01
2.956483618635116217e-01
2.869914333949430962e-01
2.567019441241832900e-01
2.590102232329137832e-01
2.589957922457138406e-01
3.619776542405888087e-01
2.490658681772403016e-01
2.619542913115452953e-01
2.814351671043489045e-01
2.233040696838597960e-01
2.487034969240688453e-01
2.082795328916322575e-01
2.899569385011829814e-01
2.321103295891992491e-01
2.278870107008473256e-01
2.196905000305285072e-01
1.967845455248962427e-01
2.151348806390621649e-01
1.856684222770606241e-01
1.877609529960860002e-01
1.935208004331346321e-01
1.732239545517560708e-01
2.367415216366040576e-01
1.357802106868817027e-01
1.440689099069867862e-01
1.641270437905025803e-01
1.657632246443376534e-01
1.550194130446072016e-01
1.378374870216399206e-01
1.328756278171039362e-01
1.454656344720300087e-01
1.343256161147491912e-01
1.848544966832091352e-01
1.111240849240788531e-01
1.053999749246988804e-01
1.739536086247695512e-01
1.044974924470574995e-01
1.001512018809927879e-01
1.078384560648492502e-01
1.479032203801008971e-01
1.169107207402974302e-01
1.105723995600415566e-01
7.543256340058732135e-02
6.572628334999409960e-02
4.734082346340988401e-02
4.912267691982019624e-02
1.356962921891433638e-01
7.605793121417420144e-02
7.047539469026001258e-02
5.767461071521085003e-02
6.949441655563673437e-02
1.248469407029902112e-02
9.283743870275182331e-02
4.961162100187248292e-02
9.226809094830668023e-02
1.935900303286256993e-02
5.973057916193562356e-02
7.823990041147785290e-02
7.742938333360091518e-02
5.173888613610108655e-02
5.221321887442569032e-02
7.287740030414160963e-02
6.899867876687038049e-02
6.354790220387689093e-02
4.902168067924512346e-02
2.981520117740556891e-02
-2.127727320842439859e-02
2.173404317950990844e-02
3.938848041138281325e-02
3.557837263880688633e-02
-6.939444382851964882e-03
1.273164510951426548e-02
6.782996002428114124e-02
-4.188323980367503196e-02
5.774850267875213106e-02
4.495840689782329425e-02
6.828598792638206766e-03
8.064853090878279507e-02
6.190118333954237884e-02
1.007752584812250385e-01
3.051336533414435864e-02
3.484351710208694053e-02
2.343714278573896456e-02
7.696150060792811276e-02
2.224648988860596782e-02
5.478308689010003008e-02
9.256360409134137268e-02
7.401257071520281339e-02
6.855815695513485519e-02
5.360085930500501500e-02
5.655518523771367601e-02
5.812479895864255258e-02
7.287863282615056337e-02
3.742946495334180390e-02
4.770731670376875122e-02
6.391297440699943155e-02
7.928300916004923926e-02
9.935107311252271145e-02
5.160867979049467424e-02
1.360570374786527204e-01
1.138877420168707966e-01
1.235202775411990694e-01
9.169483709413210615e-02
1.022020027612347143e-01
8.716238989024470418e-02
9.893629905263047475e-02
8.454942473543897163e-02
1.698192869472767430e-01
1.685425917798383522e-01
1.092831228201832650e-01
1.855436186334994408e-01
1.591362444829149403e-01
1.444450697665269345e-01
1.786567684600725570e-01
1.378579951168499018e-01
1.216100623131646102e-01
1.667059693923334529e-01
1.264599437568390827e-01
1.969828999334933550e-01
7.656794412365355851e-02
2.093225484520720991e-01
1.598380568034319660e-01
1.786048504503803536e-01
1.937778079793711083e-01
2.024066737538158800e-01
1.468810669067814878e-01
1.779470462565035105e-01
1.392467945384461558e-01
1.751495495045939654e-01
1.691083140256511852e-01
1.606880904809470101e-01
1.546507526750587891e-01
2.235271888611027602e-01
1.785116594943729484e-01
2.113217499884086914e-01
1.008984243680466353e-01
2.174778109902501255e-01
1.833751913185947546e-01
1.759691786772996092e-01
1.822333373027844039e-01
2.596726621187614437e-01
2.605551826844165197e-01
3.135463574113955265e-01
3.258616033432149561e-01
3.687492836092448045e-01
3.705627953387504170e-01
5.258162148707810069e-01
5.378153962248848341e-01
5.561186244434564996e-01
6.198083522328706740e-01
7.089588492420281218e-01
6.930718877007492340e-01
7.263646767530124171e-01
7.546417974619008540e-01
9.128807401717401460e-01
9.502584331390931949e-01
9.509819164045645312e-01
9.636351720068605520e-01
1.044167857822400958e+00
1.065458295558541213e+00
1.076670029554489316e+00
1.124126212149041626e+00
1.023486684928678558e+00
1.069388151853435609e+00
1.000850834629966712e+00
9.445282073178342674e-01
9.668474443962252751e-01
9.302711982194283857e-01
8.260110614320155253e-01
8.336920323085997842e-01
7.106698838446072752e-01
6.629269756948755754e-01
5.744564711776336541e-01
5.055160775468342527e-01
5.493335428661589859e-01
4.954880016357525729e-01
4.014670931802274412e-01
3.222891348084869212e-01
3.291263231640798037e-01
2.429551073575327846e-01
2.201540633565186311e-01
2.552419442226227519e-01
2.149682349143657578e-01
2.181888428260540247e-01
1.667639351305299500e-01
1.341642360789392363e-01
1.044657373995209887e-01
1.756357598442029322e-01
9.835926911582447418e-02
1.453182788645874246e-01
1.144552835442320116e-01
1.360717321000181057e-01
1.832947179310854824e-01
1.787642916319678310e-01
1.236437195967922953e-01
1.933315362549408722e-01
1.392508044634954700e-01
1.712033117814548977e-01
1.760979599996777278e-01
1.525061920871322030e-01
1.543143222391291924e-01
1.592080249820713445e-01
2.279272197071971762e-01
1.076631079120066586e-01
1.902383631251064189e-01
1.921020477524495451e-01
1.992540265880334838e-01
2.225343221304717234e-01
1.733858770256143378e-01
1.608984893289784335e-01
2.133956832070740550e-01
2.046930377589896155e-01
2.695757961195559549e-01
2.461259610752046245e-01
2.469135840425116801e-01
2.524204802632726286e-01
1.867790981978005582e-01
2.273909112552285061e-01
1.726690100792044602e-01
2.004717588291382857e-01
2.713782177443750943e-01
3.387843446148103843e-01
3.107716440973647409e-01
2.408420718807262884e-01
1.706915138106610552e-01
2.327487839304803185e-01
2.540338893812008614e-01
2.537026689923015943e-01
2.190909367138821340e-01
2.625287274499713552e-01
2.714027787676063230e-01
2.247391939373538372e-01
2.529831534185741915e-01
1.872757102136877183e-01
2.374594996518517853e-01
2.280447939659177581e-01
2.224990149821911567e-01
2.231644308345439587e-01
2.212138458851068135e-01
2.254321490920112581e-01
1.086312031448059406e-01
2.197418161018079852e-01
2.287287525888871687e-01
1.238593772518051944e-01
1.778195660266975175e-01
2.192178578977134196e-01
2.042211212720414504e-01
1.637928193381739395e-01
1.664952295452215014e-01
1.908427350363028352e-01
1.228648170823908176e-01
1.808326468742399440e-01
1.820175147841560925e-01
1.514149413053953175e-01
1.452923259670901301e-01
1.492243407115604048e-01
1.036697518119347738e-01
9.855581213566530496e-02
8.728475788986729544e-02
1.227129374159411784e-01
4.133272111402992721e-02
8.514035925820712114e-02
4.928883602063890285e-02
5.674626636484263187e-02
1.231595145497374061e-01
3.529463105220648211e-02
7.788594597389573992e-02
6.695817813507598526e-02
5.949789989001537382e-02
3.998657699713026314e-02
3.438352448850560961e-02
2.900594392794746124e-02
5.666913987309976641e-02
4.609022392112935296e-02
1.435685618895590765e-02
9.060976979177558233e-02
1.264684859966857741e-02
2.466903714594455982e-03
3.350569848969529169e-02
-2.928043253197541024e-03
2.714789881414397116e-02
3.561877067335605246e-02
3.383082013126709198e-02
-2.520403793879210860e-02
1.229070037675642629e-02
3.040109738596413064e-02
1.504201804500258227e-02
3.879846793113609499e-02
3.192484169814215067e-02
-9.903984944252264278e-03
-1.787808134444364774e-02
-9.416173730880897375e-03
2.882744878318355825e-02
9.340631278231141532e-02
-1.986175527483577397e-03
-2.647221790382594392e-03
-1.419124865137944350e-02
-1.582827885968348530e-02
-9.446060011506447751e-03
2.040796093168962752e-02
1.611204864950386423e-02
-5.703430479687837673e-02
2.507850611237742028e-02
-2.796851589074548367e-02
-2.994677429956103809e-02
-1.573550612776140195e-02
-1.881476235030165103e-02
-5.090394765734515548e-02
-2.214083598961507846e-02
2.241138679440164358e-02
-1.011278414883355209e-01
2.226762725664334364e-03
-1.339710620594532393e-02
4.548303514140399073e-02
8.867948175068550432e-03
-4.580953854390622249e-02
-1.294537962149573326e-02
1.539122565634290160e-02
-1.473163290955575161e-03
3.774206305889862834e-02
-3.302477497243502813e-02
-2.089446360403551806e-02
2.230290303072090044e-02
4.445288426736049292e-02
8.138705785155922467e-03
7.234600167490987110e-02
2.220516821133065519e-02
-2.679031030559460291e-02
-9.243397494553308447e-04
5.465455134291975769e-02
4.929912163693007943e-02
6.354184064181871150e-02
6.971255677680358864e-03
-1.459661380947448184e-02
7.778246645267526682e-02
1.067268371098090696e-01
4.225089270841111966e-02
4.911986421720490603e-02
2.431206569600788403e-02
1.216232753370918018e-01
6.127348048964313676e-02
5.797523315721229975e-02
6.148172279738466778e-02
1.113198376788590849e-01
8.537707012637565929e-02
6.953587448660455972e-02
8.021665968826389992e-02
8.268283713253454792e-02
1.046212036919156319e-01
1.225761541510065056e-01
1.199350071047206590e-01
1.190647324839679555e-01
1.285078344489691271e-01
1.366975120291512025e-01
1.386867522058964908e-01
1.405965849141342650e-01
1.188470027627741565e-01
1.108979436411466901e-01
1.663579818580812886e-01
1.271134290390519284e-01
1.482168021451185647e-01
1.438441730381013195e-01
1.579020206116080183e-01
1.036248709237779508e-01
1.022381638368503876e-01
1.174499337796215404e-01
1.136764650321459846e-01
7.019634595629828389e-02
1.054803172731728078e-01
1.911311732876818104e-01
1.500227932549714760e-01
1.244970022923036490e-01
1.090481475108828618e-01
2.308411170941369051e-01
2.030792721880803064e-01
2.151034881444944535e-01
2.966424568161546427e-01
3.243080564206595184e-01
4.040981242162448028e-01
4.204786042347156139e-01
5.367921687047091384e-01
5.306904679479138576e-01
5.563207710493640601e-01
6.127633675502411892e-01
7.150124112960060119e-01
7.524861529806126104e-01
7.828766168877425713e-01
8.967811509285440463e-01
9.320598188380554427e-01
9.532142506515318692e-01
9.854616770845503471e-01
1.006942768846600611e+00
9.998007697931092785e-01
1.015266289327219296e+00
1.045299638563303990e+00
1.023602297286219320e+00
9.671248502799403290e-01
9.675944029865343188e-01
8.951703136491875323e-01
8.538019694552558825e-01
8.339990356236156588e-01
7.313155652188220168e-01
7.320469881501296960e-01
6.520199412794122074e-01
6.132301762449525739e-01
6.211108892641876711e-01
4.747371928221270077e-01
4.167006377448962406e-01
3.882692813084919758e-01
3.363333670845466417e-01
3.233517498739060247e-01
2.299902841941247611e-01
2.342602664722624739e-01
1.917937064908480649e-01
1.586678415782314944e-01
1.846624589388857207e-01
1.255057158881607848e-01
3.980953830003357286e-02
1.393186589384205198e-01
6.561107875163943448e-02
1.018535679611186073e-01
4.556224401767734050e-02
7.816458295476713669e-02
1.114485642408443722e-01
9.090404456543682565e-02
7.641193463973572353e-02
1.551209765100037274e-01
1.636122525374429093e-01
9.692906595396599823e-02
1.522246967847708243e-01
1.246485526776288238e-01
1.669811343526843850e-01
1.441827065147369691e-01
1.377975893131523355e-01
1.559487171851757781e-01
1.313343722030282656e-01
1.576964705642932840e-01
1.167528285487318684e-01
1.215874617099347299e-01
1.286286269450407083e-01
1.793920149222614502e-01
1.822566553828073865e-01
1.787392052410424481e-01
1.838142406368109272e-01
1.532956544368455631e-01
2.429675960635336307e-01
1.780278376257546091e-01
1.347113794086366723e-01
1.628220949120741390e-01
1.999503551903005771e-01
2.029835096557218999e-01
2.336228972582653496e-01
2.074107606073679611e-01
1.911764105186958551e-01
2.107268662951187754e-01
2.520076087816819355e-01
2.223564787908111906e-01
2.103965667142792817e-01
1.630717220440665582e-01
1.978956568692448736e-01
2.134469022596650056e-01
1.693202692183313207e-01
2.577034348337743919e-01
2.200844038842488248e-01
1.667817633536044508e-01
1.254608310209045230e-01
1.646087736920843758e-01
1.592369113982428919e-01
1.531185148572602739e-01
1.238346438997947330e-01
1.449593803842046669e-01
1.654673438437542221e-01
1.368865668277906567e-01
1.415539121434659098e-01
1.345554121114999613e-01
1.560786737120190837e-01
1.722883274049980540e-01
9.947167914087376439e-02
1.860372706510886320e-01
9.759374299607807834e-02
1.801862405433246606e-01
1.507594668744152433e-01
9.219808668581352951e-02
5.413660856135173866e-02
1.200315271145661472e-01
1.407477930058495252e-01
1.279918895316919658e-01
1.601368904835964169e-01
1.013656790662068041e-01
6.542779759704515918e-02
1.430422230139227202e-01
9.832708997755411351e-02
1.072588136744394016e-01
7.486704962315865464e-02
1.046984751416802362e-01
6.936367981473771926e-02
6.080227289235707461e-02
-1.196125540402465104e-03
7.221183533894116879e-02
6.126087637880243270e-02
2.235823244676542892e-02
7.932901143301604452e-02
-1.397738966311655451e-02
-3.315319162398961544e-02
5.360096565986804951e-02
4.437910603489152866e-02
-1.741185764664387320e-02
-4.667571770318435648e-02
1.794878273274085750e-02
6.933776726220544639e-03
-3.018674326243130784e-02
-3.786050413065261688e-03
6.345342384029464822e-03
-3.979641162286637335e-02
2.679932044746657915e-02
2.067660886773327322e-03
2.354857413028589586e-02
-1.037138688854371410e-02
-6.737299893920697946e-02
-6.965024169502524731e-02
-1.343415081832259328e-01
-7.188859788549903374e-02
-5.126154183564814171e-02
-8.590823869865080176e-02
-2.574646453309691052e-02
-2.346441284900495361e-02
-2.426111880786550185e-02
-8.946401999566586105e-02
-4.621812127027757899e-02
-5.620364847015135029e-02
3.939741361330961755e-04
-5.774849486003760801e-02
-1.479414458388429721e-02
-4.340858665426454432e-02
-6.560776543087494528e-02
-4.211300624529890763e-02
-8.108487034082897948e-02
-3.220184726992889046e-02
-3.809708593695681350e-02
-1.766980193781399894e-02
-1.262626310415789627e-02
2.629759261076627941e-03
-7.860966399619079281e-02
-4.482564066362550170e-02
-8.160237190981869948e-03
-5.058191752310513267e-02
-8.673516794659952289e-02
-5.749583719737385440e-02
-5.474392183224375402e-02
-3.782027491595171820e-02
-6.058114593689277461e-02
-2.340952106160078608e-02
-6.566198163423427048e-02
-8.193953977329290761e-02
-4.654451395416946136e-03
-7.676383223433123904e-02
-5.189650170171680732e-02
-4.813538196396580093e-02
-5.710300271437422637e-02
-6.293928256255645892e-02
-5.337072417594308782e-02
-6.074803207666155946e-02
-6.918617963303523577e-02
-8.427045863204651877e-02
-2.227812032367500888e-02
-3.092319463221481629e-02
-6.012232283068995320e-02
