9.213211394225327977e-01
9.387958315191018421e-01
9.364324288266394625e-01
8.880948208791760168e-01
8.621075565873173030e-01
8.756052557570629391e-01
8.302901317803038639e-01
7.668100581298735730e-01
6.931720696292421602e-01
6.347206770493056815e-01
6.170199761097338031e-01
5.302621447345849948e-01
4.397815558712743211e-01
4.149936449969678920e-01
3.682448214378380991e-01
2.741173361890705817e-01
2.218790174860913456e-01
2.841668999757971381e-01
2.434337988797636299e-01
1.599929804059236349e-01
2.018618965983366986e-01
1.386539121604993263e-01
1.337735166422350797e-01
1.197035494322695459e-01
1.242479315680011798e-01
1.021510026451291353e-01
1.050336842480481259e-01
1.382648871799724011e-01
7.081756979657907736e-02
1.126260209928655887e-01
6.876187984666923270e-02
1.533277983461401317e-01
1.062356258480538773e-01
1.175133568851895599e-01
1.337151359357802161e-01
1.587905090634461613e-01
1.043013610954463544e-01
1.503942136926901540e-01
1.777266895064264773e-01
1.903800892176706339e-01
9.409481194687444039e-02
1.909632851156126687e-01
1.395498513018027520e-01
1.766003934042651158e-01
1.372353935744796694e-01
1.628497098256419529e-01
1.780369333808106969e-01
1.476382363005560860e-01
2.785477162049492250e-01
2.001257743501462794e-01
2.131423058269367732e-01
1.680298409050214326e-01
2.371908548423475038e-01
1.953406362050965905e-01
1.811591561631367142e-01
1.772872122224455060e-01
2.921640221539056892e-01
2.068770361020562387e-01
2.072029926540612799e-01
2.186069651598147034e-01
1.800809224931235464e-01
2.183564826955616267e-01
1.228342665839623482e-01
2.173023082498556635e-01
1.886466862491491259e-01
2.167255658323145318e-01
2.125669679502033560e-01
2.090725540328324805e-01
2.555632183097936716e-01
2.745492225668362263e-01
2.227309769898246361e-01
1.616095013016925763e-01
2.322739074701994366e-01
2.005486456244727766e-01
1.768918202950935381e-01
2.323347957026912769e-01
1.424882255742008219e-01
1.700263293429484790e-01
1.509934005023503556e-01
1.833165010164313768e-01
1.782750794422533758e-01
2.113745695225115739e-01
1.872470862407275560e-01
1.541789074787541791e-01
1.604341837051533048e-01
1.957043251059470135e-01
1.059668938945609318e-01
1.417301884019132319e-01
1.560679868674734738e-01
1.479998523844566205e-01
1.372344632411315879e-01
1.318513871111003932e-01
1.289701830128691940e-01
1.160605812142247034e-01
8.472198586097351436e-02
1.089235002593194057e-01
7.080245389719855287e-02
7.218492488940336793e-02
5.755229036705068746e-02
9.839603652388846655e-02
8.775515705147389489e-02
6.970650484111640122e-02
1.262641858387791305e-01
6.933437687802498917e-02
1.595477459871330606e-02
5.674827533430860244e-02
7.510631558996452850e-02
7.027514903128109780e-02
8.846255979236800071e-02
4.581546277852585614e-02
6.149067158104482705e-02
5.280457320714248420e-02
6.697028538627025629e-02
1.509280869741349423e-02
4.404852672064536734e-03
7.124767173092162731e-03
5.005035882930088803e-02
3.443888168428456409e-02
-9.470422386968050527e-03
4.935870158330067647e-02
1.634416709220372355e-02
-1.448944868039700115e-02
4.527624403016218546e-03
-5.257037690436026228e-02
3.045834091989670089e-04
1.971831305300751624e-02
-1.883263286547920412e-03
-6.193121441947034567e-02
-5.843583481808818647e-02
-3.704628444790091651e-02
-2.999298797301340469e-03
7.743246293347594983e-03
-5.165112202105076600e-02
-6.893003042467434061e-03
-2.652311584615452134e-02
-3.481291787369972246e-02
5.065779436173471068e-02
-4.256765435891091132e-02
2.109533845891707615e-02
-7.238199023925301345e-02
-3.020436804466621050e-02
-6.794804371351839678e-02
-7.859290748786877667e-02
1.461272277562021202e-02
-2.604172624502874844e-03
1.114637358293901412e-02
-5.739961580809090080e-03
-3.803999867868393392e-02
-7.491991359638260073e-03
-1.649681204118413208e-02
6.726549278640399365e-02
-4.626810282990008460e-03
-2.229663741923701079e-02
5.336945554523206403e-02
1.857095130840032832e-02
3.572322306178396523e-02
1.296944552035488724e-02
3.794272770051584920e-02
-2.671892337117112715e-02
1.175949748657036803e-02
5.201078646758621610e-02
4.794073236827346013e-02
-8.852200451571340389e-03
-2.831219710031539910e-03
-1.649220086382339676e-02
3.886686580051942896e-02
1.447915742797728847e-02
6.916318637731067032e-02
9.703050162225803493e-03
6.339410205073649218e-02
7.875913400720829793e-02
3.974248691338436862e-02
7.606102194222766344e-02
8.122544186374588970e-02
6.917732918457490665e-02
9.028833983723055789e-02
4.642670826028914843e-02
1.140578589247380203e-01
9.421966929951709757e-02
1.561489584734273295e-01
1.249225942619937024e-01
1.196099652884866360e-01
1.022887288805046507e-01
1.101766593173055392e-01
1.539223427069710826e-01
1.669090843764013954e-01
1.614273294618580323e-01
1.382237603387958536e-01
1.830508084999324103e-01
1.118413150807323064e-01
1.039161322108383828e-01
1.551775634035425233e-01
9.918077769419761380e-02
1.392769023460092848e-01
1.668141503091981892e-01
1.808905291605062970e-01
1.505950437467657166e-01
1.139106027469633242e-01
1.855376632891663213e-01
1.345581599914959792e-01
1.618144865625400775e-01
1.427201516880958199e-01
1.556608808419870371e-01
1.316757013140917587e-01
1.393196843410655361e-01
1.910471412272345404e-01
1.484812095544803812e-01
1.894795858314218262e-01
2.003212842330318877e-01
2.260250757837015123e-01
2.607918144033194996e-01
2.792564612620721531e-01
3.064111354881121629e-01
2.999270202306555388e-01
3.957962254398578739e-01
4.056674998198830928e-01
5.200507896790459439e-01
5.566698306934051432e-01
6.057540282211442140e-01
6.295300064455532363e-01
7.025904158687313883e-01
7.131617733954250804e-01
8.272650940386039320e-01
8.247181030577879213e-01
8.458591956523264788e-01
9.254935722709346502e-01
9.742229098775146978e-01
9.400650416541145304e-01
9.552811171052386641e-01
1.022281903633396993e+00
1.012765141403276559e+00
9.382520083319471071e-01
9.254992482858481750e-01
8.930851553681229404e-01
9.184393399055805762e-01
8.908926216893887640e-01
8.064558278056735974e-01
7.075160343030280075e-01
6.736244418658056121e-01
5.754872850268664131e-01
5.530568036394556408e-01
5.317922934407823821e-01
4.802681550592342585e-01
4.587950988117618367e-01
3.900115962179809825e-01
3.615588716916462997e-01
2.655509389305728551e-01
2.919379624358882097e-01
2.423831174882595529e-01
1.879252962406765259e-01
1.775763640893503748e-01
2.271209774054110675e-01
1.562895451261096524e-01
2.063674262206804388e-01
1.164626540494981405e-01
1.078730685428292979e-01
1.791086675832103403e-01
1.950289872928001322e-01
1.765793568477003750e-01
1.822410818496947582e-01
1.302440369710654300e-01
1.382774009015746153e-01
2.085099265420550518e-01
1.500685020998631103e-01
1.563446173828106078e-01
1.381881587439104386e-01
1.314031835378431934e-01
2.038402525243371566e-01
1.935568806536222264e-01
1.778570516902925058e-01
1.868525960148723630e-01
1.617606433074891548e-01
1.781082407960127012e-01
2.063944597269389558e-01
1.692142726701464928e-01
2.623356608582542160e-01
2.733999962608831269e-01
2.594458492951950968e-01
2.934751900470140007e-01
1.998886507187225270e-01
2.847338500060258015e-01
2.386258582582116150e-01
2.072040544398061901e-01
1.711502174597875903e-01
2.712364283459762770e-01
1.948126624216346414e-01
2.890744040577301055e-01
2.318190160334039351e-01
2.442700099257922308e-01
1.816567739567371276e-01
2.866115988365618983e-01
2.531291567930126218e-01
2.545720826600708087e-01
2.805748489387998590e-01
2.519118822972657434e-01
2.697015536020487270e-01
2.795003241968975205e-01
2.376341805143779295e-01
2.765925235051027165e-01
2.812774524075574711e-01
2.074211060048155031e-01
2.242087420056552427e-01
2.447366536206069254e-01
2.931525966012117346e-01
1.957210778925763950e-01
2.260825641973366329e-01
2.066425583535176080e-01
2.475899464869140976e-01
2.052072620044422535e-01
1.870630653538678800e-01
2.553175085106100251e-01
1.731167205355474414e-01
2.339769529421954763e-01
1.996278571933075563e-01
2.128136108611106969e-01
1.769920929993619441e-01
1.879580645398102323e-01
1.542712436379071739e-01
1.958484894943362531e-01
2.101733225983193898e-01
1.352294095026744247e-01
1.519681724434195913e-01
1.254504968099449114e-01
1.072435334443949118e-01
1.686364687804451645e-01
1.516768751028056417e-01
1.546754717354239805e-01
1.725616103347147046e-01
1.479342453468120988e-01
1.211750808788845668e-01
1.397097169998846034e-01
1.155940180464395395e-01
1.455123754681136028e-01
8.349346001110542759e-02
1.349398188016501798e-01
8.641899266611581532e-02
9.871390362558560283e-02
5.966867284749510780e-02
2.241741805749728617e-02
8.994796861762008322e-02
8.179667204983795403e-02
5.943111349615483319e-02
1.269963412709370632e-01
4.515171767043921203e-02
6.232693189410556250e-02
1.050317562670329136e-01
6.274803437314045718e-02
6.428333467623820185e-02
6.489908218259585193e-02
6.283076781027405189e-02
-5.966084871272401419e-03
6.674711574743266707e-02
5.796147827575807987e-02
4.882328331880463751e-02
6.495058742580059330e-02
-3.753424680251683104e-03
5.336601244247095310e-02
5.140216040062607628e-02
7.148303549372619914e-02
8.816042236662083309e-02
2.767106610624704352e-02
5.472008878730115489e-02
4.116463176926977996e-02
2.281894091130493366e-02
9.626581259890406445e-03
8.157441079550414864e-02
1.691356409752788059e-02
5.702288687062827266e-02
7.011437504772585760e-02
8.996521180980582288e-02
8.349318923106455181e-02
8.193066592754433275e-02
1.044080442380734552e-01
8.786231355914542185e-02
6.789000683099663536e-02
7.874633275705913982e-02
6.125257612739475749e-02
2.933817087828213821e-02
2.068017172545906848e-02
1.889589099624260082e-02
6.645772604444366571e-02
8.452853883654419531e-02
7.308891147036217228e-02
9.862265386156757879e-03
4.753652873531535872e-02
2.455090646552544192e-02
7.647839694268517008e-02
7.021668292020322166e-02
7.642690598024945436e-02
6.112226439116973803e-02
6.162847631030567846e-02
1.410812637338925146e-01
4.147043208587446877e-02
8.673167637118531226e-02
1.302302517602468845e-01
9.720563997652931221e-02
5.639963954242388500e-02
8.987846353241865649e-02
8.333133110591911530e-02
1.407894242072185720e-01
7.743243094970163332e-02
1.088895254618855168e-01
1.791040981440817637e-01
1.530574574010137578e-01
9.071643790676221786e-02
1.349001462022593467e-01
1.191661092321787407e-01
7.787543729728430009e-02
1.531658016274154988e-01
1.859003144921881068e-01
1.266641916788392441e-01
1.389457292372163755e-01
2.072071044268535278e-01
2.198224232917388721e-01
1.590514503607589336e-01
1.608318371857631601e-01
1.980865764849107369e-01
1.733589319975337995e-01
1.972700457578798194e-01
2.001800509055430555e-01
1.766049389442019835e-01
1.728909642731708274e-01
2.204178564710381205e-01
1.764793568322533257e-01
1.636721808779236231e-01
1.923700312819587310e-01
1.902451811070941246e-01
1.590815667993286109e-01
1.157365433127499760e-01
2.017314605784863990e-01
1.561257364262970404e-01
1.322857766320729989e-01
2.051746494335526805e-01
2.105970322827469543e-01
2.091635531029288064e-01
2.075173169213357927e-01
2.417285775896618472e-01
2.663397803098246919e-01
2.919089305791242595e-01
2.818459279717160371e-01
3.435799973515442085e-01
3.665060400688212594e-01
4.273348915571869022e-01
4.271122563906985525e-01
5.096374313986299365e-01
5.977682222478205576e-01
6.480606814319918030e-01
6.298768370548404327e-01
7.146555984743957479e-01
7.620948725258659406e-01
8.645898321715025370e-01
8.319034844317898525e-01
9.403312267377634814e-01
9.680523880691163097e-01
9.916668340601419995e-01
9.975924656575477778e-01
1.030209008502895207e+00
1.011686416850809067e+00
1.052029611659634600e+00
9.564965008425980741e-01
1.067912222524092236e+00
1.007547883309495962e+00
9.372428438873590117e-01
8.929999279342630825e-01
9.007614294560187806e-01
7.833169567433553304e-01
7.452008742407536523e-01
6.646372544527503479e-01
6.836001322923775936e-01
6.097821708395906315e-01
4.943663157087574422e-01
4.835628332670264817e-01
4.509055680582765846e-01
4.096981133849357803e-01
3.578738511784121945e-01
3.553043094615206954e-01
2.745511256802219413e-01
2.549339651684775498e-01
2.717647992343174002e-01
2.621067744076821526e-01
1.820257916630498574e-01
2.333857118339052183e-01
2.138781390608353594e-01
1.839863571037154422e-01
2.442403257270914507e-01
2.222716721566422859e-01
1.841726265436023080e-01
2.478027801895273663e-01
2.271561075183676504e-01
1.839264378087469565e-01
2.048589898323804892e-01
1.787179033530402472e-01
1.656930050057292547e-01
2.233405374825817857e-01
2.499254462660459031e-01
2.874904550559114202e-01
2.335478688673829351e-01
2.144559450683305446e-01
2.293457198661117968e-01
2.034101462208767197e-01
2.059638621212273035e-01
2.468002639673180787e-01
2.455702798663417785e-01
2.538308534114454562e-01
2.593949466780435253e-01
3.109334556371634584e-01
2.716024005225138871e-01
2.844578858896320006e-01
2.511623762378580871e-01
2.679259295423416232e-01
3.030535794685412232e-01
2.992849665710738960e-01
2.740488289184473958e-01
2.647159445494086105e-01
2.869051902562184675e-01
3.038430762702216126e-01
3.283609224906321455e-01
2.949860211697781787e-01
2.818303406829585911e-01
2.812968969494289428e-01
3.071985747864803273e-01
3.032177138299307906e-01
3.152873532148784408e-01
3.140916476617296449e-01
3.550247938220060795e-01
3.133791155772930326e-01
2.890435513300155801e-01
3.120159557569205933e-01
2.842643853935788445e-01
2.718206945865038748e-01
2.714109903246241240e-01
2.765051063791138519e-01
2.598184188322591459e-01
3.312015702800603645e-01
2.507085553541820167e-01
2.520298104912583881e-01
2.515679416053003270e-01
2.880696071342324083e-01
2.981320597448154364e-01
2.797805445508708688e-01
2.809945757480410977e-01
2.034617502332884131e-01
2.469468912688166651e-01
1.894123215032197938e-01
2.304545125594286148e-01
2.047473130291893872e-01
1.835068709082851302e-01
2.260963165334977099e-01
2.492280228834821976e-01
1.905938757287519991e-01
1.848818182477413585e-01
1.969647227843875636e-01
1.959822904773626806e-01
1.922434759729750864e-01
1.378189497801163843e-01
2.342571689034388116e-01
9.960924272941182323e-02
1.847576617490327422e-01
1.888120625931883345e-01
1.762525353714685661e-01
1.521512659993747574e-01
1.762911103859437500e-01
1.415469015707325195e-01
8.600161029552833014e-02
1.188488046432332468e-01
1.319145485853484567e-01
1.237244177496174269e-01
4.626425211020618322e-02
1.385919392252821236e-01
7.917990366342630981e-02
9.468033718741512839e-02
1.514343858614615179e-01
1.602605900892244417e-01
1.256830909444023869e-01
1.215664162490890099e-01
7.396783756666082399e-02
1.031370536849957331e-01
1.193496933897063711e-01
1.107782417306761580e-01
8.328250619642701968e-02
5.425343510028804439e-02
9.396253858408948334e-02
3.983690726733275789e-02
8.916186730475275657e-02
8.912064575148523349e-02
8.676700280321369974e-02
8.243812973816710965e-02
4.128449554443239244e-02
8.519873249648458879e-02
5.147710566934402682e-02
7.275538968203756895e-02
5.300065187135022393e-02
7.478189942328333784e-02
6.486406648874805392e-02
1.316162126291718915e-01
4.636736665741682945e-02
6.097666024087404490e-02
7.419193760873554755e-02
5.069868589941725623e-02
1.011842152777766429e-01
5.001138064252141913e-02
6.546921375203616777e-02
7.271632764410004834e-02
7.647537553406330568e-02
4.684017106658049101e-02
6.436582744834644376e-02
3.766182787983744784e-02
9.277128459500739999e-02
8.511275614459337668e-02
5.390554718665306611e-02
1.009794865444439138e-01
4.839862225771912607e-02
9.071780099026383049e-02
5.570425698366120171e-02
1.203375114528900253e-01
9.161500577593509331e-02
1.052112247309675147e-01
1.278677422521540541e-01
1.089023782573173421e-01
1.199514729743007269e-01
1.013352519012030162e-01
9.513358489688131248e-02
1.683312735955684036e-01
9.419768701879868700e-02
5.125869363783354393e-02
1.344907096846403860e-01
9.004312805135053499e-02
1.602060498144136091e-01
1.520148183774531758e-01
1.592719768619357268e-01
1.792925829283971983e-01
1.028915577326957875e-01
1.064985892260447709e-01
1.257241780021914890e-01
2.000606684249667810e-01
1.631056408770956145e-01
1.514091630575021830e-01
1.412207528113408606e-01
1.182459181831647388e-01
1.789034353928880272e-01
1.650826830462769623e-01
1.749452704072813891e-01
1.571562990341756061e-01
2.247032828876552590e-01
1.608605074245988698e-01
1.949509620592566606e-01
1.706194158318683762e-01
1.584442949245085386e-01
1.449126961779766132e-01
1.215039599655951263e-01
2.163951164553128415e-01
2.274327936552226204e-01
2.018652912008040146e-01
2.145219174386832350e-01
1.818984743164057671e-01
1.814461425034945841e-01
1.783233979195043284e-01
2.269074309090663433e-01
2.081636774396615763e-01
1.902373084479556942e-01
2.141433472583170183e-01
2.378575985653429703e-01
1.576166816028292117e-01
1.854269169127417682e-01
2.078011961176024214e-01
3.328986983791377696e-01
2.658605669355313394e-01
3.318403642431498324e-01
3.139307689408754598e-01
3.426691377899508950e-01
3.716027179716464013e-01
4.622311215763300618e-01
4.869377133410559555e-01
5.046303911204633730e-01
5.700171332398242807e-01
6.443552414051050281e-01
6.856150426686721255e-01
7.881367100293432681e-01
7.427911266087249276e-01
7.719672442078553409e-01
8.302248314449462985e-01
8.754250285742121163e-01
9.293403474790222774e-01
9.550170607016883473e-01
1.007769866698877692e+00
1.084254792848842186e+00
1.042187495329608860e+00
1.081466777963331793e+00
1.031391641149318694e+00
1.018561382166947915e+00
9.706280613992979145e-01
9.416184598055905575e-01
8.943366553340349467e-01
8.494249164716474176e-01
7.680677405321116868e-01
7.111469127401708334e-01
6.285548129067496381e-01
5.979515083373292406e-01
6.233581703527045770e-01
5.337366790340074552e-01
4.623056161651436513e-01
4.396784769081515387e-01
3.843599567279790130e-01
3.771557910772522781e-01
2.828919572785924541e-01
2.394714687387018981e-01
2.358516876317831301e-01
2.563238726931487133e-01
3.186604709278859082e-01
2.106163333607662669e-01
1.857986169971769241e-01
1.866279343122882184e-01
1.725190465411610141e-01
1.531208008137266985e-01
2.011119627056956738e-01
1.987375609041936164e-01
1.964155000801210416e-01
1.732990013338602253e-01
1.533052979303474173e-01
2.112128367815524488e-01
2.230082591301883743e-01
1.804300280378611510e-01
1.985102902705632444e-01
2.148198235851936089e-01
2.326037533698719906e-01
1.898521675725375890e-01
2.449423147302937087e-01
1.913411132349328025e-01
2.671544390443466588e-01
2.221290555762574781e-01
2.272927477253300910e-01
2.292858988305980228e-01
2.676405999260552671e-01
2.501758312212623014e-01
2.771386511933400798e-01
2.791366230383427460e-01
2.954910227425342484e-01
2.371566199321858970e-01
3.153810091558145734e-01
2.780835225731314031e-01
2.380662926529729384e-01
2.675586934773231951e-01
2.731637828852001015e-01
2.954632689136687529e-01
2.400299138430826429e-01
2.580123216096560368e-01
2.647377006010330769e-01
2.871150151985194521e-01
3.261302565259963648e-01
2.756142267409738555e-01
2.616974708089808144e-01
2.618002027391010955e-01
2.838430869533892231e-01
3.015062636414473363e-01
3.137549498165367323e-01
2.353204961678538321e-01
2.217051016253420437e-01
2.772172984692983233e-01
3.032658440241759457e-01
2.274589648264231379e-01
2.754188248101834269e-01
2.349513264594688122e-01
2.371900288088099051e-01
2.236983241924880295e-01
2.542923706327108735e-01
2.440311734650933428e-01
2.587489540710270486e-01
2.406132053325439335e-01
2.465168390546513266e-01
2.619254698144325433e-01
2.331056732176403079e-01
1.663309955970464216e-01
2.248606921711205631e-01
2.817295612434989605e-01
1.854375641743685188e-01
2.064884703543995170e-01
2.341192053406118134e-01
2.076112495582276007e-01
1.530204374680779744e-01
1.909061399172909956e-01
1.777572884336519610e-01
1.968876245340638875e-01
1.621784452660990916e-01
1.528428164106259701e-01
1.951496478905128396e-01
1.547517335705940467e-01
1.452708622193867871e-01
1.417928241191227512e-01
1.835492494574281208e-01
1.551746092790530218e-01
1.420263537414573896e-01
6.998496510471606535e-02
1.314951961627839061e-01
8.025073809926729085e-02
1.315898641147942860e-01
1.081053939356307475e-01
5.685921918241283735e-02
7.405125402042588012e-02
8.824153335476569993e-02
8.144119212103709260e-02
1.304651173300536982e-01
3.308971496759111064e-02
1.005331207398674487e-01
1.104498138263940582e-01
2.868588692640009624e-02
7.368598659735739465e-02
4.714068096243390071e-02
9.042347477691348168e-02
8.618033283938576761e-02
5.095399571754395673e-02
2.819986895444374919e-02
6.674644226678488890e-03
1.860541629419205922e-02
4.108198344138511843e-02
8.838468839844867975e-02
2.489516914556730992e-02
3.230735052892220321e-02
3.748992525095067030e-02
2.368317351388545683e-02
-2.999730363943929612e-04
5.115952738141688744e-02
1.322605695727464142e-02
1.936054376394976545e-02
1.489556796465198001e-02
7.566424863939168188e-02
5.677615099660359571e-02
5.213250853467217560e-02
-1.264848304943879884e-03
1.293810574242869500e-02
-2.120366532216129071e-03
6.070813938005480137e-02
8.048760784656097678e-02
3.943044160377060306e-03
2.098144410446181607e-02
5.072250123922869558e-02
-2.677104934298496150e-02
7.797939948748581693e-03
2.635165511633710822e-02
3.043616146237937067e-02
5.923946121693010602e-02
6.072020802368382694e-03
7.066603523478307003e-02
3.638518779361551297e-02
-2.066424191139478589e-02
1.220827597055094797e-02
6.609331001945029094e-02
3.168773929028811942e-02
3.885100012454056201e-02
2.070017915291709129e-02
6.638389696954861974e-02
2.018258370795635720e-02
6.531218003917910186e-02
7.397194751939409341e-02
5.895578594757419633e-02
7.117346003299258872e-02
7.197293925332667874e-02
1.224925024288072289e-01
1.333033234212523677e-01
1.101700332967764512e-01
6.205094037387570705e-02
9.632326568928703536e-02
4.607218174386699949e-02
9.033510626291661738e-02
9.343039758203883216e-02
1.124897605388473221e-01
1.526843187971895499e-01
7.358960385027450701e-02
1.346505219252269181e-01
1.651552194984189370e-01
1.235011782365566108e-01
1.493038264976740970e-01
1.496163639552130498e-01
1.608523484487980604e-01
1.424349204629894172e-01
1.640011293317571173e-01
1.634175115668601574e-01
1.856282396871966334e-01
1.325713304779457813e-01
1.203886377476879876e-01
1.177290255001833957e-01
1.062261463617042989e-01
1.183827103060506869e-01
1.866129804345889598e-01
1.709965084956223402e-01
1.681132759147601352e-01
1.555100691726226669e-01
1.342114734719021540e-01
1.697993517157089238e-01
1.219214440447010661e-01
1.781020056970033238e-01
1.509494018353081946e-01
1.678551539002252624e-01
2.239480400738814714e-01
2.093885152994024168e-01
2.638206542268914934e-01
2.645219820521888532e-01
2.443537358542673121e-01
2.735970571192829492e-01
3.307830699771047156e-01
3.243827213538053589e-01
3.788139945164240019e-01
4.568429317367210807e-01
4.449257578840793981e-01
5.271990770842144292e-01
5.630882622793256242e-01
6.583119274778440611e-01
7.093647261242425062e-01
7.638010497872661508e-01
7.644987371753479977e-01
8.407904774476109289e-01
8.971920795246489666e-01
9.436661105558609153e-01
9.246729368600405952e-01
9.489883051374932155e-01
9.128484585727592027e-01
9.735784419345436813e-01
9.654435019110749749e-01
9.910087559945441882e-01
9.764718348624191746e-01
9.312769223055790135e-01
8.650076811977313040e-01
8.292935423320071386e-01
7.342712003824682920e-01
6.971973497535092212e-01
6.706913669615003348e-01
6.394750479879810490e-01
5.256985509136508083e-01
5.081977358038357595e-01
4.904476609793708697e-01
4.115754214244981002e-01
3.371677849655091985e-01
3.666261350721172207e-01
2.935634164957901526e-01
2.665953262857908568e-01
2.485774872714981709e-01
2.244622274788333205e-01
2.104747319066553601e-01
1.856359543363848008e-01
2.062001370988883198e-01
1.812810013590119840e-01
1.683702708928190850e-01
1.224077545921021942e-01
1.205111809156672875e-01
1.378096121398311724e-01
1.327917650862862897e-01
9.770513252360163436e-02
1.758409199075321727e-01
1.639961005334832356e-01
1.482481056406080855e-01
1.147747591930786126e-01
1.291171777879858984e-01
1.718977978858475253e-01
1.378759536759980864e-01
1.519995055663769801e-01
1.870781375279680636e-01
1.973482649411986145e-01
1.727676013656508636e-01
1.514258384421270920e-01
2.159055604531135153e-01
2.181895671867994657e-01
1.803808641162377990e-01
1.910880961364753716e-01
2.219290858564294810e-01
1.910942219994574143e-01
1.594507372394123323e-01
2.363030663945787924e-01
2.145543365567730842e-01
2.136304568982214103e-01
2.347381151370430685e-01
2.261728084813856288e-01
2.204014095936167317e-01
2.470454793695583129e-01
1.930315437419350688e-01
2.502904610684434372e-01
3.068448275424946470e-01
2.144776524631918646e-01
1.953692501296949435e-01
2.579970478720815530e-01
2.367328192342440518e-01
1.960925943297348595e-01
2.008288857875919209e-01
2.318045642483147206e-01
2.332634535893255145e-01
2.140840394525774792e-01
1.917318326167147258e-01
2.242516229848020570e-01
2.127979840058028538e-01
2.165458495387418691e-01
2.378360170333591317e-01
2.115339993744565494e-01
2.080488445621410110e-01
1.890454972094841313e-01
2.303484571496797195e-01
1.955852038730614695e-01
1.708851428238934711e-01
1.694877632877453133e-01
1.881971244961353762e-01
2.160193543057964682e-01
1.902405587841424217e-01
1.843842859381898402e-01
2.335484439695266756e-01
1.179552574270521376e-01
1.013918215895332209e-01
1.093024965114306607e-01
1.853438315803369596e-01
1.079662894069770701e-01
1.345077796716388496e-01
7.848440113163700216e-02
1.124252915163630739e-01
7.413010063875963285e-02
9.475766119641121366e-02
1.063663417496775176e-01
5.457376972520659730e-02
2.009816228691089363e-02
6.846981786345682219e-02
1.610864995118217735e-01
8.743646484707867650e-02
1.203613583220759786e-02
3.432346959333565373e-02
9.443054887011394227e-02
3.711143146876998838e-02
2.506984689884850237e-02
4.203493481088504957e-03
5.113047229247751069e-02
4.674271709702058214e-02
5.836315115935673120e-02
3.035654486383995709e-02
3.678345117657564473e-02
2.219978981675682639e-02
5.586588945494806030e-02
-6.010632235610310903e-03
-1.809672711474605983e-02
3.533956623393177260e-02
6.864006312171361257e-02
2.394021987884317054e-02
-1.315621095131395274e-02
2.424180006079869332e-02
6.959348272404450308e-03
1.759757750210684535e-02
4.477782269706399865e-02
-2.424481688997023529e-02
9.576332032395398763e-03
-2.849912720936365051e-02
1.386948977913854408e-02
3.919332648836053312e-02
-3.134776113820569865e-03
-3.540142329790173237e-02
2.201871418062489177e-02
-7.106015627968606529e-02
-1.662439202988052686e-02
1.821524993198673364e-02
6.557406200889022430e-03
-7.236135192106832315e-02
-7.602348651591314677e-02
-3.037365700149447303e-02
-6.589778113307934171e-02
-1.238833992622221172e-02
1.520780246580306222e-02
-2.462820964059386081e-02
-3.119084691571792634e-02
-4.066676351118091171e-02
-5.983773676132676106e-02
-3.017820112902131618e-02
-1.412126617114495969e-02
-3.345206949642526295e-02
1.804508621926650958e-02
-2.396178016966089147e-02
-2.712735436591010019e-02
-4.314740694947918898e-02
-4.054283299375437133e-02
1.873194758911753827e-02
3.954735485398831046e-02
-3.117812478356573810e-02
-4.007098825826701377e-02
-1.286116612204450671e-02
2.704557119214855837e-02
-3.739099135372585953e-02
-9.521915223187016331e-03
2.473969141391321042e-02
1.719234625186007864e-02
2.367879536853371991e-02
-2.447571900211634177e-02
6.078394283705185197e-02
2.578983406359879743e-02
5.500976243439351793e-02
2.400069468472509904e-02
5.093900685219263091e-02
-2.199180340258478916e-02
6.630366564635170601e-02
1.063993886582921544e-01
3.167518990034644266e-02
7.724386659972533320e-02
1.399880703015526917e-01
9.648685462500759813e-02
1.385514306670818097e-02
6.761698295907392353e-02
9.646573281381763676e-02
4.021501720971462635e-02
1.102934511482857316e-01
7.547466458301482772e-02
9.187189372794496434e-02
9.256302281333211868e-02
7.834185002145645227e-02
1.310852103435427851e-01
1.696040047434345110e-01
1.386949054484078181e-01
9.433746341459603446e-02
9.210893803847845784e-02
2.958990608637097203e-02
1.407333509421473672e-01
1.406825306031337930e-01
9.050303789851601999e-02
1.098108076547600065e-01
1.034494682269533616e-01
1.429839945937885493e-01
7.427146854969615686e-02
9.982670430036642839e-02
1.285010627079161694e-01
1.112434600786391947e-01
1.523740873656456996e-01
7.708494006460681058e-02
1.002108770348363320e-01
1.102898255625499035e-01
1.797710491629555818e-01
1.886436385498558299e-01
2.420071082395051643e-01
2.864364240294898778e-01
3.275297515212426402e-01
3.013699547012021474e-01
3.656427010213731954e-01
3.713608307222769356e-01
4.353802668011315102e-01
5.260301041784148923e-01
5.326624843958924771e-01
5.557971107032866342e-01
6.275875483167996371e-01
7.401504072171221082e-01
7.304754747352926181e-01
8.553847244712708964e-01
9.212667283103089799e-01
9.198370258988336490e-01
9.526502713692396318e-01
9.420707381686547199e-01
9.347235137134751737e-01
9.548146733612108417e-01
9.619147141277170077e-01
9.049492686803755070e-01
8.832742442810281869e-01
8.917072565886023927e-01
7.789370148119203474e-01
7.680396022351534402e-01
7.315531582205346828e-01
6.291917639918953586e-01
6.915191540301188766e-01
5.408138357610969837e-01
5.569364896492088324e-01
5.002231968341470658e-01
4.391508609192485979e-01
3.159260497153864033e-01
4.114005560363587222e-01
3.060500079628372672e-01
1.672459866408673168e-01
2.061464092213445842e-01
2.455396022439752246e-01
1.677569847970035999e-01
2.424078830785563188e-01
1.673012209601567324e-01
1.424506690959870536e-01
1.337346256239551057e-01
6.632455756058239227e-02
4.726970917197528127e-02
7.284382098833408481e-02
1.111296940056887700e-01
1.189360132754311294e-01
8.895519615352784348e-02
1.057987702995720342e-01
1.693596751690215618e-01
1.115853459009412407e-01
1.003043663044932976e-01
1.280675465908821253e-01
8.756915278907551059e-02
1.382268994529235462e-01
1.339566008462085844e-01
1.097702874877823087e-01
9.337462222863907035e-02
1.351031208824821084e-01
1.500225017763970603e-01
1.033275905294125524e-01
1.400864633334977793e-01
1.517527591840936996e-01
1.862723134991865204e-01
1.773042549733791495e-01
1.749581839431486596e-01
1.648349834044094409e-01
2.114444706751972269e-01
1.871015798911600525e-01
1.452991929610888411e-01
2.158610197868425784e-01
1.981648640055089228e-01
2.106520532588469219e-01
2.425763788945866639e-01
2.115303195115469659e-01
2.437951763333467969e-01
1.504304237926983312e-01
2.267365854240987466e-01
1.857052186337181388e-01
2.499816158653858644e-01
2.164358090147178448e-01
1.586234560423741557e-01
2.058536713745768298e-01
1.765976611786771178e-01
1.908324671873670164e-01
2.219297200300690831e-01
1.955216653460276899e-01
1.719501289830921986e-01
1.522133626519908411e-01
1.674014411885647591e-01
2.261634554996999336e-01
2.026939310494370872e-01
1.879544798020078011e-01
1.406666218962341341e-01
1.760792466535128220e-01
1.888286889998824214e-01
1.141822467076404335e-01
1.372653936848481915e-01
1.271421312866936604e-01
1.580919325342556858e-01
1.269608393813996261e-01
1.145313224945385677e-01
1.485179541906331835e-01
1.035632745219150219e-01
7.354875006557060058e-02
8.554710440812499095e-02
1.488956723674015603e-01
1.180274557316150219e-01
1.020166477348319473e-01
1.059339164689587220e-01
1.129649358628173200e-01
3.522408738380233134e-02
1.160782700817094837e-01
5.543884244295058106e-02
6.974282372526165175e-02
8.577446221450339692e-02
7.344250083564073106e-02
4.798818597970517380e-02
-1.409901528483313571e-02
4.754382182024759207e-02
-1.062897304347270450e-02
2.315820245846120229e-02
8.681809444027882572e-02
1.812665754070818397e-02
1.045073583375379783e-02
-4.381118599856424767e-03
5.928300802284133114e-02
2.397546756659156564e-02
2.412073682548116632e-02
4.623129151802058551e-02
6.159060942969507568e-02
1.298480805308879771e-02
-2.676606266275299156e-02
-3.302814751916605812e-02
2.496890186054684380e-02
-2.125294299678837096e-03
-1.602560202169783787e-02
-3.651872709868450584e-02
-1.436096110345229382e-02
-5.634731067098264906e-02
9.564718891027293446e-04
-4.888302261075759547e-02
3.036461890865155278e-02
-2.045726435351293351e-02
-5.597795443563453183e-02
-8.548885928498969888e-02
-7.606840673063157421e-03
-4.259754500300739349e-02
2.817632625108720812e-02
-2.116671240892095684e-02
-1.737261716576802770e-02
-8.472778606080400010e-02
3.035475276254089028e-02
-6.429822658368250510e-04
-1.467994585897235138e-02
-4.286201065356624873e-02
-2.241689416210546765e-02
-1.946925019896409564e-02
2.529808832440966909e-02
-2.761088916997464851e-02
1.158077412596845296e-02
-8.532353379678381256e-02
-1.857231633536550464e-02
-3.184903177409218605e-02
-2.996201928886879293e-02
-6.876649534607846836e-02
6.007411103846995587e-02
-1.119943430964744080e-02
-6.562874441246858981e-02
2.888295667639748099e-03
-4.638455366748552022e-02
-3.024834152340667021e-02
-1.580711815346296650e-02
-1.147483887859569729e-02
2.691883082881792871e-02
1.010773028386357381e-02
-8.006582557354327556e-03
-3.674245330257099040e-02
7.280475291934325466e-03
5.152597296271553551e-02
4.768843681858608852e-02
3.605554778406482724e-02
6.170626327223260876e-03
-9.461950268146258891e-03
-4.582958397436669162e-02
6.010202799178179095e-02
7.465609322003764758e-02
1.851952629112983695e-02
5.728447637246285307e-02
1.648583905922739595e-02
1.072681631830508242e-01
3.729578970194311061e-02
7.165550717594201813e-02
2.588801756520154457e-02
5.077683921103461756e-02
8.602893659045929287e-02
4.771724344829408881e-02
8.462006100576541234e-02
7.760644773966696164e-02
1.305687697945148718e-01
1.253936233230992792e-01
1.588290580383838468e-01
1.286446738016201186e-01
1.167504420047790759e-01
1.567880355043713703e-01
8.932959612369184565e-02
1.085878833837403273e-01
1.042354946376377600e-01
6.897712590830482049e-02
1.360695048329439438e-01
1.118053022552747550e-01
1.454248486629332870e-01
1.251859995557247918e-01
9.029555982083956045e-02
1.386116808187241034e-01
1.166932005834826480e-01
1.064515093431958048e-01
1.217531579676842252e-01
1.076745964095800479e-01
1.004886178832946342e-01
1.585766816614180008e-01
1.585481246124335886e-01
1.419147634625710086e-01
1.786010031502489881e-01
1.225864393644159750e-01
1.959855538899655247e-01
1.969741541984026956e-01
2.249454324719095399e-01
2.553542747568952609e-01
2.720870168438788150e-01
3.462024213982130005e-01
3.550746934458726134e-01
4.370054471569935206e-01
5.164671434890162338e-01
5.163464419107781644e-01
5.899000892871594237e-01
6.345956423871927932e-01
7.178484480164796233e-01
7.418726780725425352e-01
8.176641711355898678e-01
8.659763514262932560e-01
8.623476677168477877e-01
8.628949680124082811e-01
9.162405880447489492e-01
9.471085466452471291e-01
9.777034544819220852e-01
9.419494969881807567e-01
9.926119700575850580e-01
8.808253423822040018e-01
9.171536471547900859e-01
8.769962637202364242e-01
8.355762649457589841e-01
8.052136656302970596e-01
7.551476500173477380e-01
7.025609529369544193e-01
6.435107576510633587e-01
6.311331244456963585e-01
5.284611215748170610e-01
4.217494706924450609e-01
3.681420631108207608e-01
3.805883015951070369e-01
3.115999321473227335e-01
2.994462451717854745e-01
2.581110503065926487e-01
2.296663035474906245e-01
2.636380263834581239e-01
1.767003066661176069e-01
1.431456053451899968e-01
1.760895537184744009e-01
1.325675134080055995e-01
9.894273054288446612e-02
1.357327058499525063e-01
1.232516891028681838e-01
8.163200160873917977e-02
1.338972322553002026e-01
1.773242040373184114e-01
1.676854814171059305e-01
8.690841748399508182e-02
1.486591441851295436e-01
9.845324598871831034e-02
9.812096745296068623e-02
1.445551499283290187e-01
1.653072009562607525e-01
1.812570912123372402e-01
1.638081500840679605e-01
2.135846670598371411e-01
1.961022533575446924e-01
1.682245049552844318e-01
1.870766270211968452e-01
1.359866479237312742e-01
1.921857697418800082e-01
1.571266118329549544e-01
2.175121241249909354e-01
1.975359563813353092e-01
2.412121651549286039e-01
1.895548289410097786e-01
2.289597096567660972e-01
1.973322566254316068e-01
1.860432578279901383e-01
2.517981922326687494e-01
2.582775339136653692e-01
2.351796564963674896e-01
1.980702749701937770e-01
2.672144369477870707e-01
2.092900386858736750e-01
2.874435204423868018e-01
2.032043408455303513e-01
2.309997190802129396e-01
2.137345917313151211e-01
1.831615663206446754e-01
2.472138561496280695e-01
2.196773867434056171e-01
2.652160985980029362e-01
2.068135290754946898e-01
2.174852460903525242e-01
2.670394811642493593e-01
2.522027851295016165e-01
2.496859990474173951e-01
2.584908473691201469e-01
2.261546242740209434e-01
1.930005793358852695e-01
2.403041659657327855e-01
1.834226414196714616e-01
1.498778945162705656e-01
1.678828949387952685e-01
2.698374160664811505e-01
2.390793784948108680e-01
1.806434792430232916e-01
1.676301090090131785e-01
1.578286311824403376e-01
2.082958215211187514e-01
1.717223468560709065e-01
1.213865488311623025e-01
2.126371336781862353e-01
1.411401424648379421e-01
1.731197278003647477e-01
1.703932586035332430e-01
1.518683527993442695e-01
1.364361583354043728e-01
1.937896295285746751e-01
1.488592396472517843e-01
1.526118767589516867e-01
7.460006722718082184e-02
6.902448392016251322e-02
8.252150044429078235e-02
8.233810312884720650e-02
1.541090552869355534e-01
6.490611917318636626e-02
8.999016418776184523e-02
5.481467378372024968e-02
1.447871631946372473e-01
6.284495610549377387e-02
7.251743512718968054e-02
9.679233211086508970e-02
8.905963361322449812e-02
3.693531748783477481e-02
5.318880674896325073e-02
4.092257635368651281e-02
7.816229038165058152e-02
4.356321428518659250e-02
6.067935087835409080e-02
1.036144727897085199e-01
7.912654782191153036e-02
3.153517000321786473e-02
4.721683499493419672e-02
4.951888329412179601e-02
3.294906384211785527e-02
-3.685905409064634333e-03
7.687569696481424963e-02
-2.286644729839051524e-02
7.227849026572676951e-03
-5.155630166775141895e-03
6.007173719148647950e-02
-1.147099392938528235e-03
-1.342752576958364079e-02
-9.444680842174478595e-04
-2.083567430912917212e-02
8.847959080387549774e-03
5.430250291359594444e-02
1.193054895227376420e-02
1.916264249006207482e-02
4.351757716312723567e-02
2.414605489205918706e-02
-2.827974749481115217e-03
1.157119337734191858e-02
-1.459385956968901714e-02
-4.238619770699067479e-02
-1.766769943782512276e-03
-1.211810320032652086e-02
2.833758499573323444e-02
-1.747913008955589292e-02
1.320891359162514392e-02
1.973240726212088444e-02
4.596378306042343126e-02
1.887639910544131397e-03
1.878022654033154396e-02
-4.445163897649610264e-03
-1.478321540576698831e-02
-1.207369857105776607e-02
3.499814511194095264e-03
2.639714729643499042e-02
5.689380213949386811e-02
3.670476951077977779e-02
1.836147885705448346e-02
5.553036766246800121e-02
1.044234377532886893e-01
4.664166641575211159e-02
9.579125161739171501e-02
6.409175457509430629e-02
2.981312799652590176e-02
7.530198527375475681e-02
8.600394265643014624e-02
4.225514629866854860e-02
1.829324243540311479e-01
1.099352986681570304e-01
9.803839481236890918e-02
1.425548015947711022e-01
1.149603400261329511e-01
8.211134902292617499e-02
1.144812551776179521e-01
7.197537549182159156e-02
7.973568339921266457e-02
1.354494382249391837e-01
1.516954140517214333e-01
1.414415341671152182e-01
1.398984587133721147e-01
1.460877246901139404e-01
1.280628717136052253e-01
1.732184448705828550e-01
1.562102212685851643e-01
1.648246283790925359e-01
2.117350925924844918e-01
1.494800661396255559e-01
1.800669998561786056e-01
2.044438875639711384e-01
1.636039996388508611e-01
1.861352577835105049e-01
1.352303416125443802e-01
1.743287485397050640e-01
1.682600252260347817e-01
1.700046919981540727e-01
1.418682177360271468e-01
1.569850464428004799e-01
2.036383689202562741e-01
1.371346221066228332e-01
1.280327612814246008e-01
1.553890222905116303e-01
1.758641799959395902e-01
1.813026553971816279e-01
1.700455176791030865e-01
1.422867569630156259e-01
2.114833970287155473e-01
1.925822357790144546e-01
2.258376139053688836e-01
2.724075259377474745e-01
3.167953064328304369e-01
2.921566488903732384e-01
3.091079029298917646e-01
3.759005883706916795e-01
3.644508124557250817e-01
4.592401592772399344e-01
5.172482321034814756e-01
5.902773622705096424e-01
5.691662556880381363e-01
6.770310237096710537e-01
6.699139074651402348e-01
7.882455730029411800e-01
7.967593215551588282e-01
8.941903892446880775e-01
9.129931760816233366e-01
9.422246957151446667e-01
9.903712126930271920e-01
9.999892790520377162e-01
1.009998308317603177e+00
1.015611977282852463e+00
1.027100273308012568e+00
1.056522403971004831e+00
9.497689665054631636e-01
9.540639758648700175e-01
8.752658094026879443e-01
8.458746376399902678e-01
8.182668000462975932e-01
7.453668015649995704e-01
7.357420553847305866e-01
6.489684795479238044e-01
6.343770803104715750e-01
5.474740154357654598e-01
5.625714150432306049e-01
4.612193689480006964e-01
4.606240183847296055e-01
3.747600449291424995e-01
3.406393042795541337e-01
3.066133602219293652e-01
2.321648938711742549e-01
2.506775944185427041e-01
2.513685277905330362e-01
2.154244978817824452e-01
1.427580993109278940e-01
1.838005964656331814e-01
1.497021585017333511e-01
1.935983637945057345e-01
2.037935845797348433e-01
1.220981336864899180e-01
2.031678945107438239e-01
1.575439951697883145e-01
1.863710284959217978e-01
1.699571024527427310e-01
2.105362884944522173e-01
1.681105894675741785e-01
1.703138885752014109e-01
1.849218931473743388e-01
1.843805017789669487e-01
2.028950817976171717e-01
2.064515342932160546e-01
2.732726302225273463e-01
2.171332563985777231e-01
2.637905776536239588e-01
2.292090720169016327e-01
2.178479809049973515e-01
2.543579745006576687e-01
2.219409847493535592e-01
2.278868519827691175e-01
2.309487518153089114e-01
2.535738148100706302e-01
2.851610508973702052e-01
2.566156746209706796e-01
3.073933144311997712e-01
2.482832097925434245e-01
3.338955460061407421e-01
2.998237263203495373e-01
3.061937867341594233e-01
2.181650458326799269e-01
3.112325047398321609e-01
3.158649950363886516e-01
2.572564386576738360e-01
2.545731208780121491e-01
2.923413038066879355e-01
2.988360567959164604e-01
2.834462596230842846e-01
2.774587721162141696e-01
2.721786292255851669e-01
2.766861978193324023e-01
2.939094257520741271e-01
3.179150630789231990e-01
3.061876646499821497e-01
2.888659564114911538e-01
2.810087171410605711e-01
3.016600018958160989e-01
2.537221879363266708e-01
2.149392181791915379e-01
2.662165504500016433e-01
2.612119296029291604e-01
2.736789533723115175e-01
2.989040042917362472e-01
2.515150933085844587e-01
2.053813959754584029e-01
2.176557840376845132e-01
1.953441038080143133e-01
3.332369544068903289e-01
2.232039187330384922e-01
2.130586158382654083e-01
1.992646527613335106e-01
2.275248421809562549e-01
1.834091111700784926e-01
2.248354847494303255e-01
1.940651724763511055e-01
2.502665822418234653e-01
2.076953353015504600e-01
1.815321412904686849e-01
2.090029072843785363e-01
1.310892617353376643e-01
1.897457872120507372e-01
1.285504345058367526e-01
1.311105734015262647e-01
1.427963535459469413e-01
1.277530537518762332e-01
1.175740716333634611e-01
1.728578949036643497e-01
1.644893488636680057e-01
1.320231705535447053e-01
1.014091883581238612e-01
1.062095519191834370e-01
1.057848129465277787e-01
8.424058248245776259e-02
1.698286543056888032e-01
7.119968385689690038e-02
1.134933276042195405e-01
1.261529639321469776e-01
1.131666700407993609e-01
8.761319293022278021e-02
9.280461902578598932e-02
7.904876489501003189e-02
2.107707613819963938e-02
5.655374167938717611e-02
7.416038809379302266e-02
9.025079307201144818e-02
4.570783617578978025e-02
7.325159053200856751e-02
9.230739588367085913e-02
4.400861467497616669e-02
7.155428822563213165e-02
5.508810659299297197e-02
6.813317746134259223e-02
7.199394310188664270e-02
4.763384199036144878e-02
1.024076415875367352e-01
8.467026341543004708e-02
7.284883719291232462e-02
6.544102826980961740e-02
8.620632184611930204e-02
6.612610867933278735e-02
4.840558738793782761e-02
6.883162003308403165e-02
3.951983637564580876e-02
7.425042940567827543e-02
3.725563862755817968e-02
2.714670877642232430e-02
6.278911107690821058e-02
7.124662592563177355e-02
3.760074314790506217e-02
9.503819973609094196e-02
6.239100197504422740e-02
6.136234640252212491e-02
9.663460041036314729e-02
6.748579202311197345e-02
6.320806374992098131e-02
4.965685089809154795e-02
3.297284180165911682e-02
2.879731032276535221e-02
8.689063145653942721e-02
1.244239002656078036e-01
6.730741712916900321e-02
6.994447513695391250e-02
8.325978487600767253e-02
7.476895970598662622e-02
1.055631684597800324e-01
1.238150041451964306e-01
1.228555135664300829e-01
1.504111463422860284e-01
8.782433646707074604e-02
1.111502541841543901e-01
1.346683536181478014e-01
2.101853721723292434e-01
1.446002756924638089e-01
1.408022406234400725e-01
1.671083125905691302e-01
1.908614789227889574e-01
1.470572873084920462e-01
1.401601415290129604e-01
1.277206049879643368e-01
1.883464470880712172e-01
1.396084335515770658e-01
1.942824849613157823e-01
1.684046402965863054e-01
1.406966104522979211e-01
1.799946643016468451e-01
1.699276384112878846e-01
2.397427416857867699e-01
2.009249423694738912e-01
2.500416258504917777e-01
2.201662376900510865e-01
1.913829784503374709e-01
2.171597102234545662e-01
2.052366205904444796e-01
2.040581481465144342e-01
2.683373975260924249e-01
1.716980438494540850e-01
1.556137172742343144e-01
2.289080664507889551e-01
2.367753875082715398e-01
1.890292597351914683e-01
2.291484068199871327e-01
1.821845133887868562e-01
2.222769456388724585e-01
2.661740772423131784e-01
2.276438210132964712e-01
1.955643935972222192e-01
2.138786515001777910e-01
2.648122019940981620e-01
2.068820090214195662e-01
2.825918630746913629e-01
2.440292889856589265e-01
2.929670355978476470e-01
3.526977180938661860e-01
3.269707010529709357e-01
3.598065751550194036e-01
3.944443011024948986e-01
3.261257151978698143e-01
4.648406750632564366e-01
4.874994081683142744e-01
4.883429212779526463e-01
5.776971446912788632e-01
6.243374054640806747e-01
6.837015956696141927e-01
7.926653581873152055e-01
7.695032643990378229e-01
8.792694219917178700e-01
9.162727836057058539e-01
9.852592496005121436e-01
9.944862784237544773e-01
1.032362783137981577e+00
9.741446838696659061e-01
1.095916381729374667e+00
1.060997638669539000e+00
1.028704410812131043e+00
1.053168062970953001e+00
1.044336396066692041e+00
9.028977013400441010e-01
9.292218266381024883e-01
9.055773553405694898e-01
8.673410024242097505e-01
7.263234207424854594e-01
6.814479488039044686e-01
7.581230265902173526e-01
6.028375965528907088e-01
6.250961959423119163e-01
4.984580121985785484e-01
4.886947355319021802e-01
4.260360703144413508e-01
3.689750848792255344e-01
3.695958355899325865e-01
3.176385863194840509e-01
3.159608317871981376e-01
2.467557377679621133e-01
2.168444604399937803e-01
2.187957543996481846e-01
2.016059199287721093e-01
2.152442802474469064e-01
2.017915254821703863e-01
2.061375010466817426e-01
2.165832864048095052e-01
2.280124515052913137e-01
2.250007936302974298e-01
1.976325116037889185e-01
2.023770558055926760e-01
2.012576435982326717e-01
1.573799756014368501e-01
1.711007169223221491e-01
2.331284509934967164e-01
2.553821793944111573e-01
2.315950400692749489e-01
2.308867758379913038e-01
2.060233383268731677e-01
2.131307244003686763e-01
2.924982082830501762e-01
2.256665828687227926e-01
2.459425385682752208e-01
2.275152760473753977e-01
2.684635879722844787e-01
3.052256397819233524e-01
2.644881065604186565e-01
2.724260897150370675e-01
2.737949211424763329e-01
3.197239467685640268e-01
2.837623998282885474e-01
2.881330711301431924e-01
2.787597900168597431e-01
2.406813328758907466e-01
2.705526290143860368e-01
3.449373755842054523e-01
3.142686841959894117e-01
2.535855635720654089e-01
2.949096467495732066e-01
2.587169670933726628e-01
3.196747242018408430e-01
2.945537211009951473e-01
2.718133255867722919e-01
2.945609903384975303e-01
2.704817617015481401e-01
2.967749064457439467e-01
3.063942613578550800e-01
3.766995584498412653e-01
3.200132628399739998e-01
2.700675044853983464e-01
2.346953963717710034e-01
2.729116978340726529e-01
2.366818595947307868e-01
2.585411998754199026e-01
3.048119417767105599e-01
2.824735470700638906e-01
2.842285259358438565e-01
3.511738469725595446e-01
2.565731621155198927e-01
2.600224387900479384e-01
2.463511099194766740e-01
2.164721903429475680e-01
2.221557353389394807e-01
2.510233568470141008e-01
2.463652271492283441e-01
2.273416976154243319e-01
2.066328051255345577e-01
1.736313377797175095e-01
2.144170061783721160e-01
2.307977835774483455e-01
2.136654043869080921e-01
1.805425002120927824e-01
2.038020013659707086e-01
2.150944946508578925e-01
2.133933012145413366e-01
1.947106172413867187e-01
1.426605266822545681e-01
1.897440161393413316e-01
7.303926308829997160e-02
1.645315664969021763e-01
1.419413874572180156e-01
1.943726767303272651e-01
1.467077286682477721e-01
1.470531791798553867e-01
1.891555927340926591e-01
1.162700197620720743e-01
1.165191579059252358e-01
1.276168256529589817e-01
7.828625946647826961e-02
1.109677117230230131e-01
7.354625587568047740e-02
1.376415331493427430e-01
5.725256563838190815e-02
1.363075365514462567e-01
1.336797891404085115e-01
7.579129456628891370e-02
5.507520543679900182e-02
7.166837767031972173e-02
1.172649370743003294e-01
7.404113067492032463e-02
8.813953042398446625e-02
1.109661409905106644e-01
1.111087663657284036e-01
2.566574767951984581e-02
-1.035450272961255247e-02
7.638121629461350204e-02
1.542061923292326400e-02
5.959728967054219589e-02
5.657115099347452547e-02
3.999804251705262048e-02
1.069529612341096336e-01
4.946954425028196600e-02
6.868287712098236630e-02
9.130165316078366067e-02
4.233172177133406183e-02
4.506166852764341424e-02
9.439009332355047244e-02
3.822915710622136476e-02
4.303223178402436344e-02
6.045164206441233645e-02
5.088075692173942011e-02
4.873080778232160432e-02
9.219501072959476740e-03
9.861265404265842638e-02
2.290177806130756777e-02
6.229891223959663910e-02
1.036313211343191654e-01
7.538571112370304195e-02
8.138703834348103017e-02
7.512594273497930075e-02
3.282040985932600102e-02
7.556674281876424315e-02
5.978061777060145188e-02
3.969498493437660647e-02
2.917562721724948141e-02
8.686329709839954449e-02
6.407398714091257219e-02
4.728212811094892332e-02
5.966673684932920912e-02
2.521679324407911926e-02
7.276676739084424195e-02
1.047306286830738120e-01
1.335383400417976818e-01
6.744672714356408916e-02
1.007984636602351214e-01
1.139264319822407279e-01
6.578521632731343383e-02
1.332096364144761957e-01
1.819394116378044435e-01
1.088469753795826001e-01
1.356573849990843628e-01
1.125578426988771835e-01
1.050650374888765226e-01
1.058742571253703385e-01
1.084228605794188560e-01
1.632299831566809412e-01
1.635321725446970131e-01
1.808529820604216909e-01
1.830457937044538963e-01
1.729072664591510822e-01
1.347884972826363381e-01
2.046488236712165065e-01
1.300959668842206485e-01
1.224833487427951367e-01
1.492890819142549119e-01
1.871633908107351030e-01
1.779657643272109513e-01
1.587224363848810382e-01
1.867353641316621127e-01
2.016568447228141991e-01
1.382199969654384353e-01
1.355352482833889760e-01
1.345955357554135534e-01
1.638573932703187297e-01
2.124927105763934898e-01
1.672999725472880672e-01
2.180734504019052888e-01
1.515426820168109812e-01
1.674403616765006986e-01
2.138890494960076771e-01
1.704183806045185545e-01
1.375198900562394910e-01
1.746305327889910997e-01
2.142762083415554741e-01
2.141822986751678037e-01
2.755365232548395715e-01
2.371875910918991304e-01
1.887602804928945333e-01
2.316065555738557324e-01
2.870958641557831981e-01
3.758893443587015826e-01
3.434725927038739801e-01
4.394919815866689672e-01
4.054404041339899067e-01
4.611505577821859991e-01
4.811772024351171906e-01
5.905872347695285685e-01
6.153860845731264906e-01
6.764695701341519873e-01
7.152993487717855814e-01
7.635445024564827543e-01
8.571844045635993448e-01
9.201177406862377506e-01
9.248524731985391378e-01
9.704634982836456425e-01
9.456892178012016315e-01
1.013680257138231955e+00
1.010835953271547627e+00
1.025441182787262928e+00
9.885926467778043403e-01
9.731752094977793588e-01
9.480111001235796975e-01
9.431919493426524914e-01
8.983401059635084396e-01
8.598560114453118741e-01
7.631791689463920392e-01
7.213357313240957858e-01
6.738050009777795113e-01
6.068031222414841386e-01
6.060021396794147419e-01
4.770850310267505390e-01
4.723011936893435903e-01
3.849813809364779349e-01
3.849126504180243602e-01
3.252769955703109783e-01
2.451875180018482092e-01
2.653159227491757033e-01
2.592871131624642778e-01
2.332668505799019854e-01
2.762893932616505843e-01
2.280859120040586996e-01
1.671739221939079201e-01
1.765780031795619320e-01
2.130454621356749623e-01
1.549970042355529320e-01
1.712719910312567317e-01
1.847374346836765102e-01
1.514854733333224068e-01
1.572829430843331600e-01
1.547762346186616067e-01
1.795286925655220078e-01
1.439296134686134931e-01
1.817417226319255064e-01
1.649121860477992252e-01
2.267447408707887468e-01
1.661796059472479825e-01
1.920742431161966690e-01
1.816780573621551154e-01
1.996857248273539165e-01
2.003361104157061201e-01
2.234874039826925674e-01
1.384917661177923753e-01
2.137397065245228989e-01
2.003811672910001118e-01
1.974193869586009231e-01
2.614527356351806220e-01
2.065610600839446476e-01
2.240028996959115004e-01
2.711316080185649513e-01
2.656817374964839384e-01
2.603265813996185618e-01
1.909914188017400316e-01
2.838552093248419284e-01
2.874027685226764328e-01
1.948548017061947635e-01
2.678870434921184485e-01
2.171421585930785325e-01
2.679517383692362476e-01
2.560761777343062984e-01
2.143500225223819444e-01
2.851183524453612672e-01
2.280696293785522966e-01
2.793768721681649247e-01
2.788597084854732011e-01
2.178211706584239349e-01
2.340238768305532568e-01
2.584690668737653629e-01
3.128350494757731748e-01
2.640186452658869753e-01
2.444397919057347268e-01
2.529807381031413116e-01
2.566290071064009082e-01
1.944298939386012726e-01
2.267881744187726922e-01
2.842852176273826248e-01
2.365367729811180819e-01
1.920305417893950206e-01
1.666332784484244323e-01
1.899400670813273517e-01
2.011747218640876633e-01
2.459428636391655099e-01
2.330476797857970184e-01
1.697600838717759630e-01
2.079621146887267458e-01
1.576432348001703954e-01
1.543233460773966725e-01
1.697764617971390388e-01
1.220516618364553552e-01
1.505525276506834986e-01
1.613296116711938621e-01
1.506756995000998745e-01
1.865891608266728174e-01
1.679093443393607499e-01
1.670742582458863423e-01
1.410854729313758271e-01
1.100417451876636449e-01
1.519253913452166260e-01
1.149369381800337542e-01
1.303914329687957674e-01
9.591497840569770950e-02
8.707403539168173667e-02
9.265868650454096855e-02
1.297506838442705479e-01
1.094154004787245282e-01
9.226042838782368138e-02
1.297764923834942297e-01
8.492843229999887111e-02
7.071581715563216020e-02
1.081294202867172094e-01
4.646045605069345358e-02
9.026447533181770899e-02
6.780496730999648058e-02
9.457347192225262766e-02
1.164340459716051573e-01
-5.411147071313564261e-03
3.062480369322443524e-02
6.656448627088359937e-02
-1.336612222333414396e-02
1.251887490444894904e-03
1.170347244416384928e-02
3.265896034683245241e-02
7.743542040951922889e-02
4.432283450324056573e-02
4.118423146191532019e-02
1.749495805415469951e-02
-2.121109884828911024e-02
2.346791263832518487e-02
3.516093777883287641e-02
-1.528404042919615478e-02
2.252212955352664997e-02
8.211331830024426459e-03
-1.051803490706637589e-02
7.118737012482106996e-02
9.112226605210438368e-04
-5.006390331798790672e-02
-1.109234750144367197e-02
-1.253608657306446751e-02
-2.559401820915228887e-02
8.122455556342847438e-03
-4.630872898159672790e-03
-1.386917245474573492e-02
3.268109353928145416e-03
2.569185028217898029e-02
-2.609228262409682420e-02
3.948972482534690576e-02
3.238121727609032108e-03
-1.098381747954814587e-02
-1.767260008845531610e-03
-3.914112927258842772e-02
-2.113840875437172917e-04
-2.952089473082880264e-02
5.409043876105798510e-02
2.544423439226509154e-02
-4.209210370955967367e-02
8.549990009150722214e-02
-1.780494560352443092e-02
-1.484403875498323949e-02
-9.694793566270044904e-03
2.507804913301156513e-02
6.424422967702059228e-02
9.048698324102398549e-03
3.834263211476911237e-02
3.340050807715303632e-02
4.312184065974430935e-02
3.469548271580002313e-02
5.916206442989389858e-02
7.177230418560641423e-02
7.615301712216231145e-02
7.578130236899489891e-02
7.825993726519100968e-02
4.146677173933171340e-02
5.843632512130715606e-02
1.071541772886811239e-01
6.421757976942148172e-02
1.424459414508473243e-01
8.663401036648993303e-02
8.260524900863996933e-02
9.516667478793797152e-02
1.185368404772555728e-01
6.640108382580148239e-02
1.400999632338036094e-01
1.164763650741672957e-01
7.668491748445051270e-02
1.099458213425118930e-01
1.650607490946394695e-01
9.704039497718942864e-02
1.241393216229206425e-01
1.362603836597762186e-01
9.958669595560487586e-02
1.138775994113150614e-01
1.741026540555168367e-01
1.179825433001860657e-01
1.136735653336811147e-01
1.255507886434478193e-01
8.253093685484172437e-02
1.381907452271296799e-01
1.534485279037020311e-01
8.089108451934592936e-02
1.423997947366532346e-01
1.539609696404983241e-01
1.360349695103865442e-01
1.340131256148966443e-01
1.270819257541414282e-01
1.510698906934510588e-01
7.302998184726580688e-02
1.459440990704920504e-01
1.722017459318717081e-01
2.536290004143052501e-01
2.660401345141517049e-01
2.823811818461177126e-01
3.851212814155481334e-01
3.723939693595960665e-01
3.723467393806662029e-01
3.947299236815636769e-01
4.783251240345874344e-01
5.849739402765307128e-01
5.971566797603564680e-01
6.359050758503821399e-01
6.501094246312543179e-01
8.027164559345014716e-01
7.921293682701320282e-01
7.997097378071038598e-01
8.423129786280880715e-01
8.701391437610969115e-01
9.930180334661851127e-01
1.004752626880421218e+00
9.590205394296621444e-01
1.009846086570053147e+00
9.450934020389242241e-01
8.855580655255300693e-01
8.824393468279139174e-01
8.977850288830188097e-01
7.981554693490393593e-01
8.016418038293333659e-01
7.097008544377542139e-01
6.834002809639821985e-01
6.400745455638263692e-01
6.121575564500765232e-01
5.020932464001789386e-01
4.369546189946035275e-01
4.005372789758421259e-01
3.776865828658746982e-01
3.482384146713601303e-01
3.092888847794024176e-01
2.870617170625904824e-01
2.223225688342191919e-01
1.340249581623212116e-01
1.062926291146145952e-01
1.387204031827976303e-01
1.804600094356461348e-01
1.448097825699165564e-01
1.758048961349766848e-01
9.863460499974535667e-02
1.002549556642783196e-01
1.034537287786183868e-01
1.099149173592669781e-01
1.190316535422105970e-01
1.614524877979169604e-01
9.859728546187312981e-02
8.885396607936067725e-02
1.616676322957931178e-01
1.450040660875122067e-01
1.495843248437795092e-01
1.286291750901468744e-01
8.246328200213146054e-02
1.524816595861385737e-01
1.523016600420556976e-01
1.303484934461391909e-01
1.766611173143812774e-01
1.575875332995072264e-01
1.648985258164989975e-01
1.623237717770163735e-01
1.692343599000798449e-01
1.296512729324642565e-01
1.515009697048068094e-01
1.926835949472491816e-01
2.668780217945554423e-01
1.891420433583634320e-01
2.119859491873875568e-01
2.666559949606475688e-01
2.053237073877472174e-01
1.324858368676145037e-01
1.992697518043663740e-01
2.282594420397137669e-01
1.258883061613830789e-01
1.580300209616798401e-01
1.820725968168556974e-01
1.889639748546134701e-01
2.262012240603173407e-01
1.750854954849498379e-01
1.846679749739161824e-01
1.895778686770739352e-01
2.115734210747332034e-01
1.833799107368012660e-01
2.390363369221945311e-01
2.077202521692027293e-01
1.618754205635210552e-01
2.604291935415642412e-01
1.898249618012409212e-01
1.998536129763097413e-01
2.159747381291384216e-01
1.803066617773365909e-01
1.792398379972816591e-01
1.642163394189593006e-01
2.039418341620302388e-01
1.595860961176582271e-01
1.800682259038206001e-01
1.147269119085740918e-01
1.385127907554400128e-01
1.175375851192339005e-01
1.066885797117617385e-01
1.490585818080912284e-01
1.699371893697381175e-01
1.252023916823057914e-01
1.073171467477643248e-01
1.397061320890498337e-01
1.072338232791142376e-01
1.389478612097664323e-01
8.174036387747546373e-02
4.970655492211861065e-02
5.202689627513226722e-02
8.544057048814332478e-02
7.256537224036649358e-02
6.425008550027769272e-02
6.792374190524430588e-02
1.024172349159920836e-01
6.349487913187612520e-02
1.298772887440730051e-01
6.626283109030473017e-02
2.564575769082164808e-02
3.992536556379609053e-02
8.450421155175379118e-02
1.055702319641809162e-01
4.955918327552794045e-02
3.847138185969281587e-02
2.190643014582974862e-02
5.054542993437120824e-02
8.281229977180261381e-03
4.446107094138049276e-02
-7.773809857680342994e-03
-8.952341099963588567e-03
6.669677573182035413e-03
6.495961047447958159e-02
-4.878167151138600166e-02
1.025280246266777051e-02
-1.419192424003741515e-02
-1.966418357325586813e-02
-7.469444565756294674e-03
7.329686418967286399e-03
-6.868029336292812148e-02
-2.477972722021450080e-02
-2.255741219672431283e-02
-2.415899842437549058e-02
-3.328812685448891834e-02
-3.043270973553888897e-02
-1.818738148683899519e-02
-7.063051061691508203e-02
-3.063757669670360423e-02
2.648774101056319136e-02
2.365498557240141436e-02
-5.334469409142825191e-02
-5.035880560953862051e-02
-5.275805201623632451e-02
-6.012401860168459233e-02
-4.690585933681942071e-02
-3.573803966381505770e-02
-4.768426879099313398e-02
-3.818453886161812111e-02
-8.211625167465017028e-02
-5.360427231913924423e-02
-5.095055366629076821e-02
2.818970011003902459e-02
-2.404751110615720514e-02
-4.596297661246585148e-02
-2.633117701169824382e-02
-6.590295197151835316e-02
-3.386948026958730429e-02
-1.504108227960822275e-02
-2.351600944715365529e-02
-5.103440568162397745e-02
-3.440506502490046914e-02
-5.638550795367577861e-02
-5.851848629091784687e-02
-1.146384320555138281e-01
-5.236091301782065666e-02
-4.943561690794558150e-02
-8.104583615823479636e-02
2.694168919442893606e-03
-1.426843226911576196e-02
-1.353582366502036061e-02
-5.826064610458420168e-02
-5.128492928604324458e-02
-8.583445101276021560e-02
-2.465988652642595036e-03
-3.117595155329437248e-02
-4.261305295837357343e-02
-3.449147903897292755e-02
-2.614667629285503253e-02
-2.870518586412623349e-02
-5.475835811116155222e-02
1.106535450259227976e-02
-5.810654002516545125e-02
-5.602512729702052025e-02
-6.996908931748417604e-03
-4.249655715704810099e-02
-1.841095851538349093e-02
-8.238859091252032085e-02
-6.104565819440690988e-02
-5.983307907316890578e-02
-1.068212987464540742e-01
-4.836379926849389277e-02
-4.916210005044884673e-02
-1.959042239766047022e-02
-2.274735686003163601e-02
1.460163648213985005e-02
2.796589472052746217e-04
-5.876642687793157127e-02
-6.393918994998684657e-02
-2.237897673526959702e-02
-4.773001676516432784e-02
-5.714397961248265240e-02
-1.838220215689194414e-02
-4.110693812403699854e-02
-5.153785791054607546e-02
-8.922046334718844451e-02
-7.055123301075526265e-02
-2.702580168873993174e-02
-7.873264281809663756e-02
-8.205775655738525853e-02
-2.057795722178383177e-02
-7.370555903542348741e-02
-4.477591359670384658e-02
-1.433836346653605959e-02
-3.483707701291668957e-02
-1.703753947795448934e-02
-5.031319361715685945e-02
-1.115524584079374826e-01
-3.480795452411608593e-02
-3.295773270133060817e-02
