1.061619304645541995e+00
1.040914844624675206e+00
9.956542829944525774e-01
9.902518311938681705e-01
9.874700220131669148e-01
8.842944591845660618e-01
8.955563285393109973e-01
8.431963717752746224e-01
7.633516912844423574e-01
7.685153205103989471e-01
6.138450861870062836e-01
5.673192792976297083e-01
4.881523940950126539e-01
4.530780321672935873e-01
4.095002762312113243e-01
3.813214003648538464e-01
2.968557969640259198e-01
2.588677092864664075e-01
2.914406571575435811e-01
2.040917694333606036e-01
1.790802057972420980e-01
1.824441663339838038e-01
1.436509799594606618e-01
1.267913782634333408e-01
1.523409901965994684e-01
9.331906780632232001e-02
8.764582917573934817e-02
6.731028271856884238e-02
8.263740136424588267e-02
9.216288514823459121e-02
1.230333153972898441e-01
9.447729359567835772e-02
7.683453316989630189e-02
1.342625068142400679e-01
1.090487406354963551e-01
9.811480643201687946e-02
6.824294340222786248e-02
1.241523840959150582e-01
1.529892195290228074e-01
1.095387501334183500e-01
1.648795470673188324e-01
1.663826189549406365e-01
1.410015298265449024e-01
1.875220404029390997e-01
1.677772794252386235e-01
1.553335491323276640e-01
1.793724819050384056e-01
1.298581256729632316e-01
1.846766322866392751e-01
1.711913302197781706e-01
1.607965013119936892e-01
1.722611545485421836e-01
1.764750680799675175e-01
2.465165852783900435e-01
2.298338452201774684e-01
2.100433721509845364e-01
2.437636482176557817e-01
2.013231210504222712e-01
1.940531087634255192e-01
1.918297825688046743e-01
2.059501749879718013e-01
1.840815688511390213e-01
1.524312777557081111e-01
1.594918748727909008e-01
2.327617238791841459e-01
2.330889424021019007e-01
2.086708610558826726e-01
1.642159051807154935e-01
1.886180207668274322e-01
2.032502231264428916e-01
2.214306355696549766e-01
1.989243245756916190e-01
1.795793887107126341e-01
1.830789331385312135e-01
1.805414722234189306e-01
2.065321126209636871e-01
1.693527817377915023e-01
1.775686445335105113e-01
1.794267014107548408e-01
1.607727700656663150e-01
2.477094891320593961e-01
1.703824696654725190e-01
2.029102928365918435e-01
1.895126403067700083e-01
1.633246606797310874e-01
1.558091100557014441e-01
1.343456055974114605e-01
1.008097016407271951e-01
1.494901908730403850e-01
1.715000785493338564e-01
1.413664849243885802e-01
9.266004000913835581e-02
8.561881200479248832e-02
1.070908155891983765e-01
7.094362385182845232e-02
8.064215713803277175e-02
8.793355157338249295e-02
1.738897047634696547e-01
9.979585310469897552e-02
7.779755705275710753e-02
1.034592284485844893e-01
6.342575551299142744e-02
2.051071627736148623e-02
6.639378558812310260e-02
8.717283766378403076e-02
9.050371911424501259e-02
4.882933640199420972e-02
7.395097556006292872e-03
2.768481877024332044e-02
5.166707759580493886e-02
-5.769622543638241313e-02
1.144036339879324349e-02
1.675194993975856472e-02
7.055209929849620698e-02
3.538301922229104141e-02
9.870969651723057736e-03
4.364544864862398427e-02
-1.339039553190399245e-02
5.899177508927777591e-02
3.714320581051315517e-02
-5.035075831550527015e-02
-4.041374654594491467e-02
-7.914332684298544529e-03
-1.346884070723760110e-02
-2.964226053272068367e-02
-1.218537175828993124e-02
1.635088696310098288e-02
-2.828247100840460687e-02
-2.431806358821604619e-02
-2.837269053879556968e-02
9.534264733584776885e-03
-5.188718957606765214e-02
-4.659856108808194813e-02
-1.088222206540632175e-01
1.921717326512136642e-03
5.007907294741589799e-02
4.671704995202364402e-02
-3.572400135004059896e-02
-1.877720282909631222e-02
-2.976717169454035083e-02
-7.115208412229526158e-04
2.820913689401855634e-02
9.846284248796764726e-03
-5.384885137079459261e-02
-9.790094053803412300e-03
-5.729787546208612442e-02
-4.301557396067781647e-02
-3.975585266057062028e-02
5.391470488826655139e-04
1.021372161240121507e-03
-6.432275955210117746e-02
-9.187863303732130699e-03
3.571678528263740049e-04
6.198249593257681989e-03
-1.764054259422006762e-02
-3.909566951202483182e-02
-6.200784840660014674e-03
-4.813842151182729651e-02
-1.138124127201409555e-02
-2.426778992271066276e-02
-2.044974748000847470e-02
6.231615429624394464e-03
3.494740714189176201e-02
5.657622434292416957e-02
-1.354331229428976102e-03
1.522293362774665426e-03
-1.202018200702092976e-03
-1.136615481395854624e-02
1.279400810431927452e-02
3.713625293935461646e-02
4.380933843335419603e-02
6.449888298430747624e-02
4.143455071866444100e-02
9.447080871047096318e-02
6.159654719920627797e-02
6.663106093094504911e-02
5.420570930098908558e-02
7.209995629333215694e-02
5.641775328480608254e-02
1.014879316576351859e-01
1.218909651634870750e-01
7.358122147521921341e-02
8.779301202044872965e-02
1.458547924932082906e-01
1.166182494786678070e-01
1.148426447273958040e-01
1.010821279894399821e-01
1.245786077263238423e-01
1.057453719104582412e-01
1.246539394346135865e-01
1.819872722697251088e-01
1.289538560585097859e-01
1.506866588325685707e-01
1.400809105128753840e-01
1.664168171911562799e-01
1.302926122062711412e-01
1.547662364864884066e-01
1.181962356188829000e-01
1.675788982556740137e-01
1.166030226892788429e-01
1.103258293624816422e-01
9.968428314291569170e-02
2.108084901370320396e-01
1.156097732991936550e-01
1.538372984807657995e-01
1.555973574950261507e-01
1.686194953664374163e-01
1.814206757359583255e-01
2.044581501421069147e-01
1.961461668238403400e-01
1.658624800184000103e-01
1.993609851002024480e-01
2.066047578604919555e-01
2.179434582571359857e-01
2.384621998241647500e-01
3.123785418274331871e-01
2.732114520215691011e-01
3.133608170808473425e-01
3.670106725933867109e-01
3.875698739734093623e-01
4.460254295761885701e-01
5.154613582979871156e-01
5.246087530901789586e-01
6.092993041218421890e-01
6.807155461153207021e-01
7.566895905819575052e-01
8.073466688308507111e-01
9.126703343820483649e-01
9.223902040921559964e-01
9.828195839986699767e-01
9.873019781146349372e-01
1.028416609612633037e+00
1.096350189639894390e+00
1.057733864698351844e+00
1.069617359199057649e+00
1.057510618291021887e+00
1.071785271432618147e+00
9.892075281589626234e-01
1.022015402138720219e+00
9.466096409904503073e-01
8.908081791428351659e-01
8.723231623225053966e-01
8.314506812221165166e-01
7.387446612321465489e-01
6.838574259359810892e-01
6.214281854294694263e-01
5.946664466745638089e-01
5.227697743218242543e-01
4.093137288838063492e-01
4.260355059407149869e-01
3.389787993687029544e-01
3.160647818051405267e-01
2.788096024306850884e-01
2.799977041709262315e-01
2.375626538178876035e-01
1.904850640372339476e-01
1.988454620348546475e-01
2.225049726839739006e-01
1.873622808762224479e-01
1.856924038098702046e-01
2.041867837169276112e-01
1.435999934650776799e-01
1.339761912659978571e-01
1.563452794636199794e-01
1.280559514813690292e-01
1.416834087378098794e-01
1.450136334153344642e-01
1.435899527289931088e-01
1.346885215748414855e-01
1.489571161989976245e-01
2.060459071545593657e-01
1.649595736129506052e-01
2.135123162231279126e-01
1.657113088259488110e-01
2.251603217941313684e-01
2.084182389018753578e-01
1.367768798799714469e-01
2.301106200629804976e-01
2.611203495410898134e-01
2.016483010055928060e-01
2.228628327184648816e-01
2.061888403957345406e-01
2.562524096445789601e-01
1.993686428610600969e-01
2.525610619309760496e-01
2.727601261081864514e-01
2.092962107893169832e-01
2.869628003992372167e-01
2.516389055577069045e-01
2.700526074193275727e-01
2.783432722264241876e-01
2.452972560878057817e-01
2.620073072826724636e-01
2.660535304827034153e-01
2.557834627496449187e-01
2.630039003457945168e-01
2.838167371581531429e-01
2.814099536480974550e-01
2.837376488148286580e-01
2.023629625717869585e-01
2.341949972588879270e-01
2.610857292358257364e-01
2.714644028342418913e-01
2.889838451682830711e-01
1.895097096761170219e-01
2.606162094840969723e-01
2.582429964020857005e-01
2.340760339992030981e-01
2.568760683686118207e-01
2.327069553057171114e-01
1.947218247581762318e-01
1.625670222931113185e-01
2.054176940672672314e-01
2.306401199960690374e-01
2.028584352236456056e-01
2.094165600108464365e-01
2.305895049971990185e-01
1.823620627852770570e-01
1.507455190364021258e-01
1.771064908980288510e-01
2.135146195738895081e-01
1.866444298094503129e-01
1.742523735211614910e-01
1.932266826394298809e-01
2.400090668851299347e-01
2.049915501676055629e-01
1.888357547771335465e-01
1.997821064908944233e-01
1.457261792384051402e-01
6.687710081570402698e-02
1.411123492908153143e-01
1.214985696604885812e-01
1.724959001701482364e-01
1.322714179037828286e-01
1.490931324757943932e-01
1.657249021338393080e-01
7.900111861479347519e-02
9.908947080295456289e-02
1.000504568519976489e-01
1.232058493099320862e-01
5.664457929295141358e-02
7.748965211495653649e-02
1.174156831096784676e-01
1.575982292183147615e-01
8.529137704237731155e-02
8.899204056458714929e-02
9.348133066581065798e-02
4.287793460006369961e-02
7.386459603247449990e-02
5.523552672654342965e-02
5.808832493455814983e-02
5.907313028778184150e-02
5.804572016346555563e-02
5.562911504303444388e-02
8.247947953143285049e-02
9.361368416611288990e-02
7.551516741874154948e-02
6.184115771258257704e-02
1.053040954251207792e-02
2.387415412435025391e-02
2.982597099841024363e-02
3.519294185499247801e-02
5.193864771156463112e-02
7.107550044739356643e-02
5.180941401452690553e-02
3.215062986289825980e-02
6.754213124935205814e-02
-1.232909173373444855e-03
6.785461619828829505e-02
6.844549900010826748e-02
-2.095529679763064035e-02
9.818633596057099733e-03
1.345375313538605538e-02
3.002921371173617598e-02
4.919347017521656651e-02
4.413185122638849101e-02
1.137105748569956776e-02
6.055329637123402220e-02
6.881997965507788417e-02
-9.845241694443028491e-04
1.266820724408499951e-02
9.535751937001328560e-02
1.480679093440064389e-02
4.460203306034841997e-02
3.186878691695889387e-02
-4.646055046966954261e-02
1.912278350947327343e-02
2.346438769095209737e-02
6.843882416044111405e-02
4.210570182396183858e-02
5.222331450820248688e-02
8.149608743086945994e-02
4.628661962476894598e-02
3.476964290723175144e-02
4.478676170373361437e-02
6.606800674435912846e-02
6.311018917079602719e-02
1.002209674836644915e-01
5.691191784682139015e-02
4.611825048675195771e-02
9.428887702522928405e-02
1.213576865600786980e-01
1.304617348626405104e-01
6.904203362790181653e-02
1.186786892326376353e-01
6.092713580305434556e-02
1.140975327718451726e-01
1.590105902836825846e-01
8.415065719128167476e-02
1.160523227419853476e-01
1.069443153043078687e-01
1.651725536268997541e-01
1.483751223140582221e-01
1.564953869991215218e-01
1.071115655680840162e-01
1.428048247115974445e-01
9.939881901884943527e-02
1.318936401704422778e-01
1.532748659115961976e-01
9.784189628116179982e-02
1.255042226096801938e-01
1.665479635020347682e-01
1.647660300120813992e-01
1.936898552760165926e-01
2.093011542068716202e-01
1.804026657356983532e-01
1.625535800462553360e-01
2.089509245262793635e-01
1.434485347165652958e-01
2.346047403266458553e-01
1.779587980239544787e-01
1.633039170873239743e-01
1.849468368264891582e-01
1.804969775241593855e-01
2.189328181393767059e-01
2.091876186115142477e-01
1.354721265844257561e-01
2.079818217149068948e-01
2.286144353769976878e-01
1.905239754361311988e-01
2.078085601824699313e-01
2.382215961039465812e-01
1.868507610650703699e-01
1.702832829015435701e-01
2.065585668777922268e-01
2.380238758142066979e-01
2.711718406226775180e-01
2.267682785184207128e-01
3.174987360700761707e-01
3.104697838318323244e-01
3.247732246943537682e-01
3.947624635915918390e-01
4.339334381926386874e-01
4.756675802754342097e-01
5.219881224679134846e-01
5.155575779768573064e-01
6.327356674939469405e-01
7.080156902482506176e-01
7.074648131603022971e-01
7.783829181653185714e-01
8.770065824364428053e-01
9.543427541988760421e-01
9.409019359757735401e-01
9.872688122047476034e-01
1.005782796979625138e+00
1.106977173517924129e+00
1.116287830570190209e+00
1.171479732491882864e+00
1.126220042968794965e+00
1.172557987396509738e+00
1.069618974581463933e+00
1.101865965768024758e+00
1.017371169485402849e+00
1.012337221712493740e+00
9.923765816356981961e-01
8.621642131645711471e-01
8.759985020142420087e-01
8.154897357270977087e-01
7.123742819274763161e-01
6.673165630800950154e-01
5.874109125510653673e-01
5.879289033955102939e-01
4.801354710187849539e-01
4.466202223850201936e-01
4.056045731642439756e-01
3.387446822276856118e-01
3.287026657353369630e-01
3.524426092408156630e-01
3.034101669994525574e-01
1.994293355524762446e-01
1.746468988336451200e-01
2.176624593921735185e-01
2.320007376060537196e-01
2.046698253409292290e-01
1.674225963960197239e-01
1.987215617754040098e-01
1.719034544906937190e-01
1.892531340702909293e-01
1.767582604738643925e-01
2.016997572638972447e-01
2.049271268702674842e-01
2.064634565591290383e-01
2.635846313244268879e-01
2.032487274033058788e-01
2.151868409277894745e-01
2.430406788829375109e-01
2.589952610747919826e-01
2.361621591360424655e-01
2.116705898769436212e-01
2.381332937158263940e-01
2.362478712000424252e-01
2.293020157521324931e-01
2.681995910017920259e-01
2.686832537108015950e-01
2.858507446161203114e-01
2.737254191481452437e-01
2.947443745485680000e-01
2.749030399018947413e-01
2.778465248721677106e-01
2.717095379310830450e-01
2.911559152778622761e-01
2.601536079736408991e-01
2.908978122439161984e-01
2.519645745855740304e-01
3.091476091877188859e-01
3.087544092403347595e-01
3.218382554827701192e-01
2.489475877731797127e-01
2.980349908283220217e-01
2.848325570327053802e-01
2.985963536951237174e-01
3.023816732066484381e-01
2.999282584484143643e-01
3.397059034931836363e-01
3.434597113211270702e-01
3.174367622454527527e-01
2.931437978608655848e-01
2.483276597616511094e-01
2.955981738565922057e-01
2.510920477202116530e-01
2.729150781323089192e-01
2.600905100365580869e-01
2.763475052915020935e-01
2.784180419384520988e-01
2.608858145551637975e-01
2.606874809165047324e-01
2.660699781662239083e-01
2.260115041784211964e-01
2.725026821827977175e-01
2.501567441515097356e-01
2.655599239774621978e-01
2.128170040263599461e-01
2.754460900580311122e-01
2.602113908454977698e-01
1.535239661428759173e-01
2.158185390613167054e-01
2.253957147026595664e-01
2.379693502037069641e-01
2.025893548122672250e-01
1.655563496160045445e-01
2.011164114497756006e-01
2.026602716661858594e-01
1.722981686559632020e-01
1.594736091170029790e-01
2.020556395458369403e-01
1.648067702781798594e-01
1.257345229559740374e-01
1.843936181300749877e-01
1.699448070135329281e-01
1.101265646619507821e-01
1.405105012179840851e-01
1.399382977146965412e-01
1.371425078436546707e-01
1.542950827383099133e-01
1.123699639024965669e-01
1.574506779109324239e-01
1.548363454803299566e-01
1.217987965210806517e-01
1.123466279800478806e-01
1.007236992248534274e-01
7.687438669637150501e-02
1.353962536046606768e-01
7.422731450857669722e-02
9.262360418594337008e-02
9.792948930846739897e-02
6.848225731762359880e-02
6.482685509827597337e-02
1.199078739355606826e-01
7.103214876711205772e-02
1.234423560351166349e-01
5.149432554710188514e-02
9.701609457015238080e-02
9.690649466715611782e-02
1.210804727468813013e-01
4.045845604099446158e-02
8.867020498555744368e-02
6.793779483101908268e-02
2.506413806638616362e-02
1.558093270211535070e-02
5.943485206096744966e-02
6.480474472134328812e-02
6.847531006766564843e-02
5.773466501225611724e-02
8.878387076279900536e-02
7.370420418148215802e-02
3.340041259823134379e-02
7.024226869126026784e-02
5.865894303267563809e-02
5.569774755504741659e-02
5.972896874054230143e-03
6.740534375341919460e-02
5.351951100370010844e-02
1.013622004905036234e-01
2.420346191929201654e-02
4.631328458794382874e-02
1.025458532012149537e-01
6.183655984288805030e-02
4.536499945464331218e-02
4.764202453687588212e-02
8.058051425147469415e-02
3.436838503816930235e-02
1.180295233446966435e-01
9.095611149748562829e-02
7.604875955686926647e-02
8.838356362858604265e-02
4.055672618732079904e-02
4.507120015274873603e-02
7.685814086777525977e-02
1.113562019385643254e-01
9.906319753723247246e-02
1.302341692940538753e-01
6.867580913431621525e-02
1.054663853061502815e-01
1.135110905856261537e-01
6.205129160726206849e-02
1.523558914636125305e-01
1.337390447176849406e-01
7.354152499271317256e-02
7.888228451844024602e-02
6.535181787919297491e-02
7.835479036592238322e-02
1.628461739600230995e-01
1.484636507532150207e-01
1.690897925423002768e-01
1.753990320185216112e-01
1.638795011029610116e-01
1.039058578201418614e-01
1.275763021925437612e-01
1.281580937488398519e-01
1.925493151863656993e-01
1.538406264622655395e-01
1.670130013033790384e-01
1.948769341244857012e-01
1.611736639723015396e-01
1.461863694239301514e-01
2.044570347610188132e-01
2.108804415508782060e-01
2.458254057266984205e-01
1.886926488696049342e-01
2.022358379745948509e-01
1.443565536630652679e-01
2.100764685417459143e-01
2.585106178710249725e-01
2.025862615626508600e-01
2.073703086600665324e-01
1.993429217099129958e-01
2.402801760978123258e-01
1.817618436769705137e-01
2.169580255971352289e-01
1.741201625500812533e-01
2.073674488934854065e-01
1.936665230631052781e-01
1.935640900821343491e-01
1.941773403269148324e-01
2.355067399022739982e-01
2.047870669481219597e-01
2.228637064761913034e-01
1.873610597088754270e-01
2.704200885928970122e-01
2.313291346242694890e-01
2.634837380170276799e-01
2.448802838383531411e-01
3.140717459484156926e-01
2.839038367686688713e-01
3.490942413003194633e-01
3.950649668103622392e-01
4.013430905032406848e-01
4.183854019984050154e-01
5.118661437231413203e-01
5.570406242501582117e-01
5.923044431151153200e-01
6.917837478830805020e-01
7.464207533090099211e-01
8.017818174517749030e-01
9.080958705582947710e-01
8.629792123926899317e-01
9.794717030539047409e-01
1.009000245101242754e+00
1.040415209523805284e+00
1.100099702636998966e+00
1.094813904655241199e+00
1.119183094289446512e+00
1.148307941241127228e+00
1.127153714669568263e+00
1.064757018849524339e+00
1.074840473891717885e+00
1.045373876406978875e+00
1.054433586083033170e+00
9.170224229512168312e-01
9.510700690686122449e-01
8.795303915375670689e-01
7.596385447475887398e-01
7.753414804013589734e-01
6.968421610068799010e-01
6.208784855418635340e-01
5.501391211683851479e-01
5.193604870381068883e-01
4.227767293391023751e-01
4.032891854791934572e-01
3.294762117352628694e-01
3.530517435245639213e-01
2.806458965304567954e-01
2.794055971789245474e-01
2.573820451877830151e-01
2.687085943899600315e-01
2.420034654584354294e-01
2.180774888707703030e-01
2.073960830170143710e-01
2.267433602732813192e-01
1.833032178803746803e-01
1.939866439929087694e-01
2.186491318968168396e-01
1.326476496013150319e-01
1.864409455593914466e-01
2.458751398835836433e-01
1.859800211520335478e-01
1.693439774910980578e-01
2.350245521897490475e-01
2.215046080248406768e-01
1.924396155321659863e-01
2.191943537715902446e-01
2.003819944764157757e-01
2.086719279082376310e-01
2.267142942183811849e-01
1.945817127539372637e-01
2.572065389476536623e-01
2.836863389923043322e-01
2.739050281169024270e-01
2.847778205334141610e-01
2.323580627078432881e-01
2.807588533409257625e-01
2.356604239015082924e-01
2.765883481998373528e-01
2.641781585285756795e-01
2.488403595767170184e-01
2.745447234410426374e-01
2.505143669575115584e-01
2.664708795565355337e-01
2.949072581789221603e-01
2.507968399585054908e-01
3.117437930502514609e-01
2.523695659793826485e-01
2.808446491299032566e-01
2.739717222140338748e-01
2.917680969593270945e-01
2.620578142102761854e-01
2.850022496436977471e-01
2.359724624568703133e-01
2.802865474858973749e-01
2.457309211316458519e-01
3.148218877617797729e-01
2.438281859378075844e-01
2.672649491219165618e-01
2.566355625335319801e-01
2.777665748143156588e-01
2.520232961734578114e-01
2.549529033529433497e-01
2.272792047912886582e-01
2.566388457387159261e-01
2.530220445806293239e-01
2.328908883877733871e-01
2.778225860836050498e-01
2.220843040695938686e-01
1.756517626303055191e-01
2.312890413743394491e-01
2.335540570978820174e-01
1.721871598696253503e-01
1.893479884829611659e-01
1.840871307851318639e-01
1.878128253241559964e-01
2.021679788779466858e-01
2.113681826632392846e-01
1.796390227638290926e-01
1.995824447026461612e-01
1.727119775881712505e-01
1.301848806965734406e-01
1.457546564406821954e-01
1.394535103273717158e-01
1.596822675563895899e-01
1.421962618998132144e-01
1.279972949997679743e-01
1.241260533479544570e-01
1.546025793558686301e-01
1.314655585925048054e-01
1.682931959044427217e-01
1.409843337838770638e-01
1.746545533944588446e-01
1.178867317165076256e-01
1.295778932196368360e-01
7.580046743703490464e-02
9.222122080610635486e-02
6.469404750814787552e-02
1.020526825738951593e-01
7.081971265944728144e-02
9.513204551670144393e-02
9.310537372800120615e-02
9.380629022706435394e-02
9.716119071311186961e-02
5.685208423451881127e-02
1.013259024188836871e-01
8.240465457152132411e-02
2.562212430592581552e-02
8.012759866445470780e-02
7.922014887998718446e-02
2.492275799798994093e-02
7.407357070519431097e-02
5.074675112054246456e-02
8.010572024574105776e-02
6.214003965996744983e-02
1.095819380960351558e-01
6.662750711586784558e-02
2.985686957535825872e-02
2.590811685025456307e-02
2.334434579833066098e-02
-6.887622569741165199e-03
2.174378705245940888e-02
-1.136038054349817507e-02
2.751526026694664506e-03
1.107296547226955044e-02
1.104252005780081286e-02
7.258997884990088523e-02
1.371206589086775181e-02
-2.070510333030604888e-02
1.443599901274392541e-02
2.642840743362074446e-02
1.680846157419630532e-02
3.405557753511596897e-02
1.935439137210605287e-02
8.349937418417879842e-02
5.569370748702569263e-02
1.374509673980029399e-02
2.572707547768859904e-02
3.009601921811578748e-02
7.915090298842131222e-02
1.973352972675462835e-02
-1.429506321234284491e-02
3.244482938142277673e-02
2.704458540307572156e-02
4.152208621703732533e-02
7.731171519341972775e-02
6.213801534957699019e-02
3.433740507474574571e-02
7.056730772793273765e-02
-1.901631208437047638e-02
7.256727437251404844e-02
3.717162309612934840e-02
7.427065181776139335e-02
7.557352331958068492e-02
2.032916940333577907e-02
9.857005951982091008e-02
4.341876294148972609e-02
-5.454866760383546981e-03
8.239580797805602652e-02
3.794571916307986487e-02
9.311365376185663789e-02
7.118497043777489985e-02
8.831401115107856414e-02
4.416573035642259309e-02
8.119909871086375408e-02
8.208956237047748683e-02
8.590587919615301493e-02
1.659126834761141533e-01
1.120108593992867052e-01
8.893258511553719936e-02
8.434167525855154612e-02
1.094120228624753388e-01
1.829891216024925327e-01
1.415400641720174768e-01
7.339392024259464020e-02
7.855962297387444893e-02
1.266115662788717677e-01
2.318845036714285712e-01
9.461100467487840171e-02
1.587991906620140337e-01
1.683241655892155075e-01
1.893943858489116616e-01
1.412303621373865448e-01
1.257983337750205599e-01
1.487221108053410346e-01
1.671382549670170081e-01
1.486923247462324793e-01
1.337671783566885264e-01
1.506810315242143317e-01
1.914335340908610572e-01
1.911356576954132691e-01
1.650846342781732978e-01
1.544301960549877561e-01
1.466003747750753150e-01
1.406179859495695073e-01
1.291659953805524286e-01
1.261457714470262392e-01
1.304176586035191709e-01
1.439394635662545885e-01
1.907543518320454767e-01
1.819967139539316325e-01
2.472031089070161614e-01
2.228426605697413077e-01
1.935245540064402248e-01
3.280069205644949859e-01
3.404416422583365076e-01
4.211896578679887315e-01
4.046258772441785889e-01
4.946100164180567971e-01
5.641842123985612023e-01
5.346621339097835657e-01
6.049123144057182433e-01
6.965326042536272855e-01
7.661438420125621374e-01
8.812655994443014951e-01
8.245889659491498769e-01
8.590706569078540022e-01
9.752553907693056745e-01
9.566502003661954134e-01
1.020027042017628505e+00
1.074691700364071245e+00
1.111282964606669310e+00
1.128951891773337657e+00
1.130146189397441603e+00
1.032266092270615943e+00
1.010446572017293709e+00
1.019504667794872255e+00
9.680152977545025683e-01
9.401053324924537602e-01
8.758308436376222028e-01
7.690410086907492060e-01
7.043517701178879653e-01
6.955386492221619088e-01
6.597359850525589264e-01
5.746402264875870580e-01
5.534241121579579481e-01
4.343585415451098886e-01
4.371781122182181178e-01
3.743251461294513915e-01
2.804726838030333624e-01
3.147595842194346183e-01
1.847280405337821674e-01
2.645562115304307405e-01
2.134070389085795938e-01
2.242060956707973562e-01
1.507813644707712564e-01
1.718297853817372933e-01
1.089888724777551415e-01
1.513355732831630218e-01
1.831102936017525717e-01
8.421751000141995680e-02
1.133570946261635987e-01
1.148885321014372352e-01
1.293960383363557121e-01
1.319024769317152235e-01
7.285276410074244258e-02
1.222322686327690089e-01
1.381014405380385779e-01
9.857440608903933477e-02
1.762656657400442084e-01
1.371860790055508539e-01
1.700050521819329585e-01
1.911680559885899355e-01
1.684952870982394380e-01
1.683367953183379229e-01
1.643603348101756734e-01
1.701095107917241223e-01
1.819378346730804452e-01
1.929780378248555361e-01
1.870970759687711760e-01
1.548381556746992183e-01
2.524407898856900756e-01
1.825358726512757157e-01
2.006078558941836731e-01
1.848460564157172470e-01
2.568798129275682851e-01
2.430419701377257158e-01
2.418656857525848802e-01
1.996965323917218593e-01
2.522493296281474451e-01
2.547197454358389734e-01
1.721766828594643028e-01
2.251512015933598843e-01
2.041424739294341595e-01
1.424278811246167398e-01
1.787250214444738305e-01
2.113477436970529200e-01
2.437229083831252141e-01
2.431831027130629541e-01
1.895352777854402149e-01
1.558024326377223101e-01
2.413666306968529907e-01
2.106729199622853488e-01
2.322690398708679438e-01
1.858165154914218353e-01
1.585766209114505554e-01
1.463564452710273134e-01
1.908487689162970125e-01
1.656035439342234961e-01
2.122673782211281501e-01
1.802806764607822188e-01
2.307542668258123764e-01
1.778653791965512099e-01
1.830362575700086591e-01
1.808635974165188343e-01
1.407678346365773825e-01
1.718712272501574378e-01
1.080577399185892185e-01
1.045156745651293906e-01
1.422344230468866044e-01
1.125410724424173448e-01
1.378068157536727067e-01
1.154460904852694370e-01
1.213419869348578983e-01
1.081658578833537554e-01
1.220590126772131967e-01
1.842333824315925683e-01
7.717897365461248715e-02
1.218228226634387457e-01
8.444248187582073517e-02
7.401971026027426293e-02
7.917246119256157733e-02
1.295673346686149752e-01
4.496351785266380213e-02
9.907643223850570724e-02
6.268248022242427220e-02
7.382366649125948754e-02
5.739723666116886003e-02
8.505732580538316601e-02
-9.848293027917683073e-03
8.677235455251583462e-02
4.185980089103529672e-02
3.552036895425094570e-02
1.656559546746435435e-02
5.095208859578707200e-02
1.825756353064039023e-02
3.531838186638969895e-02
1.629952162983316216e-02
4.924363268187285925e-02
-3.269342226362360188e-02
-2.163744903993063129e-03
2.449024711939017801e-02
2.801170659288008263e-02
2.353339029705310559e-03
-1.281995430080984377e-02
8.678099593267214751e-03
1.303647388759677367e-02
-5.946061695133135483e-02
-2.664226350153296730e-02
-3.170214824814578114e-02
-5.934197023073548710e-02
-1.192383853066206201e-03
-1.491427252202405518e-02
2.535864557847930523e-02
-1.200485473874725317e-02
-2.216325966082986765e-02
-4.231689966981291157e-02
-1.033165388914587118e-02
-3.755858380805429664e-02
-6.065095232154577715e-02
-1.392394588069861480e-02
-6.920288817116580782e-02
-6.959315965985833630e-02
-2.353980686632783578e-02
-3.039545936520627462e-02
-6.202351526545593630e-03
-5.398011093363616619e-03
-7.650295601568934956e-04
-5.078081452369719029e-02
-6.227558786783253530e-02
-1.415331757879205107e-02
-5.089268031352168348e-02
-4.351433417191408193e-02
-6.967047841766926819e-02
-1.196663830319028704e-02
-5.050970170365214756e-02
2.285577416241128812e-02
2.054441380034431608e-03
-5.806884394638957281e-02
7.948576456862553596e-03
-6.906883074990463611e-02
2.980656496892562790e-02
1.581039589129236422e-02
-3.078646122712130201e-02
-7.160405624276812431e-02
-1.770127972186056470e-02
-1.629724100394708969e-02
2.221588365279840438e-02
-3.778447138290487450e-02
1.058909218998978496e-01
2.903936006586881058e-02
-1.324912838024772110e-03
2.387499658542016623e-02
-6.866757536283893404e-03
4.291687705282235671e-02
-2.615118795336086877e-02
5.565594423279050101e-02
1.459120520843056740e-02
3.053011288823986868e-03
6.676220930581372448e-02
2.133649179016579994e-02
5.919493916521080534e-02
4.602810815082951368e-02
7.377654248115127211e-02
4.524936073963652799e-02
1.059498282061287766e-01
3.182147698090106308e-02
6.393345883168641275e-02
5.282089827784031827e-02
1.088807371118873935e-01
7.463201553913782760e-02
1.271549013504639780e-01
8.429071122932688120e-02
7.378086398255169487e-02
1.027307703120027144e-01
1.133961976753638801e-01
9.606707415727376576e-02
1.262286045184807803e-01
1.188579538278254077e-01
6.269952854226679140e-02
1.154728623611321475e-01
1.066103356668484381e-01
1.214774561328073876e-01
1.002533886838210819e-01
8.802153699905093664e-02
1.060888660378164067e-01
8.716376266558945041e-02
1.070850924568777507e-01
6.558626485117016736e-02
1.306206238148149568e-01
1.158801160889824100e-01
1.388586466496517513e-01
1.990729292977382325e-01
1.515024434325368818e-01
1.660030191776540598e-01
2.263325957662522536e-01
2.150817570322754724e-01
1.955211869669618574e-01
2.506156173068851412e-01
3.154389942573944117e-01
3.332008327933022596e-01
3.394526334774242704e-01
4.067899721220695763e-01
4.580696223113109866e-01
5.512357803345540042e-01
5.883519051250462040e-01
6.633689062953672666e-01
7.140577358422880438e-01
7.673251638463242097e-01
8.082072135604275731e-01
8.738957788641027458e-01
9.248684848768896627e-01
9.617040810047412513e-01
9.620757143758417174e-01
9.941374742795081598e-01
1.028425697602604716e+00
1.052468116574170054e+00
1.004157281748887964e+00
9.865921131603625494e-01
1.002147931528489799e+00
9.673668356485843889e-01
9.166898032918637806e-01
8.948509941751355834e-01
8.082558415856520018e-01
7.435153336168937033e-01
6.963638413227453139e-01
5.956559955972882126e-01
5.626729874962766997e-01
5.234228418382120829e-01
4.377732621686466485e-01
4.089030946081352869e-01
3.864852322421568620e-01
2.490316922221473273e-01
2.747367985210314445e-01
2.068200849822652843e-01
1.839938471410180743e-01
1.759338785040450159e-01
1.338016680660971958e-01
1.419645401678434615e-01
1.442097054620515295e-01
1.409970941168812719e-01
1.190290741990103346e-01
6.756932407666907392e-02
1.176074615591157502e-01
1.288652944817567647e-01
6.102062546086315514e-02
1.459648124183977602e-01
8.550475158147952115e-02
7.217039808150693680e-02
9.114548356041882182e-02
9.919578895261577101e-02
6.300032649578850286e-02
9.881183682740950214e-02
1.750840791878064129e-01
1.411974609995788610e-01
1.227722574449198745e-01
1.415300056634191117e-01
1.137636579175651114e-01
1.546358784830372535e-01
2.352118628592082261e-01
1.695854318153086349e-01
1.082961294083813475e-01
1.584010544060129311e-01
1.749759114332044840e-01
9.927498050334560009e-02
2.229406968019507218e-01
1.786579353832476458e-01
1.007719060748289153e-01
1.796116468989943926e-01
1.806399568325858240e-01
1.621645235237384464e-01
2.167517113603682488e-01
2.096780336092930463e-01
3.037528151902197382e-01
1.545653968695113734e-01
2.290769305071508333e-01
2.298984405738729031e-01
1.693164686531577756e-01
1.594801953385147353e-01
2.498886954945886418e-01
1.574097036268020389e-01
1.720505476067352713e-01
1.689794382980261966e-01
2.059062025463670453e-01
1.699318735967345062e-01
1.701021375736170849e-01
1.714910283654112189e-01
2.311743875173145613e-01
1.201679347150656080e-01
2.201922769527093759e-01
1.965508263038926728e-01
2.503809616109619607e-01
1.454862903205826896e-01
1.361464562876925355e-01
1.341791254535802669e-01
1.158271167840592974e-01
1.512205564993180928e-01
1.307368012704569205e-01
1.398103095782444183e-01
1.051513515049685987e-01
1.653550103722778719e-01
1.663576089482156350e-01
1.191780643846612475e-01
9.273531121822331524e-02
6.606291955214109446e-02
8.774907255489028390e-02
8.752528383418815838e-02
1.190168153356652436e-01
1.314771763964893980e-01
6.656904377834266251e-02
9.236677232457213282e-02
9.734988349546384867e-02
1.125792391352901378e-01
9.197380969268195705e-02
9.210184152768116639e-02
5.688236171735952529e-02
3.194665045030015138e-02
7.241275374245544072e-02
9.897006602636146400e-02
6.210120524162386635e-03
7.984013315992011250e-02
6.790356723642268499e-02
7.465608878728846598e-02
1.065604516201451857e-01
2.046148284598130196e-02
1.924598015521648831e-02
-1.530911152633030597e-02
2.303337757058235985e-02
3.065341561192815034e-02
3.103351753387793843e-03
5.611809296642442102e-02
4.339990673498037022e-03
-3.653148719799929889e-03
1.875325363840488202e-02
-1.946119827050219603e-02
1.996332866971740894e-03
-7.775840942220411944e-03
2.242226477568298737e-02
-4.479697866477840712e-02
-1.571355282145783447e-02
-2.038933324621537702e-03
-1.550444242114992766e-02
-2.721652014575319870e-02
-4.589649389378966382e-02
-5.575851958142120923e-02
-2.747745471399986802e-02
-5.434728880330937095e-02
1.717226191109021138e-02
5.409324825989061947e-04
-1.045880866786760843e-02
6.363582089759921290e-03
-3.650078530234233259e-02
-6.880982250677986078e-02
-4.081274900733187355e-02
-4.878976996547525896e-02
-2.717995793975660351e-02
-6.682667258197422244e-02
-4.597774064041175446e-02
-7.724695445660463566e-03
-4.925562523865424647e-02
-7.355388378584387654e-02
-3.482417704902364408e-02
-9.821842319662869858e-03
6.890330279370332489e-03
-4.419779272509847395e-02
-2.961986692081158487e-02
-1.103433868273875906e-02
3.311502239874475340e-03
-1.444960319948825067e-02
-8.524338703718029042e-02
-6.877442510320025404e-02
-5.630805729726379161e-03
-1.557673366570137830e-03
-1.494838288942584859e-02
-1.491151326916961839e-05
-4.413193802307006225e-02
3.248202408069970903e-02
-6.669630301676661432e-02
1.702920181427568236e-02
-3.549017065635415302e-04
-1.454975474143638259e-03
8.120556519477586943e-04
2.013178577502820754e-02
1.640536476303885993e-02
4.266845132002423241e-02
2.619694920034408570e-03
3.899220188710141727e-02
3.757018923993204335e-02
-1.124427061992781113e-02
1.630135745315307999e-02
7.236505865347812871e-02
6.675699245058344666e-02
1.862025770158980131e-02
5.677865798238961731e-02
3.766194459783386156e-02
8.982540124656265834e-02
9.168233737060671462e-02
2.084030380252305942e-02
8.885008814069328409e-02
7.402141086844901685e-02
8.911297979763507793e-02
1.275698876804884363e-01
1.019872270551709093e-01
8.052154657080112798e-02
1.098919323508004975e-01
1.392766762505199263e-01
1.076435378383544389e-01
9.352078851584785801e-02
1.146902860488662745e-01
6.244757221861863689e-02
1.191116968189992742e-01
1.054793953655560890e-01
1.048945526643705328e-01
9.684366957309145652e-02
8.572679823170473168e-02
1.452125975202147867e-01
9.387115635206433328e-02
1.324140944955943533e-01
1.552897293017945768e-01
4.370791016942079249e-02
1.051916300181606062e-01
1.568376610019308337e-01
1.270060941831434864e-01
1.363175929572657819e-01
1.719646259127172172e-01
1.215043319342960504e-01
1.637404790816073263e-01
1.511761626367351952e-01
1.692241993822360679e-01
1.247974986314066975e-01
1.875291958653473312e-01
2.084471418611873739e-01
2.808990740884319548e-01
3.489867051472140824e-01
3.608941284004726358e-01
3.920307201591733959e-01
4.799100370245592551e-01
5.401128912749115774e-01
5.239081686833287899e-01
6.178446811694691121e-01
6.577735346887291223e-01
7.150026852663707855e-01
7.921944279967737534e-01
8.599252126268300822e-01
9.609121551561232710e-01
9.753912753995022111e-01
9.688735808270305672e-01
1.007286900904796667e+00
1.044425852560814549e+00
1.084189620207111737e+00
1.054836091445786606e+00
1.076733953837224700e+00
1.071719698131767373e+00
1.080862049223874077e+00
1.000323423099332976e+00
9.520893158237097031e-01
8.854287991518401402e-01
8.391271536404002473e-01
8.281485746922206959e-01
7.414363747929764159e-01
6.754276887627305159e-01
5.484723072273295363e-01
5.001095662007212228e-01
4.916721796766213015e-01
4.593458557152688693e-01
4.220843655430119301e-01
3.855861689781989732e-01
3.101991239742764583e-01
2.564104715419731617e-01
2.133692557763824937e-01
2.365871744779066144e-01
2.030748892014308249e-01
1.388814922147103559e-01
1.406214621000146658e-01
1.763542286127625092e-01
1.501213131931384837e-01
1.775350477437338537e-01
1.177345978589379727e-01
1.327643675493237752e-01
1.649133000723700948e-01
1.084350052343910215e-01
6.729931387447925240e-02
1.341561886804232551e-01
1.354222006302614190e-01
1.220861497941756052e-01
1.406691895061191189e-01
1.725752508448950839e-01
1.452991956679351715e-01
2.095626058949054960e-01
1.554223347738563632e-01
1.557275647389609885e-01
1.556999625100513318e-01
1.902626640665226465e-01
1.840493429230276312e-01
1.901469041468992760e-01
1.925059656969469735e-01
2.090202105114669917e-01
1.369176002656271596e-01
1.938963714820318429e-01
2.391558743300290502e-01
1.943871172727902330e-01
1.764856118489002701e-01
1.799857198054411189e-01
1.944610009137336115e-01
2.450547185950534834e-01
1.892214559602982960e-01
2.270164915901103087e-01
2.383925592520675096e-01
2.206856380731133382e-01
2.210389628490130320e-01
2.136169953222769591e-01
2.858034082124112363e-01
2.324152910018926488e-01
2.557826041990216570e-01
2.600983736494177911e-01
2.479751413871505716e-01
2.726368724279990552e-01
2.297349243527844198e-01
2.047948025822217410e-01
2.222947883951886527e-01
2.130672286251779624e-01
2.501427489572979890e-01
2.875542083353035405e-01
2.774431155557843254e-01
2.146918623674425319e-01
2.187077227621786468e-01
2.192267272092390251e-01
2.125622954146627053e-01
1.661446709357270735e-01
2.260526567129861053e-01
1.857213033550753900e-01
1.612776711692469611e-01
2.120231865112501279e-01
2.477876258279657073e-01
2.059007614574115963e-01
2.077237744776460338e-01
1.915936130392362768e-01
1.697453712062823583e-01
2.250323093598172730e-01
1.442259415016451940e-01
1.635021471893612077e-01
1.403838412490150955e-01
1.213019889236864879e-01
2.028122743247466886e-01
6.383997624411157090e-02
1.222559058264010012e-01
1.531211338479540329e-01
1.509381623654625082e-01
1.736538128147160909e-01
1.440092152519041047e-01
1.171489958319972269e-01
1.605493639098604930e-01
8.372167839702021608e-02
4.093266132042278765e-02
1.229031152162921442e-01
7.903519368509288878e-02
4.235289694046760062e-02
5.658498207389987822e-02
1.072027877266772400e-01
5.682909639858568090e-02
7.504061498082834070e-02
6.318200674061352773e-02
5.904095600566676427e-02
8.256889248854956675e-02
2.920475171143227175e-02
1.425053806239161280e-02
6.381869464102070399e-02
4.184765433674863394e-02
3.518387801302744200e-02
8.279812347194377697e-02
4.410468666208937349e-02
5.397707874300224778e-02
5.506476441439887848e-02
4.440056905527747788e-02
1.896297411793017654e-02
4.444507229984126506e-02
2.406737752609041867e-02
-2.039699405240912033e-02
4.186190440618704767e-02
2.228278365435590845e-03
1.630853492819188746e-02
-5.650747030466881857e-04
3.921093555419283977e-02
8.599637471486917817e-02
-7.895495315443699577e-03
1.898166801820510424e-02
5.397371411191499713e-02
3.756268898003352341e-02
4.722790012950708882e-02
9.133357206307606349e-03
5.699451291544187573e-03
-3.634721379141162001e-02
-1.789713630698690910e-02
2.821230120550725223e-02
-5.271627219811450549e-02
5.650891141851085292e-02
-3.737138307767760848e-02
4.941313978126869733e-02
-1.191523592933733423e-02
4.181271413934684045e-02
5.244518831504365458e-02
3.211097038340636478e-02
3.817870204212951701e-02
2.993542699169021368e-02
1.185223162499390685e-02
2.816710891035632131e-02
3.119234483479104564e-02
1.095549950204136869e-01
3.721524742409258735e-02
5.913319360346866449e-02
3.681590525023577254e-02
9.373654850780874237e-02
4.372491648435315043e-02
-2.914752925435158681e-03
2.431365867773422479e-02
7.127151984946211716e-02
4.701123605504917147e-02
2.370847749442890270e-02
6.600397481606627703e-02
5.750823560646016464e-02
7.179958014274470668e-02
1.121333216130374344e-01
1.032507488691214032e-01
1.147196093902028285e-01
1.018709513211363132e-01
5.971228051667640951e-02
6.770619474651470848e-02
1.065012059686923779e-01
7.231422422289643381e-02
1.223151006589174028e-01
1.192652224307499398e-01
9.111866055330583580e-02
1.285931664965145882e-01
1.440516041906417244e-01
1.257311955774892132e-01
1.349791400546803688e-01
1.864262360978881095e-01
1.606102753603592670e-01
1.260631208554618687e-01
1.057909288464514430e-01
2.383567807379905756e-01
1.968398689631689624e-01
1.924237539052903456e-01
1.790246677968405642e-01
9.753530372941587867e-02
1.846306850375057651e-01
1.514890333743950379e-01
1.520668102872302918e-01
1.688213902490985630e-01
2.103625407603341435e-01
2.185175013835407298e-01
1.880961164130503238e-01
2.085927774667727386e-01
1.846154158517329391e-01
1.976821827530700071e-01
1.860900786472527713e-01
1.866246218398349144e-01
1.333087542462393638e-01
2.442992448016073626e-01
1.733397741045382134e-01
2.192618591746716139e-01
1.986287713634870555e-01
2.298226480333014909e-01
2.053495966853249310e-01
2.625047260427960105e-01
2.897700670078469654e-01
3.643571717036876989e-01
3.987665528200339815e-01
4.016662121315712208e-01
4.176492270728572320e-01
5.180862593489764523e-01
5.445764163948466630e-01
6.598634003499184164e-01
6.685257749581859921e-01
7.301257993499717935e-01
7.606315635377677298e-01
8.240678244286047116e-01
8.832730613786125007e-01
9.177796573250116552e-01
1.045897529381667246e+00
1.032885985221767111e+00
1.009932123324622788e+00
1.051061824155576030e+00
1.104270779237182198e+00
1.129898032890404247e+00
1.109103031771409675e+00
1.113117643720534344e+00
1.067850364854260548e+00
1.064573755169378133e+00
9.928245303956599876e-01
9.480021209241941138e-01
9.394364318478930498e-01
8.574989881824124360e-01
8.115346899511626244e-01
7.524044294756968565e-01
6.834204479725934922e-01
6.120167404996027516e-01
5.133774351453581630e-01
4.520324764014092001e-01
4.743322277165940015e-01
4.220288438216612814e-01
3.670021537179429805e-01
3.166348118948323354e-01
2.981915213949150600e-01
2.494974522714358267e-01
2.220926237572391493e-01
2.212859341714269179e-01
2.210924448050405056e-01
2.088442517599645165e-01
2.319388778044669808e-01
1.953197687636524515e-01
1.932563789006680188e-01
1.305466819662488009e-01
1.958487579533323975e-01
1.689542919093091067e-01
1.431715275809179178e-01
1.393767561474322236e-01
2.225295183000729760e-01
2.293694554407891828e-01
2.215033363249228338e-01
1.811462271171296046e-01
1.958393228924288909e-01
2.110559335516472568e-01
2.307638336712400373e-01
2.448973090819373533e-01
2.862615654016908429e-01
2.376480946837744024e-01
3.046216660401556697e-01
2.476843743850350721e-01
2.347295013887653325e-01
2.543200112443386174e-01
2.221222258156177187e-01
1.922354664552582693e-01
2.209351896415633898e-01
2.995664073057068832e-01
2.536745026388044222e-01
2.266327749739773800e-01
2.953808571626903579e-01
2.636317525356902114e-01
2.743193981425458561e-01
2.789796105074232035e-01
2.831990243859295320e-01
2.589744448960122902e-01
2.758861081137937710e-01
2.417430296013124424e-01
3.085435227655065615e-01
2.829836883486233079e-01
3.240321463269708602e-01
3.519492395729105771e-01
3.724958425291952091e-01
2.683251692200904204e-01
2.924772046149213267e-01
3.034389003584562761e-01
3.158634779185831576e-01
2.707540993515489269e-01
2.912778458855503350e-01
2.459499543311078618e-01
2.845462261533903137e-01
2.696130313751436969e-01
2.456009140693488635e-01
2.759009620698445464e-01
2.496805738415957265e-01
2.672081808382298918e-01
3.012109366655029152e-01
1.796826527206070723e-01
2.754699953360907339e-01
2.842116882204452910e-01
2.888189813006063478e-01
2.152897009984575116e-01
1.976002460060159727e-01
2.406055567743249357e-01
2.252218922156500880e-01
2.244989187172936884e-01
2.977063347876194310e-01
2.347320312047739554e-01
1.387944122892359466e-01
2.039727962616713630e-01
1.987868192993351713e-01
1.435324474157011476e-01
1.730149349956622840e-01
2.017793781027572564e-01
2.032244389707005550e-01
1.997628647451748507e-01
2.183612396395757660e-01
1.438584402812629337e-01
1.905686961696242687e-01
1.512917327844383042e-01
1.568981606792471395e-01
1.320068163958327268e-01
1.880953446135653906e-01
1.533874671294263581e-01
1.356315273865617566e-01
1.269456316192923706e-01
1.156713052710054146e-01
1.431802036867545480e-01
9.683516525117136231e-02
1.250286699156076264e-01
1.552794514701875961e-01
1.224746555350853250e-01
1.230807156684734505e-01
9.489596045545828362e-02
8.552839829256711490e-02
9.336066817778482241e-02
1.330313564561320938e-01
1.034930583371468926e-01
8.589950685063918456e-02
7.031416934107183325e-02
8.958445623523922374e-02
5.535428912330557505e-02
5.454619006348357391e-02
3.879249192099490373e-02
1.529765341831600123e-02
4.181616144810726410e-02
4.675990835225637965e-02
1.188031237165331350e-01
7.982205806261347125e-02
1.169126483998608745e-01
1.136568922251229297e-01
7.399013175823687671e-02
6.288516204760179196e-02
5.633267312659061277e-02
1.187231366463429028e-01
1.564071946555874171e-02
2.481408518353734466e-02
7.780711264398391946e-02
8.174440670535793041e-02
2.160173838640652016e-02
1.111876993805799158e-01
5.277161934848087488e-02
3.850078097627265827e-02
5.979349010368247702e-02
9.048978945388209960e-02
1.116207382112441998e-01
5.938905787811590842e-02
3.362383542051836094e-02
4.138407786261490140e-02
7.123033941706630179e-02
1.222292570604612549e-01
2.210771105341051423e-02
3.759655632148285742e-02
6.914461339535324380e-02
4.119380059281645828e-02
1.162877125316096744e-02
1.950358440522086123e-02
1.036686656025725545e-01
1.025150591762125918e-01
9.804747420348743081e-02
5.300298418738089851e-02
1.145285710093901510e-01
1.034973277058161001e-01
1.561776705178302138e-01
1.304632495636026124e-01
1.141841765137578957e-01
1.007253350173352852e-01
1.041162118195850528e-01
8.122765816199742361e-02
8.749504317953198107e-02
1.061613586498121042e-01
1.120105498408743572e-01
1.667127035706183480e-01
9.567623937760590114e-02
1.298601359317135551e-01
1.309436788950077424e-01
2.030388851640803349e-01
1.815113287138588882e-01
1.795218449762737145e-01
1.569862995762919544e-01
2.341283045874183455e-01
1.923973629481198488e-01
1.992963396668216147e-01
1.493048140399504120e-01
1.998460514888911466e-01
1.501603966781217547e-01
1.482490923288982410e-01
1.811761232231284824e-01
1.952206046753937052e-01
1.926534372103702042e-01
2.077047782152293964e-01
2.117286315271456887e-01
2.323128923656578859e-01
2.220704491754268151e-01
1.664870085396260024e-01
2.347341174064346836e-01
1.711851015094780215e-01
1.716365323597414394e-01
2.219706742940015520e-01
1.899934447056101927e-01
2.037132345094859742e-01
2.206483096628034379e-01
2.154224484127890971e-01
2.102366403658512684e-01
1.776162041663289226e-01
3.008010636399479076e-01
2.607100164896476446e-01
1.938316927580795157e-01
2.603381952361215612e-01
1.851761356481582965e-01
2.967559087813010366e-01
2.562295886079869467e-01
3.032642012273506493e-01
3.412473454824069830e-01
4.095253580018065609e-01
3.943034140210968652e-01
4.554700236655696011e-01
4.980714945034385721e-01
5.909263502784504185e-01
6.149458071567529549e-01
7.231743021509924318e-01
7.165118795945757402e-01
8.313953377098762809e-01
8.227330396570611271e-01
8.685877510227135723e-01
9.412463011973286608e-01
9.777941320862654218e-01
9.794638106673002609e-01
1.097944746539941008e+00
1.136751962819860351e+00
1.124843692063702161e+00
1.128950795225259540e+00
1.152014065955559108e+00
1.132172502585397256e+00
1.137163080898781820e+00
1.088234486559860770e+00
1.009981072729313922e+00
9.142383713850404936e-01
9.560667393380917201e-01
8.255074188513401579e-01
8.060555779000355692e-01
6.734439380994728941e-01
6.428318992185120262e-01
6.167139898795808151e-01
6.032304379452334553e-01
5.190281660859213941e-01
3.996885873515065857e-01
4.137612549177090981e-01
4.004271266275305496e-01
3.348768220000666873e-01
2.960456339781744606e-01
2.857297895972560342e-01
2.682819752850947870e-01
2.659904594469907346e-01
1.869745919263336165e-01
2.004023697626254319e-01
2.363645619356492533e-01
2.137426140157405174e-01
2.047967775188962170e-01
2.264337800302650694e-01
1.671843981530556633e-01
1.997030711508321899e-01
1.693166372715525225e-01
2.274193259697906977e-01
2.121681677908385522e-01
1.975758098453997413e-01
1.843448181631369420e-01
2.477795754036900555e-01
1.863176210822895529e-01
2.334386764076550880e-01
1.726483089095821599e-01
1.962756371999853644e-01
2.058118327598064401e-01
2.309063517326619963e-01
2.702941945892366471e-01
2.672909463858155754e-01
2.302800066877144503e-01
2.788590784397165234e-01
2.553632305998204677e-01
2.677929985338659002e-01
2.919294625525332698e-01
3.025682169292647217e-01
2.832110510364113098e-01
2.920248388225244462e-01
2.635072904125188575e-01
3.273631340774568743e-01
3.123019979090541076e-01
2.321594921764465469e-01
2.585315528992443990e-01
2.475247797966193819e-01
3.051426036791803353e-01
3.118736845472724895e-01
2.860663700679183519e-01
2.985223506390142223e-01
2.633446842567991331e-01
3.198664107906359355e-01
3.138150580995694439e-01
3.034083691871014565e-01
3.308476595375626772e-01
3.599948305963258099e-01
3.241198062797162049e-01
2.772993491527768195e-01
3.029452224536181015e-01
2.712474963563973884e-01
2.922368949868258126e-01
2.818026203494287674e-01
2.331030028218859795e-01
2.465655867526505562e-01
2.502187104220370273e-01
2.647135108438836149e-01
2.382582634785951614e-01
2.164575121209673103e-01
2.566190646280346876e-01
2.681102788813083948e-01
2.728480680396707658e-01
2.229130472815380459e-01
2.273928990007763884e-01
2.447616247929700617e-01
2.092651857120960135e-01
2.064430769282818434e-01
2.420379988702510421e-01
2.434857222993601633e-01
1.512077444891552214e-01
2.298268429035217331e-01
1.796660800009396708e-01
1.599621745448918386e-01
1.414247324055866728e-01
1.752637199124839062e-01
1.623952082668784769e-01
1.825700695120673345e-01
6.935232038181762815e-02
1.625173618698838029e-01
9.617324557803350049e-02
1.674816414876691417e-01
1.084542663643234262e-01
1.658752360498511325e-01
1.161417714844310001e-01
1.833980973493088973e-01
1.012445100238110601e-01
1.287392102089244261e-01
1.063492575582208610e-01
9.126447154748915103e-02
1.126153552105325778e-01
1.107160210207491224e-01
9.454113019512253024e-02
8.863235599555299715e-02
7.796947435768103452e-02
1.031059209825554435e-01
8.807657208613729749e-02
1.182145149672585716e-01
1.106737367468699357e-01
1.191509517186440104e-01
6.152769976551470538e-02
4.333504965571684242e-02
1.955602032664435774e-02
5.442607329343916722e-02
8.235527332834108316e-02
3.469551450780210961e-02
4.161916273681250805e-02
6.643000305937615813e-02
1.111798818473017092e-01
1.363986565594993774e-02
2.498316047073024723e-02
5.455271623953364402e-02
1.001823116607235553e-01
2.202432953049390102e-03
4.060870269429719265e-02
-9.540996323969316156e-03
3.987935635252685962e-02
-2.371574578088214702e-02
6.266503695705247234e-02
1.847848774141611083e-03
3.763625488029636451e-02
8.238636409715660580e-02
2.771481657151902284e-02
4.107281353493037052e-02
2.028530351846419277e-02
3.059807837458863866e-02
3.141764235371437286e-02
8.572521274724842488e-02
4.689861623011658265e-02
3.836596832423402881e-02
2.651547079048410110e-02
9.626853419097873565e-02
7.203051651372316400e-02
5.457548253414170464e-02
3.036012274730672672e-02
1.082995103307092671e-01
1.018915808826195701e-01
4.271485084657163783e-02
9.683562906311138363e-02
4.157189072672860808e-02
5.751662659050480603e-02
1.767583817485473066e-02
5.108076921391211528e-02
3.963521816600666658e-02
5.240371847956203782e-02
2.795300383873501951e-02
8.586181352901728348e-02
5.145694922277593841e-02
6.285291573582715841e-02
6.094686791179126928e-02
7.784487517371951881e-02
6.253187510693959672e-02
9.875876882731639272e-02
8.596990203798046681e-02
9.772413091137609198e-02
1.022448804460580618e-01
1.096519077354292937e-01
1.238375927161933232e-01
1.651569133780008969e-01
1.314018323633072971e-01
1.189534388909062462e-01
1.561984057767513145e-01
1.576781089083907628e-01
1.222021827317478215e-01
8.701385033799034774e-02
1.637141644586930234e-01
1.119547693719740167e-01
1.478132345747083798e-01
1.622824717261153460e-01
1.155215295967561284e-01
1.342591426861251547e-01
1.399770056791727613e-01
2.032298157721226239e-01
1.511661842313390958e-01
1.811259525329887987e-01
1.941270262933527113e-01
1.676405371834927827e-01
1.147444663502972251e-01
1.745415698611089417e-01
1.624873200702417475e-01
1.383100047050534187e-01
1.963299134120417011e-01
1.387999129261640596e-01
1.500013236494300572e-01
1.580324806663878645e-01
1.620027092873054797e-01
2.246064426678292814e-01
1.480098233446792144e-01
1.446177629943574960e-01
1.793210048403048873e-01
2.212298289502184490e-01
2.626717103841739176e-01
2.199014427380062697e-01
2.829811997678630675e-01
2.848141395793511998e-01
3.592856915468924384e-01
3.193909450777894232e-01
3.660604111757359558e-01
4.819360439698971432e-01
5.173618630576252153e-01
5.318920464743992493e-01
6.126052509759097875e-01
6.659683135049127012e-01
7.363500780123817258e-01
7.830063092794462554e-01
8.129995999084017599e-01
8.724438587409705237e-01
9.267791654140707935e-01
9.940941475733876542e-01
9.908567057386871157e-01
1.056950525103754979e+00
1.050949366366341842e+00
1.140102093723301069e+00
1.105236444028590004e+00
1.096016883207858506e+00
1.082964135890855939e+00
1.058224348750255617e+00
9.616370837110457259e-01
9.569524091348885486e-01
9.208714100070756192e-01
8.889433851137510390e-01
7.988720672631682840e-01
7.429145310033078431e-01
6.777739152068159578e-01
6.456115187757001106e-01
5.749424374948826078e-01
5.151719737149033085e-01
4.237871792369892199e-01
4.136272583564247207e-01
4.377131617148794507e-01
3.129872444965437484e-01
2.759240630420467522e-01
2.253336053882460943e-01
2.197427845327453166e-01
1.895349607559803085e-01
1.734603870493685585e-01
1.480685757905609301e-01
1.995134439056450437e-01
1.831686259658944216e-01
1.184176144175265594e-01
1.174491801460092327e-01
1.725885055831467840e-01
1.672666152708588705e-01
1.980194523291452513e-01
1.751451329876395624e-01
1.368430713089789919e-01
1.627495204058007905e-01
2.254633105909382429e-01
1.604338073756877980e-01
1.876293305224126240e-01
2.000367491227761363e-01
1.455930487564778830e-01
1.584048931500453006e-01
2.324896197425477817e-01
2.153052826131180153e-01
1.779536769715096278e-01
1.645267321099890823e-01
1.970479108257894851e-01
2.069999939770516273e-01
1.952984500195070749e-01
1.812371559299291168e-01
2.671959877710067266e-01
2.195329978843486574e-01
2.702941415895501742e-01
2.364484995955979107e-01
2.078955746240538915e-01
2.417334886324850607e-01
2.399450664267145372e-01
2.336472606589217738e-01
2.108902725688564239e-01
2.554602821592742434e-01
1.701854681532581626e-01
2.583511436122629679e-01
2.710089458254016370e-01
2.470272693848775403e-01
2.269986088868471974e-01
2.244121069711912941e-01
2.753645935560013469e-01
2.560375604526767268e-01
1.869585348027520966e-01
2.053003596672228481e-01
2.352630547361476143e-01
2.037865838210897729e-01
2.743132552462171359e-01
2.202661393322578876e-01
2.142411892651100436e-01
2.224554863178094255e-01
2.561507298329915860e-01
2.405641206129245924e-01
1.523273386761515025e-01
1.970185856424573889e-01
1.499171339672501768e-01
1.760205075229454297e-01
2.180434136145719126e-01
2.225963702295042368e-01
1.878829183448385287e-01
1.925705478875261445e-01
2.289866692773256385e-01
1.782656776043177460e-01
1.681418658876980277e-01
1.630510509814668829e-01
1.718740156476798453e-01
1.707343228679405189e-01
2.024420358314942825e-01
1.543791878205854062e-01
1.478253942229258988e-01
1.493373968858502931e-01
8.585319892495878180e-02
1.344844932366356938e-01
5.664956125734099679e-02
1.499943707797833092e-01
1.555248370839702188e-01
6.078406258518195826e-02
9.938493283559776681e-02
7.740376627296592649e-02
1.707913185078560603e-02
1.114466162293777651e-01
6.608728910353506292e-02
7.997895864977103142e-02
6.247923859493727250e-02
9.285495120311987316e-02
9.359746262911994297e-02
5.897449930663796469e-02
3.252076533967972194e-02
4.556209001321565033e-02
3.761168912581495938e-02
3.215100575992411308e-02
7.103108600972757314e-02
3.281634600136274643e-02
3.432242232156818007e-02
1.795208618121468119e-02
3.576812516157615307e-02
7.676299356169091759e-03
3.955243382566003829e-02
3.178328776329247818e-02
6.651822055466848072e-03
-2.663270776932971998e-02
7.057036658775425741e-02
4.168200546235597409e-02
4.402373907329225344e-02
3.988042235436070615e-03
5.280043482490574813e-02
2.747216482129000159e-02
2.854806631939319286e-02
-1.014298866840103973e-02
1.117421315671765850e-02
6.317934235581906810e-02
-5.431915243236051793e-03
-2.948899245985745626e-02
-2.476549552243066665e-02
1.773134816685678627e-02
-5.737997996099854225e-02
3.511539758792084354e-02
-2.612301429829389648e-02
-4.358167723014368111e-02
-2.225371896752622453e-02
2.586497917908304328e-02
-6.671525361038947721e-02
-1.917512903191221502e-02
-8.569174472030486461e-03
4.723703093548827642e-02
-3.124273082843826918e-02
9.626637986087715343e-03
-4.213547040556921142e-02
4.492181735801107495e-02
1.656853746300140234e-02
-9.652773307237894757e-03
-2.490232863109648198e-02
1.016714652984286940e-02
-4.268535230472716990e-02
4.126614530439338957e-04
-4.896388440506749262e-02
-2.926716746517588758e-02
-4.094616534681023989e-03
-1.824022786655540851e-04
1.873597513568882322e-02
1.215841635815576721e-02
8.603545477438349909e-03
1.838061699760508427e-03
4.871536984684676774e-03
-4.225126659538971235e-02
3.236038292841643405e-02
5.745499713944429016e-02
2.225014078899802822e-02
1.061443128758686461e-02
5.338608222400431647e-02
5.835282363579361031e-02
3.855253498621814129e-02
9.127424830903593800e-02
6.290111674179252321e-02
8.022778890417457676e-02
7.283961346288889138e-02
6.215871940612553714e-02
6.128584003781527983e-02
1.324556889807903259e-01
6.447501146614381673e-02
8.757573455503692150e-02
8.045192106402224153e-02
7.438200362714403324e-02
5.663556485305952515e-02
4.362608521508418158e-02
1.511867015338175246e-01
5.840808607518050560e-02
4.867169207857591912e-02
9.388153192602544106e-02
1.045506852503600426e-01
4.482541265175074563e-02
8.282402074599976016e-02
1.084227001539105895e-01
1.029518479240384837e-01
1.478950260067174449e-01
1.076844421784670380e-01
1.122953457875594668e-01
1.084434881442473131e-01
8.038366899504469087e-02
1.242499214576259781e-01
1.395137061586227412e-01
2.023276799617452215e-01
7.415724402496003120e-02
7.101826309814153471e-02
7.964575956058739248e-02
1.222229450240006204e-01
1.305336583562239638e-01
1.262498404891155002e-01
1.475712189677488850e-01
1.787942557423460310e-01
2.360494690063118794e-01
2.463146754335104882e-01
2.596418716998802889e-01
2.284647511358184890e-01
3.097346137517233422e-01
2.940275117530047333e-01
3.472597688949921602e-01
3.738562900248315057e-01
4.372267620959502388e-01
5.657344509203173777e-01
6.138106797836506701e-01
6.708847695201349826e-01
7.285003753591016151e-01
7.465890785759390358e-01
7.693319743910912445e-01
8.666923526788864462e-01
9.407169689184834427e-01
9.227957372071033948e-01
9.398368804342652760e-01
1.006093990375615865e+00
1.010969403633419139e+00
1.086799193478236170e+00
9.909088402391630357e-01
1.050917871782183211e+00
1.030433756516513144e+00
9.570137142147070453e-01
9.470499813972712566e-01
8.457009179758537831e-01
8.510182030946844556e-01
7.566675896482086827e-01
7.092388118230964489e-01
6.863911150093735536e-01
5.904233246290589987e-01
5.386760622274587851e-01
4.763627116712473852e-01
4.099953875371211698e-01
3.568461498075674032e-01
3.377225154326382595e-01
2.819589772598824484e-01
2.874604293687892387e-01
2.336969790474637265e-01
1.549933642282729507e-01
1.728055216195963084e-01
1.431503276317231677e-01
1.288794599041966915e-01
1.099205685058199933e-01
1.361376011719264145e-01
1.263583255900733171e-01
1.053126435137183708e-01
7.855509683663064457e-02
9.792999857472894920e-02
3.589813957934216704e-02
9.237036567087666961e-02
6.002370667029988116e-02
6.581117036750158689e-02
9.384491499086862476e-02
6.094719008096034785e-02
1.808506132517735399e-01
1.641408048571309786e-01
1.256443560783618851e-01
1.642162169296594865e-01
1.614004606441916123e-01
1.349820528752699034e-01
1.425620645676296261e-01
2.130947454041459410e-01
1.988209750147402755e-01
1.962543769299129603e-01
2.120937591935525557e-01
1.548125552952836492e-01
2.127119233134641407e-01
1.137967033598994149e-01
1.548455262798670018e-01
1.991586110411112109e-01
1.361342476033804427e-01
1.805261943704757899e-01
2.544334247244456337e-01
1.521668530592175939e-01
2.199733462402190254e-01
2.452346199673172689e-01
1.735934593943724014e-01
2.707236429695780711e-01
2.169244580329602878e-01
2.274810063204998067e-01
2.398936194924074783e-01
2.008275633932220805e-01
2.128427580156627419e-01
2.708698396917075257e-01
1.825599823111923870e-01
1.912330443501933375e-01
2.046664646271196264e-01
2.077406711400832939e-01
1.987986640502175106e-01
2.349876613384290769e-01
1.741978833604618249e-01
1.865307890259418622e-01
1.906518593755695268e-01
1.570471853065706636e-01
1.834923819218523822e-01
1.166604964223274393e-01
1.558362989425216838e-01
1.692139131305827882e-01
1.208267001738919100e-01
1.757598025829277821e-01
1.208021687776263814e-01
1.307871581684012241e-01
1.527926643436974818e-01
1.510181322137639504e-01
1.702805379991880752e-01
1.193246906891437531e-01
1.694995368361935928e-01
6.916055718612160175e-02
1.202897321016649368e-01
1.414473736316271546e-01
1.044706561746075735e-01
4.514281427619432768e-02
8.317862484949017920e-02
7.040430983326571857e-02
6.163220102752446639e-02
6.926693864038745152e-02
3.389581274768894287e-02
2.966623348821646744e-02
4.574043428679750584e-02
8.281254415126104718e-02
2.342134042864232879e-02
9.591340616519611340e-02
3.535978555942120849e-02
7.406705041595149086e-02
5.880802463142090208e-02
1.180905691515365952e-01
-3.651149147964792563e-03
4.232576434153850764e-02
7.828267786788600802e-02
2.957517657295336694e-02
-2.935479582306227408e-02
2.595247309646998846e-02
-1.397165339874800738e-02
-8.680497105646625688e-03
6.429149166861333753e-02
2.253638875582998635e-02
-2.334033647459128613e-02
5.466050447886203201e-02
-5.360489460988793198e-02
-2.695741822797163845e-02
1.157308715368075142e-02
7.790823125658744019e-02
6.809498827123477982e-03
7.502222460805473003e-03
4.757673335361588263e-02
-2.163516098702251630e-02
-2.859212196941974052e-02
-6.536936227446221714e-03
-9.262992496228313055e-03
-7.065865404408362693e-02
-4.503958774638310014e-02
-6.304546563422115668e-03
-4.850711440965400911e-02
-8.033667448297035496e-02
-6.009237367418327619e-02
-5.990415374293081574e-03
-5.392542892175627989e-02
-2.524639279758273541e-02
-4.945661420581137085e-02
-4.125129607794170844e-02
-6.995417714292163913e-03
-3.741786598426476151e-02
-2.903175238741214151e-02
-5.803847447543115934e-02
-3.139934683584497122e-02
-5.339510967285671789e-02
-4.120188138042230053e-02
-9.208799609794474095e-02
-3.743730700898570407e-02
-3.558072924030121487e-02
2.700445204163246654e-02
-2.612168707126481457e-02
-1.026994091907664636e-02
-2.296236850682100913e-02
-8.716606284768566026e-02
-1.816471581954366699e-03
-7.037780912098172414e-02
-1.014926282226418924e-01
