1.082101825931580441e+00
1.052710126124393186e+00
1.003790044248544122e+00
1.035713612297280095e+00
9.005675335011575910e-01
9.326576563899219297e-01
8.564507622267869547e-01
8.568972724051400203e-01
7.964716148260791995e-01
7.392447920976539244e-01
6.255794930592366576e-01
5.872070293584407130e-01
5.069570679904835675e-01
5.030237478543504448e-01
4.060871764616775792e-01
3.692115670195722510e-01
2.759471394400846989e-01
2.824766276784852481e-01
2.336782000605043264e-01
2.446919374783023127e-01
2.033451211557589233e-01
1.146795995126098644e-01
1.587218830838875994e-01
1.017441194553799777e-01
1.809437437305569107e-01
1.131650862417297454e-01
3.544188056747468035e-02
1.269410282787169497e-01
8.376233953256406739e-02
1.319556018879042003e-01
1.427033698735092060e-01
6.848766416736809526e-02
1.074126321234787629e-01
6.143172403846115792e-02
9.511482688924269291e-02
1.681392405135435641e-01
1.034288906458246393e-01
1.134559107310487702e-01
1.127744450772210083e-01
1.280195297822382394e-01
1.813933302232628442e-01
1.701867550156601350e-01
1.224302581034886345e-01
1.948954977183505466e-01
1.120185487830309828e-01
1.642684857561165501e-01
1.439017017009032173e-01
1.429255409631137175e-01
1.900655594252322889e-01
1.958392173327121455e-01
2.240002114299866065e-01
2.382844184958002876e-01
2.227588197940602310e-01
1.673268322020449728e-01
1.982941253259986603e-01
2.034058262362880565e-01
1.609742300461725062e-01
2.010129295886786960e-01
1.798448587302367008e-01
2.286654049889241258e-01
1.970086741731088276e-01
1.972574286992860859e-01
1.280531268065989159e-01
2.215625790001059803e-01
1.857431161292529553e-01
2.228488610518940816e-01
2.218806034772572988e-01
2.165883497349440079e-01
2.091878223625685540e-01
2.058965105915096516e-01
2.048639399521084425e-01
1.756701887641209381e-01
1.757763661643382547e-01
1.654555748980978402e-01
1.941458806207213561e-01
1.832129120204382955e-01
1.832788676854022747e-01
2.172626967249391972e-01
1.689572748355974707e-01
1.515605673401127507e-01
2.042700934670864388e-01
1.770386165560171310e-01
1.539960635865048888e-01
2.048067795989571283e-01
1.819123226459409270e-01
1.980251377859168493e-01
1.918503201836452010e-01
1.482632813631880042e-01
7.747903129574908176e-02
1.442590603971173335e-01
1.711726059789579479e-01
1.507828509695496866e-01
1.422207512230513893e-01
5.503483024252375788e-02
3.451746704395349669e-02
1.344165942555281268e-01
8.037761720209464500e-02
6.450388692423204839e-02
1.422738028085282491e-02
1.359543074202348434e-01
8.148621036411975160e-02
1.062633451100588877e-01
4.171137438579096413e-02
8.851002617736354605e-02
4.371156025697865016e-02
7.064970944372880868e-02
7.456797844317988866e-02
2.091582874953488297e-02
4.327970482398239838e-03
2.373794553456282097e-02
3.155826540262477581e-02
3.963399087946761074e-02
2.199657057502316798e-02
-1.319079804508237891e-02
1.359384404581658046e-03
2.848026594092320507e-02
5.337049902071247520e-03
1.490722160003706692e-02
-1.891004183431091445e-03
2.009531549138070250e-02
7.920382650784471568e-03
-1.827211732676994188e-02
-2.095533411604759075e-02
4.769736585144811192e-03
-3.484000768705483586e-02
-7.722266916367893225e-03
5.265532539031829440e-03
8.043152884236977329e-02
-3.799826529356970656e-03
-4.406791781200092295e-02
-3.788937869272004932e-02
1.850691251799602491e-02
-5.140942391289865521e-02
-2.461183557284699758e-03
-6.139120080206954266e-02
7.610066187854504921e-03
-2.173310108359799778e-02
-9.979370595615377759e-03
7.303730387172670258e-03
-1.011002463316662825e-01
2.366714008078354969e-02
-1.611846502656548788e-02
-2.573182200716410406e-02
-1.571115749450598120e-02
-1.328035001061770616e-02
-3.515138292053264502e-02
-5.097337737798714186e-02
-4.740335017913034632e-02
-1.292521360363060867e-02
6.058318417944127260e-03
1.112866517462353377e-02
-1.606724301281808875e-03
-6.384716065576581667e-02
3.880962128555152935e-02
-1.290146854229479861e-02
2.654161543767762088e-04
-3.204054258440396097e-02
-4.091706788332473421e-02
3.301148208476231000e-02
-2.107058109578254304e-02
3.359234513664058341e-03
-3.305371997826835051e-02
3.130022535399044903e-02
9.316606885675541433e-03
4.522998162369641639e-02
1.030665281459574797e-02
5.521968100705147708e-02
1.295293374840406422e-02
3.903190079332774509e-02
7.129262295182816483e-03
-9.154892093112189377e-03
5.310029854154214163e-02
2.411005003188292084e-02
2.839061649006225166e-02
7.408937056084467787e-02
8.446210980728049988e-02
2.856025396010073922e-02
1.202365599585650258e-02
2.622997389627006529e-02
2.118586627649808249e-02
4.330105104962470031e-02
1.339221312739776737e-01
1.502466064506671750e-03
9.869234438118920649e-02
6.788065199011308892e-02
1.097548883323220259e-01
1.473577739777014728e-01
7.050230290238909681e-02
1.472503224168851266e-01
1.074981143158686980e-01
9.471887784510386876e-02
1.101128550585976223e-01
1.040491498293607542e-01
4.975495660661838349e-02
1.379665209764721623e-01
1.189369807336069507e-01
8.722563340247369013e-02
1.120117396832955858e-01
8.760860521241442544e-02
2.026749302834056354e-01
1.270274066873148255e-01
1.619044366498692822e-01
1.500427805717795271e-01
1.525853492248517573e-01
1.804347477136312994e-01
1.632460641942121982e-01
1.563136562771435534e-01
1.787117903205344971e-01
1.468413437603806326e-01
1.956576740097991374e-01
1.466497256521430426e-01
1.506883266405792676e-01
1.374690773579398395e-01
1.413190875495874133e-01
1.538495165239082696e-01
1.643299107921355195e-01
2.065473961639816836e-01
2.244076893647494186e-01
2.840703442557556135e-01
2.843624693161375672e-01
3.555760177220253504e-01
3.641984652024433666e-01
4.052901358139375243e-01
4.995039510755101553e-01
4.893812721378174579e-01
6.016764531586334952e-01
6.402788578585164592e-01
6.888102469241115244e-01
7.694398075938648773e-01
8.082482458329909303e-01
9.538330619281772949e-01
9.163505352157139683e-01
1.003863317933764376e+00
1.012414785800842099e+00
1.016665017970329821e+00
1.079395402112260038e+00
1.133361458662310639e+00
1.067557578410976094e+00
1.101699922342151305e+00
1.029664763309132036e+00
1.021198381125484778e+00
1.025657669170231268e+00
9.983706425676478480e-01
9.271870819742700220e-01
8.903533720588140410e-01
7.828837086243662924e-01
7.758974508813488713e-01
6.898430074893786568e-01
5.504404995906609921e-01
6.018992886462588565e-01
4.531982550865807924e-01
4.346649482159865574e-01
4.521535132216467634e-01
3.482715613432060819e-01
3.285374836034984369e-01
2.801214144613211054e-01
2.199092739418350151e-01
2.450496846052658551e-01
2.118120168945487047e-01
1.409728720835566884e-01
2.224319985524632060e-01
1.647798937798012064e-01
1.421560125731761992e-01
1.292529695852788207e-01
1.238147407108865505e-01
1.497486936691508341e-01
1.363411546687584852e-01
1.780805946779094873e-01
1.783806302614260320e-01
1.514190428631075891e-01
1.800424023018425135e-01
1.389226887049163917e-01
2.078842754585946695e-01
2.153296712552895120e-01
1.641329127075831784e-01
1.606135892203296167e-01
1.995170947641876635e-01
1.865866463322742586e-01
1.974646903431023781e-01
1.704296705221487462e-01
2.201626211894605611e-01
1.424445032136411049e-01
2.045309624454885178e-01
2.482991115910393454e-01
2.042830630119850110e-01
2.246645657155442732e-01
2.291259180985286137e-01
2.432609478382670443e-01
2.453479086850440805e-01
2.695202098455740103e-01
2.472121376159882311e-01
2.535261289061038203e-01
2.465302024091904354e-01
3.036822348375470826e-01
2.778859634140476986e-01
2.941841403216672868e-01
2.782628538182100320e-01
2.957297431554556377e-01
2.419792920697391436e-01
2.897959550227031111e-01
2.730947783276829743e-01
2.816922078960176767e-01
2.348584975970181843e-01
2.761510693695082841e-01
3.092066585423932645e-01
2.528570595801614140e-01
2.908656397754398881e-01
2.408703677601270743e-01
2.514737672515722777e-01
1.723955749807110638e-01
2.007932907267541423e-01
2.528396616745346437e-01
2.387894327763282754e-01
2.668694111337744368e-01
2.039612134005960309e-01
2.574956686780634496e-01
2.182436656812389020e-01
2.535740108600718079e-01
2.266056369034102069e-01
2.071451560475625342e-01
2.555269708269359286e-01
2.343166481051197625e-01
2.430277534447110310e-01
2.088162156159092397e-01
2.130981085548884213e-01
2.262275115216093313e-01
1.609198808683486859e-01
1.946224198889338342e-01
2.233119644135439230e-01
1.754153489627519880e-01
1.439509114237947085e-01
1.165523410605641408e-01
1.698470462875696363e-01
1.510139933294772641e-01
1.680920071242588132e-01
1.413622127636778303e-01
1.173941438646579488e-01
1.718186628835087215e-01
1.733592718718889314e-01
1.634410244320609051e-01
1.076486965482760655e-01
1.354205519324126472e-01
1.437678491927625868e-01
1.103493961581774457e-01
8.548427590929806585e-02
1.033092330940132975e-01
1.148083808619980023e-01
1.291035983329399395e-01
1.247575730739315381e-01
1.033434409183125041e-01
6.948392023390613514e-02
7.977424482922011728e-02
2.909673475897580491e-02
2.169798975275331887e-02
4.374818475415691299e-02
9.581702340987525990e-02
2.654265992389099812e-02
8.660580174741232262e-02
9.500450696088907909e-02
4.482022817805608739e-02
2.687167720325675871e-02
5.387153519673557045e-02
9.147573606389185208e-02
6.022842559593648976e-02
1.535618384311877513e-02
5.425226283969713376e-02
1.072791325961853365e-02
-1.552061932241183967e-03
9.330386506338329833e-02
4.511091966331060021e-02
2.769207415444708414e-02
3.285005256248312022e-02
1.451863340750619499e-02
-1.555775914407976981e-02
8.101986796342168506e-02
2.862140902834157952e-02
3.671482087415976758e-02
5.755990399288750392e-02
3.965882329920437238e-02
1.691258736076569832e-02
6.559933559235285594e-02
7.462502112339527982e-02
1.068398813081703341e-01
3.686365540099124233e-02
5.309348374963428208e-02
4.970763068483002867e-02
1.809505145619828143e-03
2.088084136950829617e-03
6.000541883444691915e-02
8.965935584024693761e-02
4.829862240583641941e-02
-1.660751230643663090e-02
5.663151993327214528e-02
8.108383323548060129e-02
5.291790656537460891e-02
7.573878296665559340e-02
5.212019209808657627e-02
6.286277289775231425e-02
5.969357581584337769e-02
7.113418715914746060e-02
6.090438330313896476e-02
7.032400943750727329e-02
8.713777768067625107e-02
7.464609575044950374e-02
9.403417448643791587e-02
1.043625095151743121e-01
7.126280555732553146e-02
1.233924369347300098e-01
1.070512580090056953e-01
1.395516037011184096e-01
6.222405848330574141e-02
8.749369671059353815e-02
1.036446619529514945e-01
1.015586401030081631e-01
1.156792311310454180e-01
8.081819483704758000e-02
1.158534760000649311e-01
1.333809261812736735e-01
1.323315125561375649e-01
1.308187400771837483e-01
1.393769914328562010e-01
1.583690739972746231e-01
1.766912807160603283e-01
1.860750669173221183e-01
1.335745928172475394e-01
1.876293861581765365e-01
1.912127736570730929e-01
1.652170782051166353e-01
1.694336246344431973e-01
1.472464440951488929e-01
1.407242854951127886e-01
2.143849290103214678e-01
1.966878489814664621e-01
1.872544898301097827e-01
2.358505084975188182e-01
2.006331673301863239e-01
2.056620813261436642e-01
1.883204588237845090e-01
1.814404633796477817e-01
2.297151006327716460e-01
2.335935461369550159e-01
1.621347640411780200e-01
1.963178979085767328e-01
1.999525826040258747e-01
1.340255139335750356e-01
2.455335312808882564e-01
1.433860181573428927e-01
1.867454048008435064e-01
1.994451922495889262e-01
2.339724076730347324e-01
2.424399260184340599e-01
2.516677194176480947e-01
2.253443021480300013e-01
2.444011103138098440e-01
2.834705200360116417e-01
3.244926874940402550e-01
3.414252923528046102e-01
3.562942269162232556e-01
4.498831572057327421e-01
4.150177399380364229e-01
5.005642771404332780e-01
5.680162262836646603e-01
6.214976719945314310e-01
6.993870820849601433e-01
7.013710921101642404e-01
8.107552150985042339e-01
8.160318338034772134e-01
8.991244656746415487e-01
9.603269207719410394e-01
1.070811253283037612e+00
1.079883366805440170e+00
1.112596705151908116e+00
1.164206269901428836e+00
1.147529118374465584e+00
1.144303700231895426e+00
1.205956701836693234e+00
1.133030123167218628e+00
1.075594398739463387e+00
1.051211879597577781e+00
1.056087493797393195e+00
9.866867911120278389e-01
9.191076593442025766e-01
8.887161418738912522e-01
8.225354475742768789e-01
7.478022950818294934e-01
6.846282820462177288e-01
6.066429457261173219e-01
5.445031459477467362e-01
5.345274218197028082e-01
4.963703030406613759e-01
4.530945042820448965e-01
3.683027986932830289e-01
3.112091088568567643e-01
2.756213309477423268e-01
2.482999107841402098e-01
2.496406127110899209e-01
2.487029936755257298e-01
2.234878810541702232e-01
2.141824747510625571e-01
1.524751641557882675e-01
2.094347833715201612e-01
1.631859159569346851e-01
1.359576921654594150e-01
1.876201039275505744e-01
1.997380929196707344e-01
1.762366400152484691e-01
1.884248935847064599e-01
2.102004071025166954e-01
2.423005542349636054e-01
2.397287604531576632e-01
2.252541590209933275e-01
2.426136262546145228e-01
2.156502696889558979e-01
2.443697990848270052e-01
2.642997579369715244e-01
2.691480394116188557e-01
2.229986417485982364e-01
2.907979056435993637e-01
2.958842266099128704e-01
3.125037717884930344e-01
2.597407036785848722e-01
2.078933144885744266e-01
3.065081755430826282e-01
3.268770011469030456e-01
2.913363958624708427e-01
2.721857011798529680e-01
2.703004020013440867e-01
2.809557270593010525e-01
3.426094504612440805e-01
3.022906173017591569e-01
3.119180122637832397e-01
2.870141995717272465e-01
2.406278280108098411e-01
3.873147619406859254e-01
2.615570882693065147e-01
3.202165725937655139e-01
3.185448079221727680e-01
3.319093424816124127e-01
3.322372903026965529e-01
3.177857937043486181e-01
3.107044147576248916e-01
3.374947287064073431e-01
3.578340302038714449e-01
2.670023924422699757e-01
2.728182017054580633e-01
3.099492385261214400e-01
3.094058981605802838e-01
3.048385974561080847e-01
2.526979642654590408e-01
2.782385014663555922e-01
2.712743625016120208e-01
2.609352851028754472e-01
2.992090482690315523e-01
2.824606913435525612e-01
2.589940462203424998e-01
2.728801560691253014e-01
2.522371650937366705e-01
2.819818122677425487e-01
2.383572579404918679e-01
2.556634798316064217e-01
1.961415012447616513e-01
2.231028689515762164e-01
1.766680576840675143e-01
2.271223334294893703e-01
2.034815413025349851e-01
1.631335487887627944e-01
1.793647982179005507e-01
2.638699541204012067e-01
2.008412136221090771e-01
1.845979424142152325e-01
2.397817812012330019e-01
1.570444602342494778e-01
1.068368144100053929e-01
1.675093111029515580e-01
1.530482346727712328e-01
1.751761727568520166e-01
2.131394322540551001e-01
1.295293820085028358e-01
1.035902245883735528e-01
1.337379039243100365e-01
9.855147734519884017e-02
1.320530280210921448e-01
1.466588193924723005e-01
1.557050601110049892e-01
1.108819616473129266e-01
1.054913460049712176e-01
1.088496389496853428e-01
1.269641492672517746e-01
9.181920538644874896e-02
1.363326985927086066e-01
8.492609555185456904e-02
1.310235836913637708e-01
6.924693515626180462e-02
1.128168901405450647e-01
6.800062031654055539e-02
8.442307458547257393e-02
1.113702417253831095e-01
6.328970292206148596e-02
1.356145911558632178e-01
9.264683834666412321e-02
8.659221535791486457e-02
1.258524856089359156e-01
1.253816512286131390e-01
8.410613070503999977e-02
9.563914254030382589e-02
5.870193955573216327e-02
6.982655580864993716e-02
1.859173651612730169e-02
7.838637291535462126e-02
1.097472529288484322e-01
7.403815255411762275e-02
8.879929628253525886e-02
4.446068484720673564e-02
2.862303184912873277e-04
1.791532843231136152e-03
1.370093495826547186e-02
4.989647733831286541e-02
4.274931754187463739e-02
3.517454458532218164e-02
6.101754810149235403e-02
1.087338541355717392e-02
9.239642089093047517e-02
8.000367391051577126e-02
7.211193008113121750e-02
8.449689414628876183e-02
2.375033030699920389e-02
3.244501997889769063e-02
3.867415260176895742e-02
5.215541685404484484e-02
7.955036121719775977e-02
4.421943281709139750e-04
6.409956155030206715e-02
1.009122858116358462e-01
1.716746421529921629e-02
7.548381854866399732e-02
7.789318816707191395e-02
7.096078431716459911e-02
8.133713234102052381e-02
7.216253646062067983e-02
4.552840251568329721e-02
9.456776941167306660e-02
2.547011561203991331e-02
1.126254375825952447e-01
1.031765789482960438e-01
1.064721602894752595e-01
1.217689839284132464e-01
1.552966933233217994e-01
6.071044464731117918e-02
1.201920449692470139e-01
1.506380745539387112e-01
1.848957565864942088e-01
7.679295121353860165e-02
1.204203410153374953e-01
1.877108291591061684e-01
1.264829330555034270e-01
1.107222990073743890e-01
2.200357566641316098e-01
8.976300599483172382e-02
1.742924721249249909e-01
1.409741028493746440e-01
1.415562393053174106e-01
1.901979135664247367e-01
1.817905728755596917e-01
1.782109934434400467e-01
1.950149212308591451e-01
1.525161794789536285e-01
1.943674947038387946e-01
1.859237905219700004e-01
2.154502916661367173e-01
1.658823843795586284e-01
1.994632042743105793e-01
2.233373089564612834e-01
2.217288568704986473e-01
1.576641283761653911e-01
1.826688125042199018e-01
2.243388978246433629e-01
2.310506976176803784e-01
2.488334582660348127e-01
1.836025695666261004e-01
1.988303833781129570e-01
2.443958318541345487e-01
1.910793083554196414e-01
2.370325140501480243e-01
1.828949258039731796e-01
2.077293045442946129e-01
2.130112592876908240e-01
2.252260899013346640e-01
1.869262930394999245e-01
2.453859420460937080e-01
2.091320355544490639e-01
2.736467149409168576e-01
2.560600770127929859e-01
3.226066729873487970e-01
3.560721797984577330e-01
4.140010584106648683e-01
4.695882618687983179e-01
4.567538813622465943e-01
5.212514434005990349e-01
5.460034300493419313e-01
6.935690081768989268e-01
7.480776730681872877e-01
7.415613899815055587e-01
8.122965130460215732e-01
8.571193526582133737e-01
9.127903289422594213e-01
1.005700700850980178e+00
1.030815190171446405e+00
1.020925703286462483e+00
1.102062818541476474e+00
1.172196352476487569e+00
1.132011801425251596e+00
1.151631913818906394e+00
1.185979654345791223e+00
1.119956492692925076e+00
1.134111559499795918e+00
1.040180774394671603e+00
1.013517313192380920e+00
9.522151074504460189e-01
9.145448194890767324e-01
8.251096346758849398e-01
7.448308818365629858e-01
7.159669811403983619e-01
6.757137251128694233e-01
5.959317294262913567e-01
5.105919632226790794e-01
4.955726213003930902e-01
4.248487139219345177e-01
4.523175278016986489e-01
3.642554561080223463e-01
3.292744785532615293e-01
3.330631077400096896e-01
2.967976319496930526e-01
2.428431649856918340e-01
2.438301757844419382e-01
2.258554606936410136e-01
2.035100580168811846e-01
1.790751007560288655e-01
1.447498591501478749e-01
2.089571271670641328e-01
1.968833968639679410e-01
2.059143625300911551e-01
1.523758604884816459e-01
1.253184789440024427e-01
1.607368257047631366e-01
2.003249291650873731e-01
1.407572211699708309e-01
1.978607698481290034e-01
2.002922772152926634e-01
2.612077564835846299e-01
1.701653307018312078e-01
2.064624991949875477e-01
2.236664031039096445e-01
2.706600628834917588e-01
2.274857262499247468e-01
2.566767559342207905e-01
2.300719640915478703e-01
2.353564612116993138e-01
2.182719660026282704e-01
2.285775067182778675e-01
2.277139488143054002e-01
2.713710520311688468e-01
2.263868611281470433e-01
2.463425071413505307e-01
2.668373119735288901e-01
2.324480186464219778e-01
2.344403734345202606e-01
2.372236447341165011e-01
2.726403293428876218e-01
2.675569068816835983e-01
2.526653876290588796e-01
2.592383830916405452e-01
2.958312963235197879e-01
2.837379827414581168e-01
2.888372040801039375e-01
2.821557386841321291e-01
2.337634725167200833e-01
3.035694840008126838e-01
2.888437827813097325e-01
2.612204900132230612e-01
2.334624035195911884e-01
2.456601316402477753e-01
2.436624547668366225e-01
2.643269024476619933e-01
3.057976852624464392e-01
2.882009694719977477e-01
2.188887038289659970e-01
2.429640434414038763e-01
2.535152692848688383e-01
2.210156667359330362e-01
2.724009329601619900e-01
2.034125997077673165e-01
2.491642266157018948e-01
2.213145983403664308e-01
2.412305230773283404e-01
2.523197852396311669e-01
2.116638377053568776e-01
2.295996965885848118e-01
1.588812292612808430e-01
1.696836005118299018e-01
1.779312071737961243e-01
2.267147487731761279e-01
2.205989657159675155e-01
2.075512945929490760e-01
1.654416753840192433e-01
1.644376443230936291e-01
1.214190195826211488e-01
1.018877080915073507e-01
1.523648022409865577e-01
1.092366560822096433e-01
1.541243829513465058e-01
8.671077830639052630e-02
1.466117847152325349e-01
9.142842126923990398e-02
1.499129671932044605e-01
1.515475490700960437e-01
1.177841910528452940e-01
1.328973822763118984e-01
1.015728405222658948e-01
1.061237364121049576e-01
1.383972830198219317e-01
4.148518210020629010e-02
8.356341934069398680e-02
8.231653984958639536e-02
1.159333752897908493e-01
6.865094278924598059e-02
1.001783466860653310e-01
-2.265637108302765226e-03
6.664697098892344296e-02
1.400712482677986814e-01
8.537570521985057836e-02
6.725545595333920490e-02
7.789568646296969601e-02
2.432505580552670604e-02
2.326752649530806211e-02
9.679968976918366941e-02
1.457419099338311957e-02
7.124864508054101764e-02
-5.544315909275943782e-03
4.083988128739191037e-02
2.841266985093842540e-02
-3.021642561598474053e-02
9.228916423477949438e-02
-5.896539209291276271e-03
-2.109183406216038822e-03
-3.109423887983592261e-02
4.386735621923022743e-02
1.123432587559872881e-02
1.157234170863104608e-02
1.729668773450208225e-02
-1.007852537867224771e-03
3.621429999926622373e-02
1.189548333558948859e-02
2.770972809120341926e-02
9.829130447577886370e-03
3.193648127714010521e-02
6.978127322527644116e-02
5.021362243510181511e-02
-2.251148574059879531e-02
3.531730941465203999e-02
1.524147772856971478e-02
-5.593734413267125762e-03
7.216079958384294391e-02
2.124522500677922948e-02
2.343997268030953082e-02
-3.142434445913844417e-03
-1.510435405537293926e-03
2.286337017205815683e-02
3.782204042295887747e-02
1.390395053728680011e-02
2.271961103104173235e-02
2.674983570599578572e-03
1.218273522630292094e-02
-4.641977719081410991e-05
3.557130798633193619e-02
2.497028059941228811e-02
-3.333056900017840329e-02
8.731093713799173081e-03
-5.930032132009517044e-03
1.024340304261090254e-02
8.944817214708163100e-02
5.733101327528110358e-02
7.464080789604891908e-02
6.723157721040631807e-02
3.030438058442428556e-02
8.075543563582052164e-02
1.132279210966909699e-01
1.125406245883762979e-01
1.581216791004972644e-01
1.033456357884567217e-01
8.068015604881494107e-02
1.399820147168280571e-01
8.082936810834069619e-02
1.036453010617068016e-01
1.135730644118169846e-01
9.232905233110762222e-02
1.095967389603038078e-01
1.110733044013752363e-01
1.166527173901846515e-01
5.041139335121382070e-02
1.323115244774116239e-01
6.801367469175789715e-02
9.420777191866211431e-02
1.405466107890356864e-01
1.566936008736966035e-01
2.018863635370228005e-01
1.257946824164077049e-01
1.300023454468305362e-01
1.420034468130643712e-01
4.530337876396117736e-02
1.195907727158845163e-01
1.024954771943993453e-01
1.286808354052305647e-01
1.215648570186888822e-01
1.693165912547474616e-01
1.202929535322162652e-01
1.835060175110338754e-01
1.236226560367614941e-01
1.539491005963972148e-01
1.293802068881475809e-01
1.252239343205523159e-01
1.429818249324773805e-01
1.518852509399181427e-01
1.514803206420186066e-01
1.560592219669144076e-01
1.218908462751745470e-01
1.867747234219444830e-01
1.929314962188987959e-01
2.276308551517378931e-01
2.521724211506287672e-01
2.592580690367097818e-01
2.932621870426177502e-01
3.571952805739799786e-01
4.344940882388924619e-01
3.709118036584339029e-01
4.978049157944063330e-01
5.135499855948855163e-01
5.736347197872676551e-01
6.850752472705782248e-01
6.897674834425342461e-01
7.677612865286567168e-01
8.246276940691793511e-01
9.116085660969099891e-01
9.180615613716223145e-01
9.984604974223822982e-01
1.101476536816602403e+00
1.046535821460953919e+00
1.083964441999610839e+00
1.084566217160800150e+00
1.058564776683797337e+00
1.027476552672823340e+00
1.058502653763900847e+00
1.036413889541839328e+00
1.026800814629373670e+00
1.021129436153405567e+00
9.150013656021350750e-01
8.482533266693340623e-01
7.751220473776798681e-01
6.961848846968861082e-01
6.588604755335056851e-01
5.366250949309139262e-01
5.662231933629998659e-01
4.942004350956347714e-01
4.539313586817065871e-01
3.403773680021374148e-01
3.489688391760566999e-01
2.725148638004017965e-01
2.889223705260776098e-01
1.945322244916269372e-01
2.345357229596023996e-01
1.894261569777856979e-01
1.824975960134805342e-01
2.426202683121105597e-01
1.127367484564949784e-01
1.324943137829724393e-01
1.336168890136997800e-01
1.614037860884411923e-01
1.499312949252812333e-01
1.728928373435134613e-01
1.565208525203109213e-01
1.030661962123354952e-01
1.443260978990918986e-01
1.796194392053222233e-01
1.071558833462644966e-01
1.386034832694713059e-01
1.260696554294038485e-01
1.636054724827191165e-01
1.702034066541324997e-01
1.124546889717237125e-01
1.032578606569939383e-01
1.954058091443535705e-01
1.713831577872480805e-01
1.671289501198046368e-01
1.873960577012525608e-01
1.285659888758660108e-01
2.266995670019098241e-01
1.638217635759481594e-01
1.903141754693766508e-01
2.484903025665598786e-01
2.231749099499969469e-01
1.473932018326402638e-01
2.012041444112367405e-01
1.973077537519816183e-01
1.836323680205868836e-01
1.419028809030815630e-01
2.073220436122629740e-01
1.826950433620992409e-01
2.332522267004934202e-01
1.621784399694279066e-01
2.335176491315488767e-01
2.871454413809918504e-01
2.065950196827495144e-01
2.930990773053947507e-01
1.928834244373885676e-01
2.349199688235768801e-01
2.367758553629118745e-01
1.831990610694068655e-01
1.735080824930951282e-01
1.916472641848625535e-01
1.878622423253410445e-01
2.448980184409278449e-01
1.748325334594220959e-01
1.871629909086643118e-01
1.974075004522826693e-01
2.130850383253814484e-01
1.598522721599681951e-01
1.507325081862208871e-01
1.905024719232822350e-01
1.894101221140237767e-01
2.522130161028581785e-01
1.463274329176822153e-01
2.084975554131681674e-01
1.507538501613385762e-01
1.260074924587684664e-01
1.727474286308398055e-01
1.511345442081953594e-01
1.195095343895367646e-01
1.602824761908641649e-01
1.201327128262360544e-01
1.514410692822108773e-01
1.117712473398419920e-01
1.010590004494174021e-01
8.081764575367256231e-02
1.076378668642765657e-01
9.262006782014461925e-02
1.100963462980491525e-01
4.175537252295163232e-02
7.002312049394807114e-02
1.191103010807305629e-01
7.571183751586937904e-02
1.007147517062478570e-01
8.275131461853138526e-02
5.151413964571873588e-02
9.219501160302781551e-02
6.363848823942057364e-02
2.838410465095161928e-02
5.422092364903823708e-02
4.043196796693148548e-02
2.185621789742824700e-02
6.419768369593814583e-02
5.603245063248651903e-02
2.225062053377600824e-02
2.620569306141493082e-02
3.700132946716910842e-02
-1.029479939273971259e-02
2.385643306494711346e-03
6.124838299185418611e-02
-8.747123396660991257e-03
1.902732737792581230e-02
8.584777050418129773e-03
3.210341802595802901e-02
1.210989927212472589e-02
-3.080036071313294044e-02
2.670496160646610578e-02
-4.991480397441516031e-02
-2.118512056967741808e-02
-6.889865883550694292e-02
-4.584287293481204006e-05
6.175272005659847296e-02
4.377893385508285773e-03
-2.871494383984832255e-03
-4.723556297858041292e-02
-2.836645995169554541e-02
-4.924897684909244205e-02
-4.975253558118521158e-02
-1.939162835071697386e-02
-9.738181811138046928e-02
-4.318377370081025179e-02
-5.732336361290213400e-02
-8.128593903711489599e-02
-2.182550826328386734e-02
-3.399298127533872255e-02
-6.342616482005208889e-02
-3.977042891142735376e-02
-1.926790958828236006e-02
-3.807384283186196483e-02
-3.296656860269649159e-02
-5.224343876466525094e-02
-7.888999037577541784e-02
-7.792622539212323840e-02
-2.730670737783176885e-02
-1.490476894274360420e-03
-4.402010353419164718e-02
2.138102631448407509e-02
-2.340067639694548909e-02
-1.143870185395773342e-03
-3.352474872080744156e-02
-2.433341508392099922e-02
-1.334000399370529472e-02
-7.962108967014747130e-02
-1.321856258654534322e-02
2.660919020573049992e-02
-2.173936471401015369e-02
9.944216326977596554e-03
-4.427862152160302878e-02
1.333987337606871298e-02
2.394926591647768277e-02
2.863652737922901814e-02
6.083653701361058097e-02
1.236042124491244787e-02
4.844711991488729469e-02
-5.072477782705463178e-02
5.127502949094350088e-02
-6.515417732577341581e-04
2.189192193825240107e-03
8.293729964767758422e-02
3.891739128161372796e-02
5.568398466840979166e-02
2.053259401962187480e-04
8.576474559777765017e-02
5.543394345772280352e-02
6.715560788946788040e-02
1.001281312630362408e-01
9.753301014406526304e-02
8.178314891226551309e-02
4.379390909646599384e-02
9.500128252906472892e-02
4.071900652993678399e-02
1.126289498381770060e-01
8.323612908520794385e-02
5.679481105334248381e-02
5.698090466150242811e-02
8.625001630360659699e-02
8.283758200133839456e-02
1.018855453065218297e-01
5.476936594928073082e-02
8.419432257510992001e-02
1.115946905497170183e-01
5.244737042081005357e-02
6.947211319437465726e-02
1.067674941093020025e-01
1.190626150344990253e-01
7.610685970760003305e-02
9.785312418538694157e-02
1.082826371432941970e-01
1.080711110016804311e-01
7.713573376059530695e-02
1.356210150004160953e-01
1.040138426276105560e-01
1.223864670250042752e-01
1.255853531141356283e-01
1.770720041598803085e-01
1.468404089691678627e-01
1.383035415724654382e-01
1.256453683588116821e-01
1.514265845577369984e-01
2.078349570861979800e-01
2.297925174411709626e-01
2.552006389961570254e-01
3.308690362124702133e-01
3.649691807458709802e-01
3.632470472980338094e-01
4.219518487173505861e-01
4.428218637190192153e-01
5.308867235475039914e-01
6.515787486080240054e-01
6.770910998872472497e-01
7.094435942057878419e-01
7.840693280527870623e-01
8.756405189484051110e-01
9.266024839975417482e-01
9.425733705021951403e-01
9.649603568495538353e-01
1.033792484175654280e+00
1.061292087211180624e+00
1.029806018201500084e+00
9.823587148899320942e-01
1.052138512448993257e+00
1.045776994003897453e+00
1.009357364535601098e+00
9.765706608908141240e-01
8.744197061353800038e-01
8.658525546662267924e-01
8.002093325179657768e-01
7.615275704830000159e-01
6.604513075783814413e-01
6.487822064863556504e-01
5.600542884161171520e-01
5.019136863855173658e-01
4.228064714375156519e-01
3.835713371641683578e-01
3.242818167016692787e-01
2.683941466600642256e-01
2.917982769569618107e-01
2.546601924323256827e-01
2.214978871557509721e-01
1.562550031376924720e-01
1.284495319135385283e-01
1.507761396773337759e-01
1.412307291479527049e-01
1.418604977865725592e-01
1.215169880741124031e-01
1.377114452654380483e-01
1.378046468676965008e-01
1.145859356155280173e-01
9.773559207375756563e-02
1.014740305502922768e-01
1.312479290050900249e-01
9.738718036912943909e-02
9.123602754841164675e-02
1.004214695736148077e-01
7.112357252271379882e-02
1.077798137531325584e-01
1.488925473272078581e-01
1.029873649837160232e-01
1.767470638263084481e-01
1.584387120773322055e-01
1.916142784718728453e-01
1.700895065977168497e-01
1.856255860899149734e-01
2.136682737901160478e-01
1.294791524431108676e-01
1.916196059398563301e-01
1.861480990317155304e-01
1.924293563478114977e-01
2.082517941678560802e-01
2.509029811308521873e-01
1.962459985565910281e-01
1.566444085823111565e-01
1.734515587609964105e-01
2.037565155525677407e-01
1.847859438968392221e-01
2.194960722571473455e-01
1.282197669092633441e-01
2.073345482450731914e-01
1.824735367962450616e-01
1.657797066537209374e-01
2.496081784803602654e-01
1.898523160870298765e-01
1.865897470197888652e-01
2.219505711862093666e-01
2.009059481274730052e-01
2.175375577078453582e-01
2.458342789235199721e-01
1.890404261805286312e-01
1.709778093820378264e-01
2.018902693601827558e-01
2.252063981323578490e-01
1.969490271724959607e-01
1.454741903791610391e-01
1.936540080516897522e-01
1.702764958814592111e-01
1.863524383934147821e-01
1.697549350027524329e-01
2.004578610441670738e-01
1.280702874899090071e-01
1.219257484475618353e-01
1.571065652595288187e-01
1.413982881402640612e-01
2.112486387472691240e-01
1.771897586022018189e-01
1.765637095329797845e-01
1.410119068222286109e-01
1.483664143592609008e-01
1.411968607797718100e-01
1.306099515231539943e-01
1.121922392332683760e-01
1.020184183329291006e-01
1.609574103877234874e-01
1.169109219198211091e-01
5.263677893065631108e-02
4.788428375018963234e-02
8.416505103307508895e-02
4.487449035822706211e-02
1.211479935397782870e-01
4.289900284205638847e-02
4.850694059516915541e-02
7.158616002392124977e-02
1.003507270087644898e-01
5.735645157124782956e-02
5.681230238345039846e-02
3.498518619410867503e-02
6.587827408013505193e-02
-4.396586925197216306e-02
6.524057901634666701e-02
4.097773733057819001e-02
1.586605422311038183e-02
2.029225817417943528e-02
-3.086930482172060841e-03
1.677488368814547548e-02
1.149330945174303897e-02
2.245298148289778112e-02
-9.478829538630995089e-03
-1.309715737630612331e-03
1.504147283653998329e-02
-6.124811394965056638e-02
1.471165878891388806e-02
-6.632230115866159792e-02
-4.496807387966506725e-02
1.777510338475735141e-02
-1.581046572859620344e-02
5.073278344314341437e-03
-1.483172148922066308e-02
8.489006020457830204e-03
1.939534773578720228e-02
-2.816205028799593710e-02
-1.212814769660889302e-01
-5.443182522211036101e-03
-5.090187822503813853e-02
-3.578292466723725918e-03
-2.861709930818128952e-02
-3.546878292562317958e-03
-4.503068656330433406e-02
3.158631130348266147e-02
-8.044896793071917851e-02
-2.879566124756261988e-02
3.032339856259579081e-03
-3.497127263768905203e-03
-3.926410846576054714e-02
-5.868224035957530366e-02
-1.397874325356293634e-02
-2.239642361338993817e-02
-1.051200705838259072e-02
-5.354928035752216930e-02
-3.593581760306498868e-02
-2.908356446511049798e-02
-5.806848698503234291e-02
4.506293828944035046e-02
-1.649243873725440152e-02
-4.004526767673073639e-02
-7.461599938063581683e-02
-4.463014253315609331e-02
-4.983859659338672754e-02
-1.524672297744542743e-02
6.265535672837364845e-03
-1.706511571233730595e-02
1.580823235228950158e-02
-1.343076696069709849e-02
-1.291798613535312043e-02
1.832488098092617534e-03
-2.481768186878290441e-02
-9.009664043505408171e-03
2.205229276229264679e-02
-3.555224202010186935e-02
-1.925375032027651714e-02
-1.570388766613386305e-02
8.362797509311896416e-03
1.740841626639588052e-02
-2.886383217321479566e-02
4.360739948066078703e-02
2.852532013689931117e-02
4.968285311824913175e-02
4.525926807389344525e-02
4.712889807479066911e-02
4.272673804816600612e-02
1.019606987284184252e-01
4.828535226882487569e-02
7.690757157810901301e-02
8.342130288128690729e-02
3.787516715196953543e-02
6.930118400913326537e-02
7.022477379581786028e-02
1.100710276061809129e-01
7.065380865811864142e-02
5.895390256684292923e-02
5.392917848116889068e-02
1.064228125132886116e-01
1.049916419994080807e-01
1.264265945008772873e-01
1.550391518703335691e-01
1.017960316138544763e-01
1.663664884409056521e-01
1.530139797861024831e-01
1.206122354739757319e-01
1.293365359284603666e-01
7.964729403906899152e-02
1.047406605630119836e-01
1.326891213316996332e-01
1.004090378476462653e-01
7.836300845450569486e-02
1.132686869440402699e-01
8.303047763296983463e-02
1.335810387223737294e-01
1.122968896377209563e-01
1.100212725846217432e-01
1.032640131933058453e-01
1.617484160058405007e-01
8.852954937562686200e-02
1.692217018182512189e-01
1.345414447996844398e-01
1.916579134874172863e-01
2.103547303686551240e-01
1.846071831227319437e-01
2.261309243992243867e-01
2.049593077524523577e-01
3.720247158643895102e-01
3.316891337794395378e-01
4.220835559371085011e-01
4.128429943158936077e-01
4.887915192331680481e-01
5.928581956023873945e-01
6.133425171755451100e-01
6.228348533457687131e-01
6.900874598741694177e-01
7.846433835695265646e-01
7.750573229880860504e-01
8.977472751121915451e-01
9.318322171316871794e-01
9.530700598984215288e-01
1.005863847764360663e+00
1.053461214996765261e+00
1.078909386695388051e+00
1.043988451555003527e+00
1.048830654110960880e+00
1.029385272737814772e+00
1.067997545947769744e+00
9.598196654751024459e-01
9.905812717822970459e-01
8.797280080656098011e-01
8.418219479619259982e-01
7.866994706104591950e-01
8.029490554610858588e-01
7.396137439076222453e-01
6.899083196522555195e-01
5.687662877882742052e-01
5.661098157901536254e-01
4.743884921044887459e-01
4.719892589935597016e-01
3.742724958962810322e-01
3.595685257057064099e-01
3.511606652507238135e-01
2.475523722303995811e-01
2.439460404492093393e-01
2.445578079411578898e-01
2.207721159775754005e-01
1.568602488720250987e-01
1.427576150672847932e-01
1.226621108951870542e-01
9.498255914057254778e-02
1.444253791253308494e-01
1.484540625169255557e-01
1.742397101737895859e-01
1.431991677191806200e-01
1.676147710455153372e-01
1.480199540336196162e-01
1.790016000851691602e-01
1.250097123703428903e-01
1.123645825452576769e-01
1.784612243892491901e-01
1.306068671008526472e-01
1.809838796391994853e-01
1.082889220475088260e-01
1.860384159952224170e-01
2.122625362172309293e-01
1.490441196005158897e-01
2.505263093612671854e-01
2.780765063337015675e-01
1.927121953864008863e-01
2.233453253869057964e-01
1.708099157911468491e-01
2.071145348998003066e-01
2.366150511942957113e-01
2.552687968238526173e-01
1.876679521095593883e-01
1.918336037085746071e-01
2.164252880647198896e-01
2.400929204447659893e-01
2.352977288695239921e-01
2.484990510097992711e-01
2.610174397793403323e-01
2.988509605613154929e-01
2.209310218083851141e-01
2.868265635172562722e-01
2.705019319968736125e-01
2.317712250296720677e-01
2.396374693761366970e-01
2.399263411060048867e-01
2.337168101355661110e-01
2.541154014775714454e-01
2.228758222706868353e-01
2.455397189105867350e-01
2.647074205266498059e-01
2.415199885984112838e-01
2.398395588291216129e-01
1.997416846269016166e-01
2.441277027873171301e-01
2.154378265634266931e-01
2.441261844480830390e-01
1.818507024275720363e-01
2.097921669570964320e-01
1.994066904218438074e-01
2.416616907274728443e-01
2.086865686822877985e-01
1.878039043730067859e-01
2.542760333945235929e-01
2.205461923520008749e-01
1.387809503842119263e-01
2.414880375844583871e-01
2.145376255718747238e-01
1.297168058233409693e-01
2.168488120820399045e-01
9.792354311780668286e-02
1.268904775009210562e-01
8.250768580235467997e-02
2.219254811524171700e-01
1.820126122395533674e-01
1.806246593020172375e-01
1.352712002556954451e-01
1.939794928801510387e-01
5.627978377233450180e-02
1.330182747031950496e-01
1.062369012384607736e-01
9.357976451095322001e-02
1.189136296509787777e-01
1.228768325164099479e-01
8.160191259301420585e-02
7.974104098736180257e-02
1.390033935837830248e-01
5.506052983011032464e-02
7.820783693836758088e-02
1.256323562011663342e-01
1.570709323897111764e-01
1.238189441938978563e-01
1.166403426320882508e-01
9.387684722257845504e-02
3.385472876707828344e-02
7.100222587416739339e-02
1.874050014526865496e-02
3.128081912685783117e-02
8.445370129581017404e-02
1.002406775416330859e-01
9.834330967778326382e-02
9.033675876394772764e-02
6.519611543083145277e-02
2.216586235186112502e-02
2.560502665258996766e-02
7.015374838418372838e-02
7.582797719546023607e-02
2.712820732193612500e-02
7.361337222043602690e-02
4.663149706879250733e-02
-1.521160558756824190e-02
3.742249661271047217e-02
6.474445156417095448e-02
1.046364540753050992e-03
-1.623605890681759784e-02
4.387321087121996005e-02
-4.406181256384215927e-02
4.165512047218085379e-02
-3.665091409274964795e-02
8.640532144998738090e-03
-2.481434374759375686e-03
3.178111010553689997e-02
-7.664988643316307526e-03
-1.417581799958086280e-02
5.505382414851928835e-02
2.439795900164694331e-03
-3.006180537332219654e-02
2.157023357699102556e-02
2.517144021247664024e-02
4.050608238111568643e-02
4.811799252575184316e-02
3.613229502181775077e-02
5.003182409523047880e-02
7.933792262849675980e-02
6.449730925919604230e-02
5.540054333449996593e-02
7.690003890105015505e-02
1.027610877142173251e-01
3.635135362644158902e-02
5.749102619848966284e-02
4.565404909116360654e-02
2.983545449683520923e-02
3.747952079110150603e-02
4.616506429698147285e-02
2.580521240655670595e-02
8.456752341791884398e-02
4.185119706492822916e-02
5.243056467467824971e-02
9.371616737294594102e-02
9.280431723188695137e-02
8.722893219644430041e-02
5.084430964796377017e-02
1.076217182447961468e-01
5.515546246772641548e-02
1.109273050252115866e-01
6.667577133634448872e-02
8.368916712659452140e-02
9.905686127455567980e-02
1.030040874823766189e-01
1.065653869314599489e-01
1.289482496561988878e-01
1.371088194113797842e-01
5.916892210718906892e-02
1.429219991845500082e-01
1.025125866648153722e-01
1.267358348055709627e-01
1.211910174049335570e-01
1.225223218415066179e-01
1.273571160595262375e-01
1.789393132832709232e-01
1.833292891729919327e-01
1.807976639897879989e-01
1.921482076776069303e-01
2.083799121617677108e-01
1.519922248060245340e-01
1.745458758532861809e-01
1.429816882259354049e-01
2.117837520006839447e-01
1.930728437397172814e-01
2.031700993124199994e-01
1.567471292008857375e-01
1.249716645564652590e-01
2.068186645384229028e-01
1.405408969516334372e-01
1.740764304341227420e-01
1.816370689481845990e-01
1.934357880215787362e-01
2.054780322022733419e-01
1.754963353291622008e-01
1.127405879671585787e-01
9.937085588822955340e-02
2.056378811670656614e-01
1.853902656646471692e-01
1.810103010660984169e-01
2.120314597790703970e-01
2.386109926934195380e-01
2.458389147518221240e-01
2.124326499507647736e-01
2.525070434823634691e-01
2.984638309971893722e-01
2.605159764197916283e-01
2.992273410274237655e-01
4.239488321079145083e-01
4.326406979430498234e-01
4.885490240969364573e-01
5.243225458677508444e-01
5.827023178532602099e-01
6.379123268108602973e-01
6.621142490554281501e-01
7.504042587053721958e-01
8.668470625730912982e-01
8.905912727342588653e-01
9.478007358772757573e-01
1.004682396965914437e+00
1.071866255736014129e+00
1.059745415960632320e+00
1.074172509673630538e+00
1.121286481099347698e+00
1.105543992101815753e+00
1.175740473116905216e+00
1.175341922963944796e+00
1.118572109020173899e+00
1.121241697311460950e+00
1.023671264429639294e+00
1.004995000013146678e+00
9.506399932471337744e-01
8.808810503620317922e-01
8.219511645148623868e-01
7.774991908832353804e-01
7.217665227534624250e-01
6.692808102748021293e-01
5.664863625795455437e-01
5.666372151245768762e-01
4.214960117532902117e-01
4.002073347371959411e-01
3.794557716654305413e-01
4.010738804701753923e-01
3.682889123041648283e-01
2.979465255121436784e-01
2.709025904568015397e-01
2.349103916086251465e-01
2.057576228905051430e-01
1.679344311185844707e-01
1.951023748506707511e-01
2.297213270229482573e-01
2.051396526968726486e-01
2.175465482263523320e-01
1.125899331066844145e-01
1.329681284436976252e-01
1.925626787422514141e-01
1.835561442216338823e-01
1.713211974027062656e-01
2.051408821332373345e-01
1.772527335634391799e-01
2.117264323400280812e-01
2.011771947357917090e-01
2.349402282748972448e-01
1.505370962332058526e-01
2.258836211789841675e-01
2.546212664581422591e-01
2.827736722364189714e-01
2.519914320422889653e-01
2.604152982098640323e-01
2.565521829619756278e-01
2.146343279341607901e-01
3.010611417913566790e-01
2.682761118224974428e-01
3.141989571155194838e-01
3.004253658875464250e-01
2.283480668087223830e-01
2.799409402029149341e-01
2.552039940880171942e-01
3.097521414515165827e-01
2.872536165813597830e-01
2.087240784705840790e-01
2.923377271576882430e-01
3.193934059062724096e-01
3.103066116117567663e-01
3.547952661234520244e-01
3.033809338090529550e-01
2.537611913142737707e-01
2.383562745178227638e-01
2.904201418417748370e-01
2.910325304781252731e-01
2.911511164224605541e-01
3.164443729255120852e-01
3.225006684572692128e-01
3.147172901458394900e-01
3.151828541680830043e-01
3.010738189715357893e-01
2.721077088987065018e-01
2.245836194912119999e-01
3.209238944402602600e-01
2.905994106208681371e-01
2.258207347509515461e-01
3.183028801054682555e-01
2.257953340792285268e-01
2.331329694421833409e-01
2.389515116396481176e-01
2.347823930378293567e-01
2.298027016548795654e-01
2.443928603792548948e-01
2.414098211635000713e-01
2.526327932001343202e-01
2.445329710827138237e-01
2.613092273329721271e-01
2.274574696115663486e-01
1.932441983906460492e-01
2.012651627229060380e-01
2.240131593556216605e-01
2.082400438843248491e-01
2.161430978589068963e-01
1.922790785701226635e-01
1.790729206922148653e-01
1.765934362911965316e-01
1.389305252923089262e-01
1.269143155303075476e-01
1.787495623451064997e-01
1.778734935143307661e-01
1.354930008951802101e-01
1.816921201613640180e-01
1.570988896556536896e-01
1.538799738301465103e-01
1.065285437646624755e-01
8.198609115095770172e-02
1.945923421649580487e-01
1.528249056429106800e-01
9.811650938480059869e-02
8.662028186441494970e-02
1.000611829629109717e-01
1.489997122660832729e-01
1.371249242186406980e-01
8.143783321754675952e-02
1.050111940805242838e-01
1.130014729410996344e-01
1.040119216230277754e-01
1.046863049110902527e-01
7.086433116389848075e-02
6.971751967477056444e-02
6.351710007517441525e-02
3.930994606692737176e-02
8.248320788170666884e-02
7.629737353379091591e-02
7.690381438435595074e-02
1.022937348758954923e-01
1.008080876553710259e-01
6.021743628762526307e-02
3.989965951028716373e-02
7.181110781211698380e-02
6.798435055391940929e-02
7.593434189840733706e-02
3.476576335633307924e-02
5.478931518106300302e-02
8.859130978652129951e-02
5.118386816294008546e-02
5.895032504430200437e-02
5.096188467958776003e-02
4.301052389051891744e-02
6.570466847323734594e-02
1.797427501281208262e-02
7.666815975661264715e-02
3.028100788064090956e-02
9.649061353531798724e-02
2.345655164437453893e-02
1.056344760222099333e-01
9.481607325503670081e-02
4.706148724845724690e-02
2.904865650991035608e-02
6.278383516042312928e-02
4.765841402392848036e-02
8.354527506318415453e-02
3.315609372253187914e-02
6.858678782346144809e-02
4.227726729071504264e-02
6.771067927136267817e-02
4.032247668410546271e-02
4.644100826766003887e-02
2.729454601586473947e-02
7.350705947890957825e-02
7.522345187251944232e-02
7.817584201235580621e-02
1.101582228081222914e-01
1.083587552597756742e-01
5.022338948973381623e-02
6.725035026495287949e-02
6.632929558894232192e-02
1.166583326082604455e-01
8.534375881568040390e-02
1.066426776597491355e-01
1.173152799404273139e-01
1.078246731880221770e-01
1.357965755375875883e-01
9.216459181811237356e-02
1.247637869131165145e-01
7.459231688301806718e-02
1.580053763118374199e-01
1.161013775676298931e-01
1.509752445943565446e-01
1.070416989651939432e-01
1.311899076691920019e-01
1.861017072383154003e-01
1.155929897560615399e-01
1.779038364155715868e-01
1.645927560173994220e-01
1.882602165177565123e-01
1.562761718147479273e-01
1.657922750444013327e-01
1.843068288650654141e-01
1.821199324637299832e-01
1.901230681988406446e-01
1.930778589446170146e-01
1.744197099373660520e-01
1.730964332939537442e-01
2.104098900254003091e-01
2.249749525746187750e-01
2.419559356520326610e-01
2.064835841729613375e-01
2.098766030535958449e-01
1.861302512083223282e-01
2.333418734957572183e-01
1.761777120075919689e-01
2.219518639999946696e-01
1.422791828195942299e-01
1.968551942191254789e-01
2.392252446363097029e-01
2.006900354538740106e-01
1.865561369690322269e-01
1.722829325976596437e-01
2.059790591679713512e-01
2.207021775107127215e-01
2.480932244805475473e-01
2.572284917660639936e-01
2.740893753718995907e-01
1.991519132866921282e-01
3.107277642205047985e-01
2.624155215766128535e-01
2.653382004934456417e-01
3.272838451896946110e-01
3.837506594677321803e-01
3.859141565765952242e-01
4.837823213208340412e-01
4.651013991268332370e-01
5.837601835434066411e-01
5.732169199488348355e-01
6.825114205643559862e-01
7.531150116056499755e-01
8.170150828816109545e-01
8.193147921970084235e-01
8.741281726231108218e-01
9.575727500971623618e-01
1.013986033065029657e+00
1.051755695544594360e+00
1.065666301175512976e+00
1.115399774078510875e+00
1.150775971691117228e+00
1.158003002025370876e+00
1.147021902888928135e+00
1.176435709363447435e+00
1.093659000738482323e+00
1.096285071651491805e+00
1.015092068161136174e+00
1.025051541157801172e+00
9.264480304626646623e-01
9.274805193566306727e-01
8.630527645305183793e-01
7.753760134930903769e-01
7.173996790335653850e-01
6.245740218272567423e-01
6.242156502098792359e-01
5.239850116319604290e-01
4.718129526383614269e-01
4.744294621962421576e-01
4.487915608812246826e-01
3.637088681573066862e-01
3.260104388513963003e-01
2.724268715925959872e-01
2.559976382792787386e-01
2.442123448391528562e-01
3.147133081406204846e-01
1.655969753881190998e-01
2.063725838057050010e-01
1.440552019964562169e-01
2.012932111940876900e-01
2.299386980274606140e-01
1.704439171112573370e-01
2.056716423273577676e-01
2.049031368614928350e-01
2.312382770242039642e-01
1.997272173466753120e-01
1.779624564447093438e-01
2.515883366510379693e-01
2.139068160453406198e-01
1.596770922934875325e-01
1.866509920815818124e-01
2.497128093202409249e-01
2.956173644845466741e-01
2.096856130168116561e-01
2.709013379603839589e-01
2.162017664044974807e-01
2.363404656085860700e-01
2.501554466073452332e-01
2.144272786884724447e-01
2.864739659225578050e-01
2.696504985998270376e-01
3.151342768632824920e-01
2.113728838430976031e-01
2.441322255765931426e-01
2.863348005474261049e-01
2.592616916454377751e-01
2.865986652530863599e-01
2.739590335782051134e-01
2.468148497287095955e-01
2.894220294595854504e-01
2.985321033672466706e-01
3.218848983325323654e-01
3.014462319310960980e-01
2.866601168683929335e-01
2.639160462639915106e-01
3.085733055487497878e-01
2.828723461971504594e-01
3.186346858158825013e-01
3.102952771997418147e-01
2.742823526886432606e-01
2.946989271116148834e-01
2.993462483594606094e-01
2.988095547720259759e-01
3.442800663406326844e-01
2.837937301915631205e-01
2.698833624535123543e-01
2.263587123458948580e-01
2.631969011685366677e-01
2.604562540743148302e-01
2.518584320220702555e-01
2.579825143073269933e-01
2.504640838208317399e-01
2.664208004707462329e-01
2.111217424732361736e-01
2.620587917890441210e-01
2.860879403936559817e-01
2.415324591009263000e-01
2.337699221858271781e-01
2.238757358718922730e-01
2.107605432411395752e-01
1.854406533815218250e-01
2.340770792757479457e-01
1.846208755401357593e-01
2.048753426692818125e-01
1.678999369429979571e-01
1.531036627699102204e-01
1.407141398671608867e-01
1.857478965710651908e-01
1.852371199366297239e-01
1.791753578958761306e-01
1.733874932007160030e-01
1.411721085174711121e-01
1.324506109371204055e-01
1.511955389660887827e-01
1.722933686231062911e-01
1.215153472774743310e-01
1.362666022586930259e-01
1.764141225774464583e-01
1.104306655704987150e-01
9.361458350593392097e-02
1.216709677220387253e-01
1.226710890382115976e-01
8.278074865771153923e-02
1.229059216647881425e-01
1.091046254121593867e-01
8.339801816594845374e-02
8.982384205180092562e-02
3.069918238669477883e-02
9.300000042705476588e-02
6.657143149332488130e-02
6.727176701967517436e-02
9.746608735832180959e-02
3.678343971959090186e-03
5.514667555067651050e-02
5.446493530617341206e-02
6.309954824431063258e-02
1.293325049699902696e-01
5.335249832526500757e-02
6.777176945968729771e-02
4.039954047560516404e-03
6.720403591872853299e-02
9.867056332915523365e-02
4.331304340310885431e-02
7.876512409139593829e-02
2.566054288647952666e-02
-1.499152437752449343e-02
5.294103928208598875e-02
3.297762222927486803e-02
4.548847067861364057e-02
3.837674878571450954e-02
4.403589871646126225e-02
-3.202081324024313308e-03
3.701550376179407742e-02
3.303923230223953372e-02
8.478433473779997676e-02
8.292724029209047956e-03
8.443122071538129714e-02
1.380942411606271396e-02
2.752121152117859709e-02
7.247760484467956343e-02
7.396431137521983223e-02
9.461285097933744281e-02
7.131054696649229141e-02
1.247823814190296768e-02
3.838949862411344949e-02
3.107006941500994185e-03
1.996670784674810586e-02
5.276649550687270707e-02
-1.856468826078625303e-02
6.159710982209350150e-02
4.167489218790969285e-02
2.419395028139174203e-02
1.965639715893060385e-02
7.679238044930088158e-02
1.993733249581612979e-02
7.679195290343612812e-02
7.715462708950882043e-02
5.851318715977939233e-02
5.008007692337054784e-02
4.146109099108710727e-02
6.135026531837665942e-02
3.802247920439589396e-02
4.032464070471662720e-02
1.130083729830140549e-01
4.288776660747591063e-02
5.733142533646419514e-02
1.039708370622963868e-01
8.000163685260644475e-02
1.154237298816351287e-01
1.283917659918019094e-01
1.329038305639538009e-01
7.743963293069196230e-02
1.225468292762004335e-01
7.666815192242210086e-02
8.273395570904994167e-02
1.040694357968840328e-01
1.279160583544899921e-01
1.035938061241415409e-01
9.519056783250839926e-02
1.540520036489636535e-01
1.365309671633214705e-01
1.219728636239718056e-01
1.648248775460260107e-01
1.611422162723889773e-01
1.153678499514583788e-01
1.701046921141462498e-01
1.556633037478429848e-01
1.352404565692274241e-01
1.734265825917142567e-01
1.568347309427149949e-01
1.445804761458660825e-01
2.186620733547081086e-01
1.470740988110608161e-01
1.676280327148231553e-01
1.993514367359623674e-01
1.685934899652288266e-01
1.272890256446343182e-01
1.532401082379438173e-01
1.701190650563091100e-01
1.561675256097719844e-01
2.107899975843638696e-01
1.773823787234576066e-01
1.579912152035690409e-01
1.703897563409434435e-01
1.688082324357035036e-01
2.540051524695920993e-01
1.770947743265886831e-01
2.002169680292615328e-01
2.850269875809895437e-01
2.983908655757041006e-01
2.672125627580861917e-01
2.698098999102666595e-01
3.636963338687098091e-01
3.300915752783313839e-01
4.178723868847744050e-01
4.860863073113486643e-01
4.789070967774393117e-01
5.823304778617109934e-01
6.297613899047376229e-01
6.926939376933994863e-01
7.570423108130164280e-01
8.213174318475267022e-01
8.518616597534033330e-01
9.342681049157994799e-01
9.648691884478864944e-01
9.960005309035915300e-01
1.091940724428886567e+00
1.092373632993052901e+00
1.081994065285848849e+00
1.076486196930794836e+00
1.082929652901655215e+00
1.134435066295282235e+00
1.117754385100618197e+00
1.036595531751811183e+00
1.012280825480645685e+00
9.061624236749002970e-01
8.589381840747510877e-01
8.339335088600063894e-01
8.068812306254565803e-01
7.418744122004873320e-01
7.046315225472747912e-01
6.963695883731977343e-01
5.578934623718641017e-01
4.618213747436333838e-01
4.095922340772391590e-01
3.989285455180199280e-01
3.422537576177265839e-01
3.337769785195132677e-01
2.504518686662788873e-01
2.393694906244953069e-01
2.393808002588819484e-01
2.032984620897919925e-01
2.222508230592087630e-01
1.636432285621659821e-01
9.079272703723292870e-02
1.354905146506679703e-01
2.011960047571155485e-01
1.540225372891318167e-01
1.641462576919747451e-01
1.152898567901030069e-01
1.500863092147824984e-01
1.995345275978613608e-01
1.203347148707459430e-01
1.653849292082511246e-01
1.823232201889782300e-01
1.651523093771781470e-01
1.792788134273142209e-01
1.787705978490245762e-01
1.849939370270785310e-01
1.717283777150573343e-01
1.869519339277456726e-01
1.630364939993200202e-01
1.734854336155757237e-01
2.321845289866611428e-01
2.164751937272598459e-01
1.727870144913079553e-01
2.378679909785552382e-01
1.642540056112415936e-01
2.378273921743377373e-01
1.769178243912153115e-01
2.050524546045179863e-01
2.280663859753980227e-01
1.632497618580379395e-01
2.123591964929243681e-01
2.130126451520167330e-01
2.231693428816134694e-01
2.482346284279840498e-01
2.618966260317817096e-01
2.183703012907211027e-01
1.961619706781985162e-01
2.463713126100221529e-01
2.604931039248715718e-01
2.030475442086778770e-01
1.983426706096208803e-01
2.516373361070342596e-01
1.679249617958160079e-01
2.425040340617049539e-01
1.855604034675076841e-01
1.873362400603154065e-01
2.051924413434750571e-01
2.096466163766562973e-01
2.025439098875299881e-01
2.257128979789944923e-01
2.379321809435415991e-01
1.494748104964513935e-01
1.571926176328121705e-01
2.058300777093026723e-01
2.171627153172225599e-01
1.894304536180333176e-01
2.085384834142430532e-01
1.692831449101642183e-01
1.224474544382790075e-01
1.737780505991979862e-01
1.647706526417289097e-01
1.623517357060065835e-01
2.008822111172619829e-01
1.750876223503900486e-01
1.629630837506332308e-01
1.337096357760597931e-01
1.120710362457776471e-01
1.851812856405576635e-01
1.455119642796522117e-01
1.532259774811937370e-01
1.306755285170872471e-01
9.772754430340094278e-02
1.175264132196822547e-01
9.017404227158454244e-02
7.853359933404258086e-02
1.382518515177154350e-01
2.818049560932387940e-02
1.155737909786862250e-01
6.853675710219503392e-02
4.230255055099123307e-02
5.718714622165664563e-02
1.006441753230059299e-01
8.763462132726519693e-02
8.168708759508318262e-02
3.367937232714988960e-02
1.283011845583224494e-02
1.003384598442277759e-01
4.023369384408738425e-02
5.083668810979394270e-02
6.256140608802697456e-02
-5.482322570327158306e-03
9.691096227216380865e-03
-2.715157457897108065e-02
2.859864223434916558e-02
-4.808113953621528242e-03
2.841136622015009994e-02
4.223234328564681728e-03
-1.554289300733275800e-02
-8.259540636510666334e-02
-1.169858572077847256e-02
2.332175424236336905e-02
4.243166204404635183e-02
2.418492175604095712e-02
-4.644793376594122392e-02
-1.093099055777500828e-03
-7.175817240071359626e-03
4.421394948817475301e-02
-2.253390450043444085e-02
6.664012849997052318e-03
-2.421021054379266652e-02
2.584748998192765157e-02
-9.490124994711995887e-05
2.809527967414148647e-02
-4.488484904736277092e-02
-9.154533010765970868e-03
5.492589735425625758e-02
-5.704659788593680059e-02
-3.227260743470791726e-02
-7.151674738583019275e-02
-6.710252450942166824e-02
-3.296396560970300815e-02
-2.182083325451044872e-02
1.638749163231704303e-02
-6.117746509650088399e-02
-5.394112805063139976e-02
-3.529346448386440349e-02
-3.875962641363482619e-02
-6.173810333109452930e-02
-8.192092451257146357e-02
-2.848794642523330006e-02
-1.707346698248150135e-02
-3.492541779152897458e-02
-6.350050229736464713e-02
7.356944149659608301e-03
-5.663474806982920357e-02
-2.319986569891470396e-03
-6.196717058617177282e-02
-1.684153346318565878e-02
-3.386107232816108759e-02
-6.109047827678557030e-03
-3.446379871815837687e-02
-2.963045843036805557e-02
-9.286580241221691068e-03
3.964225603772682238e-02
-2.178207627484164341e-02
-9.960609812391038598e-03
2.960434654861517079e-02
-2.522058139651499331e-02
2.212422199087029501e-02
5.198069784545253369e-02
4.430408856154940261e-02
3.101283295934659234e-02
1.605482105925830350e-02
3.913897612875535253e-02
9.445003756234032766e-02
5.434256190493179373e-02
9.324917553756222055e-02
1.055562606792601887e-01
3.797591037028774652e-02
1.034126212032307757e-01
1.023999429097587344e-01
1.135036140059029475e-01
8.368161403813237365e-02
1.215697979805430984e-01
7.430046077550866990e-02
1.346871690386982068e-01
9.323184322852585970e-02
1.293794622063476341e-01
1.472335400310862408e-01
1.176513284669152282e-01
1.271182915370065447e-01
7.462547131818286772e-02
1.291352255047912290e-01
1.155635381698810749e-01
8.546218672835720342e-02
1.346075459959364118e-01
2.119399328333139709e-01
7.400014488407541391e-02
1.298893323657390464e-01
1.058470238476757613e-01
9.824420215354395802e-02
1.504404188519449792e-01
9.578348544132286868e-02
7.180483938279390299e-02
1.318032278564660320e-01
6.842102194941948601e-02
1.526153616137330415e-01
1.411675562297948494e-01
6.378660070351235833e-02
1.430489987867570312e-01
1.658868376299506842e-01
1.068998025787076256e-01
1.818888034787202179e-01
1.985942311301683305e-01
1.749336240105713314e-01
2.776256426979216707e-01
2.796728408645549058e-01
3.770025143002314616e-01
4.001445614336515688e-01
3.951777826426312590e-01
4.888958353536292933e-01
5.622522023847917882e-01
5.655235056343871358e-01
5.895087976030699561e-01
7.358178109688616741e-01
7.510155795754464014e-01
8.367531692336128701e-01
8.714314287144244719e-01
9.306388853549434348e-01
9.674367480970921251e-01
1.004482249677756123e+00
9.979851332687122989e-01
9.850931427426334874e-01
1.020722780364378357e+00
1.052551171322509971e+00
9.847434660123104422e-01
1.030228475211795391e+00
9.600891749384674601e-01
8.976052417249361648e-01
8.592213236781721664e-01
8.170753483220780655e-01
7.710084892965636261e-01
7.440313568898087038e-01
6.942801229941312213e-01
5.940648711723608422e-01
5.441365893567223777e-01
5.413114038052884158e-01
3.956071589414191791e-01
3.729004345932532827e-01
3.292729787885660397e-01
3.125259598647401327e-01
2.360787397476418747e-01
2.356205621742990253e-01
1.753523150994314439e-01
2.234614744682620613e-01
1.504213087101905488e-01
1.405788730902538530e-01
1.148004739008328112e-01
2.122849237528824096e-01
6.635183046713102883e-02
8.282881247763526633e-02
1.173022904956719098e-01
1.614942945928663776e-01
1.130935608702351713e-01
8.654546047014705090e-02
1.836864940249828548e-01
7.391322476215789194e-02
5.608853780562089719e-02
1.160292796657416137e-01
1.217912002656811876e-01
1.589191221469641313e-01
1.318969419052958836e-01
1.157778269464535270e-01
1.154990035760263822e-01
1.757409556964933395e-01
1.505747006803330179e-01
1.702776537513506216e-01
1.606502136018569116e-01
2.323737386913738434e-01
2.094651906660920382e-01
1.976760113604518476e-01
1.681065167155123552e-01
2.212744098729807762e-01
1.555323952149229860e-01
2.269190131796559040e-01
1.586998694083985584e-01
2.542138022757010063e-01
2.188450596009003657e-01
1.358455874690386866e-01
2.164447827986885620e-01
1.808133064463992856e-01
2.086826307204051323e-01
2.106745779075689662e-01
1.994646113221946460e-01
2.031947556032666080e-01
2.198837130298599285e-01
2.070518430040283464e-01
1.683499744862901604e-01
2.191419631104479238e-01
1.941886480030359241e-01
2.093245285758377761e-01
1.856319373951320073e-01
1.901127926028350346e-01
1.581039871834296062e-01
2.109449459514432801e-01
1.697725238911629853e-01
1.501419609996307858e-01
1.916883464128974202e-01
2.024417236600745684e-01
1.572708143280996396e-01
2.168443944031582804e-01
1.928598653750109582e-01
2.139276992177735204e-01
2.026426842766739511e-01
1.961131126600154095e-01
9.891280001423349844e-02
1.155651998651587437e-01
1.839549282543045949e-01
1.623318506285746365e-01
1.279832274494814848e-01
1.166948234640965698e-01
1.135104020202207242e-01
1.659222269698228669e-01
1.151840750655255541e-01
9.970530265941754400e-02
6.391178548582954200e-02
4.761355721149497511e-02
1.233430553870805968e-01
7.924434389071649543e-02
9.328933411118733865e-02
9.544476439923607614e-02
9.825409781591712410e-02
9.220455628720661267e-02
1.021840288438502775e-01
7.018390642047711570e-02
5.955742450369447966e-02
2.580607342147021865e-02
5.708229845146978870e-02
2.036815189285653971e-02
1.597891695882968505e-02
5.421721689474964800e-02
-1.425518074209581459e-02
3.164576268482065247e-02
3.363872862686195786e-02
1.638367245825771146e-02
3.101631437403745695e-03
7.737554341634655941e-02
5.007973356969679102e-02
-1.952657807756582459e-02
1.421887754991570108e-02
-6.227354391491940477e-03
1.514843733647415480e-03
-1.552887896359037012e-02
-2.351305905537395130e-02
-2.386070835445562588e-02
-1.392185856081484818e-02
-3.394210359817417810e-02
-5.547802264906914749e-02
-2.698676040689506478e-02
-3.997877245539568913e-02
-3.069456125929657941e-02
-2.334319583243743904e-02
-6.086916994501710698e-02
1.566196897107161728e-02
