1.346026195822910498e+00
1.337134230736107376e+00
1.315368570394307213e+00
1.229600488298315808e+00
1.236347212312324695e+00
1.181931684628624302e+00
1.077028892867059717e+00
1.041531962880845930e+00
1.000373658664288623e+00
8.727869308692061123e-01
8.259258874709310971e-01
7.752350066514451798e-01
6.900839105682475827e-01
6.682322567209679764e-01
5.948422534895437819e-01
4.748781463018613702e-01
4.347453958542440988e-01
4.467963424643022763e-01
3.871670014398090887e-01
2.465953493730709545e-01
3.442822067939754205e-01
2.754310604629696679e-01
2.520304656825913536e-01
2.090331497419189721e-01
2.597240653854894221e-01
2.270399367723622275e-01
1.998729389543952295e-01
1.166740453505890340e-01
1.813044416915340906e-01
1.620248908310206459e-01
1.830986746126964659e-01
1.695438576262335850e-01
2.222660177667586390e-01
2.475649538676482908e-01
2.022668957544764834e-01
1.735054967585186736e-01
2.015476296521808708e-01
2.032398176861304750e-01
2.680496170998358241e-01
2.264611639636268103e-01
2.731114447443480087e-01
1.914794520580994641e-01
2.383668710384686806e-01
2.112957989021666538e-01
2.428457108921178165e-01
2.656786520093078474e-01
2.092659465911196059e-01
2.417459029837936146e-01
2.559109240975653843e-01
2.705264503404328780e-01
2.215757689703258537e-01
2.832911280521104858e-01
2.870385106247104190e-01
3.059994359351593252e-01
2.305999501486613035e-01
2.707519811900842566e-01
2.815240867838071925e-01
2.892006847163088867e-01
2.868168233475850704e-01
2.689576998026476096e-01
2.893133475705389479e-01
3.725669493676854183e-01
3.038697187721791093e-01
2.402562649805102812e-01
3.318264771789873890e-01
3.351996778194237248e-01
3.093392077738923440e-01
3.220719895860137960e-01
3.518002128861305589e-01
2.884561184262279809e-01
3.095855073497236765e-01
3.211572114112778431e-01
2.498689428379641253e-01
3.153446755384318179e-01
2.731158712369155528e-01
2.928559592006181322e-01
2.879693425762643311e-01
2.364808267606073877e-01
2.937471957210565088e-01
2.357875799891184787e-01
2.529144656065024921e-01
2.652015956188995549e-01
2.528984824927851816e-01
2.140835825034804740e-01
1.878801204591447893e-01
1.967013224171770824e-01
2.382103585390596412e-01
2.275814588792502424e-01
2.004630680321851655e-01
1.943014610753428517e-01
1.867395596340965802e-01
1.580914540645541877e-01
2.130513075520320265e-01
1.471405305262194485e-01
1.787901824473918100e-01
2.080304483082772715e-01
1.635537689675287676e-01
2.069680745223962948e-01
1.223062742253402529e-01
1.094418848372840231e-01
7.521488691533141646e-02
1.620014596435924437e-01
7.534358615367378609e-02
1.774082478780118766e-01
1.770437175963548437e-01
1.284534803226532462e-01
9.169731421817298167e-02
5.589930711342095543e-02
1.192948805755704444e-01
1.026782784137436205e-01
1.061378516395557886e-01
1.113012310104757457e-01
5.860267837622529230e-02
8.121861478622824371e-02
8.873998166455691894e-02
1.491602849944161924e-01
1.010129339284432382e-01
7.878713721160743311e-02
4.085576086542819230e-02
1.066858574139422922e-01
1.162570857258969637e-01
1.760534226156219850e-02
4.806539784135279575e-03
5.958586280011962666e-02
4.964838699822250734e-02
9.570726273529134298e-02
1.713575734572662587e-02
2.065467342369392556e-02
1.210914878926539623e-03
1.518546030085468276e-02
4.838694465422599400e-02
-3.797258040806893858e-03
1.374389830141412028e-01
-3.673719230219225917e-02
2.110040722601885105e-02
4.312910110851755213e-02
7.343305087372137274e-02
3.368946754233690527e-03
-2.254573522032694149e-02
1.031421720382875995e-03
8.598511377754364249e-02
-3.111100471520615585e-02
6.076372062430827892e-02
3.733739497899526971e-02
4.019228297317842258e-02
6.367186253367107529e-02
4.872412927690757123e-03
5.624974637519212367e-02
3.138945882233042106e-02
-1.297802070129354043e-02
2.358028227205397759e-02
2.507847767589619845e-02
-4.705436266825321900e-02
-2.758363655820422061e-03
4.157051076904993980e-02
3.175208534111065295e-02
5.941285115075860962e-02
6.711642793814499852e-02
2.496593000264325096e-03
8.035762121809942454e-03
-1.604496200755134785e-02
4.766531470059351405e-02
1.727044483587849774e-02
7.015164563514973695e-02
6.788722637243543856e-02
5.331241604833392850e-02
2.729421942944233043e-02
7.540501680869206302e-02
4.484780286231498936e-02
5.458470890266770015e-02
-8.029624486931757898e-03
6.419658589213554645e-02
5.710048031575899047e-02
5.548561788079382773e-02
4.465191304933195660e-02
1.938016467825540504e-02
6.752773784578215699e-02
8.041805073883585842e-03
6.993771281734448286e-02
6.390092247028346384e-02
1.243137139126025137e-01
1.452780148277351413e-01
4.769644006535822545e-02
1.211586660616405520e-01
8.192041538406993895e-02
9.194374408346195349e-02
9.569372073178306071e-02
1.536983885622687507e-01
1.154219263363699399e-01
1.356136100841695002e-01
7.675995627224059537e-02
9.632155587608168257e-02
1.176844801840908339e-01
1.378029085001638565e-01
1.611328111459954526e-01
1.263828324945846515e-01
1.887115105988843577e-01
1.408602175540247803e-01
1.305144449423314978e-01
1.789343484082860092e-01
1.758571903485999233e-01
1.019098698912413448e-01
2.043190891077987514e-01
1.410192821262140628e-01
1.511883382056646574e-01
1.314443430320677009e-01
1.448909598368609553e-01
1.061704148522232133e-01
1.663753043500932061e-01
1.384528797162299929e-01
1.483886050906013110e-01
1.880096708292277874e-01
1.734612448007727681e-01
1.620222657537413458e-01
2.247943500828845365e-01
1.358700127912262356e-01
1.802121903435888739e-01
2.259904858268721450e-01
2.461748575731217414e-01
1.719542572412185166e-01
2.140967111268757828e-01
2.943520222917994089e-01
2.750269660518214199e-01
3.246473920774956556e-01
3.475865867543699306e-01
4.064474804158982324e-01
3.531280955340566630e-01
5.007228217298063111e-01
5.704907689701429474e-01
6.230303750552396158e-01
7.074435375589507302e-01
7.338377662808267532e-01
8.522723056716571266e-01
9.634444831401615117e-01
1.020375294015857026e+00
1.066546943146212678e+00
1.111633074080494943e+00
1.133678305364095751e+00
1.182963060171575265e+00
1.256752485122524021e+00
1.248717769313754333e+00
1.327252134706362607e+00
1.210414433317488436e+00
1.243751472483000775e+00
1.208956229365292900e+00
1.214106581916725824e+00
1.175866501657700791e+00
1.054477547088431333e+00
9.927853193910338714e-01
9.443853739481070653e-01
9.149081189806100856e-01
8.403009597596423630e-01
7.065383985634259290e-01
6.935267386296596337e-01
6.209572856428516863e-01
5.492832981132730330e-01
5.077614301305241051e-01
4.408474385682802921e-01
3.856824497594250056e-01
3.729988761816846465e-01
3.441860799280442862e-01
2.518113909539355655e-01
2.331970285935264509e-01
2.311479846579195530e-01
1.856878777901165845e-01
1.966166437770654751e-01
1.675707914039154534e-01
1.780484636796481890e-01
1.686330538938034529e-01
1.419738946983821470e-01
1.692708361176948617e-01
1.631472658875335879e-01
2.120091890437463822e-01
8.901428821960832849e-02
1.665242140979845964e-01
1.808651664930632785e-01
2.198800547852371445e-01
1.414236047331781376e-01
1.642420754827435547e-01
1.512782941790914715e-01
2.226920969154195518e-01
1.505826782384846463e-01
1.632714488295838318e-01
1.385679806784732571e-01
1.025452162890533592e-01
1.906808970541374049e-01
1.913736480249579874e-01
1.913436776614566293e-01
2.202543891704968615e-01
2.285202689607224724e-01
1.881804394529406343e-01
2.137999888337942245e-01
2.113583446620708461e-01
2.176782964083479599e-01
2.649028738621302947e-01
2.347122803877410568e-01
2.554454588475454924e-01
2.199580154963661494e-01
1.935407774782604284e-01
2.610717977038400917e-01
2.518308036079130452e-01
2.163819248623456704e-01
2.256326217998669281e-01
2.476680076038776379e-01
2.420154073890488922e-01
2.269856967679604598e-01
1.972928522443748167e-01
2.865001155219179529e-01
2.277461934970921587e-01
2.609983167309465335e-01
1.512815821436117869e-01
1.857246211550381831e-01
2.536086447088751750e-01
2.124363861343481763e-01
2.468880416933627031e-01
1.945741263892112605e-01
2.051212787452754982e-01
1.828688508320489847e-01
2.314023613262934376e-01
1.882788934063372999e-01
2.191801961395180298e-01
2.353204851329437908e-01
1.797041067120589697e-01
1.784881673116723022e-01
1.611832451460087912e-01
2.314875871331562029e-01
1.638596202510578803e-01
1.550918293761965605e-01
1.237440387429055710e-01
1.353667769032909085e-01
1.336411220994545013e-01
1.745399748795351536e-01
1.274636951872245016e-01
1.203931261487402038e-01
1.488576559848477920e-01
1.214964145045172583e-01
8.280028485848316133e-02
1.567138571435098549e-01
8.839385770387908625e-02
1.083081108824818090e-01
1.081391154303037727e-01
2.354552356563966234e-02
7.486489977014179620e-02
6.207333689480201006e-02
3.931117207338583053e-02
6.657934464475673275e-02
6.904834305704324326e-02
7.720595796574408753e-02
5.992892405142169476e-02
5.084749779373171075e-02
9.611580009455664153e-02
3.349447494875570919e-02
-1.033411664139867112e-02
1.178145142210496737e-02
6.621670987365471661e-02
2.281116011720851072e-02
-9.224562895288127007e-04
4.368498042990028724e-02
6.558722660444189778e-02
1.016574741964056117e-02
3.226913715138812755e-02
5.421646916220559942e-02
6.973258995199846377e-02
2.161852432747821129e-02
6.982258149074924147e-04
-2.059491685813871070e-03
-6.777025650275443625e-02
-4.290560845611163243e-02
8.437520028911571490e-03
7.007187318649710228e-02
-2.740834221517211844e-02
-1.880890699672588609e-02
-1.243767815012113143e-03
3.177214437123009050e-02
-4.167766943234602062e-02
-3.149188085601001968e-02
-1.864043470216563900e-02
-1.594974379284107638e-02
-1.527687116575263820e-02
-1.068650684677436083e-02
-5.581967109761887258e-03
-1.370109611038768105e-02
-2.452464310867754141e-02
-6.650299601819820161e-02
-6.483544866143223229e-02
-4.866402348736161010e-02
7.235448645796747902e-03
1.548490175388264611e-02
-6.765578046355384678e-02
7.541436053980360432e-04
-7.494225340456042717e-02
-9.304140200485186418e-03
-4.106339735473703983e-02
-9.176323440499191408e-02
-5.769890028479376237e-02
-4.474013674032576576e-02
-1.334294142091757562e-02
-2.738824923276623677e-02
-2.901358097914431139e-02
-3.314350689899681068e-02
5.985094698002499380e-03
-5.279732460200116384e-02
-5.768314260254280013e-03
5.156253520194364892e-02
-2.613506589170415395e-03
-2.056155176487120539e-03
-3.526780527495682049e-02
4.764341135744414729e-02
-3.533558879487801174e-02
-1.171439927569835684e-02
-7.225623873181402645e-02
-2.382374823751011103e-02
2.124638161015962590e-02
-2.550997216277876845e-03
3.611822508450250602e-02
1.408966332911085889e-02
2.612801925783087009e-02
4.493149089913502092e-02
-2.874056255219148426e-02
4.789676505156850728e-02
1.547250628797392641e-02
1.626800005369140323e-02
2.619992192103383355e-03
5.278118687108825091e-02
4.756275469644091758e-02
7.327704472376821154e-02
6.035512687337950266e-03
8.831855724042335376e-02
7.636191354632688999e-02
3.881903624267914188e-02
9.968872010575932641e-02
8.533839309274254825e-02
3.921401585864790762e-02
8.643595198261044832e-02
9.083386983969404804e-03
1.087139005551734372e-01
7.144108972818816183e-02
4.442923309331478499e-02
2.603993276106312399e-02
1.084237060341215475e-01
9.741044125902734163e-02
9.323250997985466082e-02
1.121287031827023217e-01
1.061680216891831147e-01
1.288780643746267052e-01
1.069703655908508522e-01
9.350031038373102232e-02
9.421797810362220194e-02
1.144276734806283502e-01
1.218521672942237677e-01
9.026872413918857196e-02
9.391862329093603190e-02
1.169507768980240503e-01
1.199580502479384997e-01
8.419113113811597937e-02
7.718793691985684213e-02
1.215622075678221004e-01
1.406667368219966796e-01
1.431725172018299130e-01
1.043751623814272306e-01
1.706795725838550770e-01
2.046137650691056131e-01
1.879551575283605613e-01
2.078314712180477086e-01
2.944564592221478039e-01
3.279775185132177695e-01
3.100887699227330985e-01
3.918567934834522593e-01
4.062028060612721259e-01
5.099398568507870211e-01
5.449381674808015941e-01
5.958714692451907435e-01
6.516277895219226846e-01
8.021149712649624508e-01
8.211981402889683146e-01
9.993461983778594293e-01
1.012936217268466388e+00
1.070565161425780731e+00
1.025271001530276394e+00
1.129923820369469256e+00
1.108798612048121246e+00
1.213452628099549679e+00
1.214004879676196191e+00
1.265053998239405786e+00
1.181869426229933850e+00
1.208728025732109135e+00
1.165972983751397241e+00
1.123999158562360101e+00
1.099331547865279646e+00
1.033587517004598499e+00
9.821747123176498562e-01
9.048747926234189665e-01
8.294437601671139637e-01
7.245156944135141552e-01
6.663704968628774150e-01
5.749120652080006444e-01
5.304748435842904231e-01
4.899863677552510621e-01
3.754561497538076442e-01
3.890338473561275601e-01
3.096741070257296169e-01
2.712170726017213984e-01
2.383017312533013410e-01
2.129158789289676001e-01
1.081158354423085166e-01
1.569554952978108320e-01
1.217528821598625743e-01
1.213734854770119748e-01
1.419965466066750448e-01
9.691693843704811406e-02
8.384824284182512688e-02
1.136283255666278857e-01
6.779073780810876415e-02
1.393242019813429877e-01
1.632540652398380976e-01
6.577882190815267927e-02
1.289504166531250107e-01
1.586258251114452400e-01
1.034507583431672484e-01
1.041391736346636843e-01
1.080273335957878666e-01
1.676643575927067309e-01
1.749642786568287867e-01
1.318339888317285880e-01
1.897104540879255563e-01
1.124143758883766470e-01
1.682225545613456053e-01
1.311861149442700991e-01
1.662332288571194971e-01
1.546958575359936028e-01
1.376331069984916833e-01
1.827216987877800514e-01
1.397736997124925384e-01
2.010156362845212097e-01
2.045040233391318130e-01
1.887290806583118707e-01
1.788209552414336823e-01
2.120621615179807407e-01
2.168725792177180756e-01
1.797129581780607666e-01
2.012071215587914463e-01
1.851388095010425561e-01
2.121595087843822502e-01
1.770363348651208812e-01
2.059191550387420022e-01
1.968596526460761331e-01
2.267004520206560569e-01
1.833720549515053533e-01
2.072693393952994845e-01
1.856133074532558269e-01
1.513118112246429892e-01
1.881931046235909288e-01
2.130969032450218681e-01
2.121674360290531081e-01
1.715756506079200439e-01
2.172627253380118306e-01
2.233379873050157505e-01
1.545318499901013887e-01
1.832794605876318927e-01
2.079072714866854465e-01
2.115820486925832633e-01
1.752009831682314056e-01
1.983654419846607175e-01
2.001394004757903744e-01
1.740184202689026294e-01
1.443123676405301259e-01
1.592963172102115910e-01
1.234704601558968551e-01
1.204564462620483223e-01
8.808306561956505409e-02
1.557726788861207856e-01
1.563275718795144875e-01
6.300778938167059251e-02
1.004408563074689342e-01
9.145210802666872696e-02
1.200891194178642096e-01
9.936103478459791527e-02
1.140730847944114168e-01
9.045037438582979872e-02
9.275008818577841485e-02
8.114514769189748455e-02
1.100707426741363848e-01
4.057410984647170232e-02
4.279003014915466752e-02
3.459948569263189555e-02
6.936291164494901018e-02
2.669241171549298353e-03
-1.081406340855054632e-02
6.340919750803296340e-02
-2.776222000414794999e-03
7.615712471322325094e-03
-1.033899080028590628e-02
5.148707854196521438e-03
1.108041673652116060e-01
9.206115167504469454e-03
1.511735294663679036e-02
-1.808022153064561821e-02
5.626678435221042773e-03
3.525289188900283810e-02
6.102362082397477794e-03
6.028281735337626818e-02
-2.577338846888039756e-02
-6.968901237108116042e-02
4.300723045240685549e-03
2.408644270207274674e-03
-1.042505413564908529e-02
-5.559790469837163490e-02
-3.309298813636437492e-02
-1.262977034565225531e-02
-1.293206968303255155e-02
-1.994354424997249464e-03
-5.347933444135510167e-02
-8.213642188017289403e-02
-3.208220466690467343e-02
-9.285704799237529117e-03
-6.886891488070789880e-02
1.727192092709484150e-02
-4.167756593725543274e-02
1.670605354352018568e-03
1.994581091410130291e-02
-8.299615403296461968e-02
-2.005507347054232004e-02
1.896601835665755187e-02
-4.946878723780225029e-02
2.217084482297718151e-02
-6.956927723351546966e-03
-4.701170654608748112e-02
-3.844743958231296166e-02
-8.481234411991363242e-02
-5.803684213759050664e-02
-1.761575543018645273e-02
-4.574793197185164639e-02
-2.696500205967100258e-02
-2.437373531166658891e-03
-3.220379747976231943e-03
-2.449092126527223356e-02
-5.241101113170684722e-02
-2.969942216658915529e-02
-2.722243737865645552e-02
-5.263114217221352698e-02
-2.115120143686626333e-02
-5.556607976807197841e-02
-3.057471611962865599e-02
-4.648316152458554368e-02
-4.127488251011018905e-02
2.088416969103217002e-03
3.723836503601626879e-03
-2.667933980180564255e-02
1.845213883019380940e-02
5.196564692631334970e-03
3.245404362446788205e-03
-1.406590918304587504e-02
1.095143873792141925e-02
-1.895297201929277420e-02
4.007505521028034701e-03
3.778646291618184549e-02
3.178138077298218317e-02
-9.677228942366604414e-03
4.478244484591645952e-02
-2.075925396167068587e-02
1.896979084909707763e-02
5.852887709953985551e-02
4.528521234775213788e-03
4.271635970684226763e-02
5.149188996798623186e-02
8.086608479485785095e-02
3.216813298976966412e-02
7.682286159880649667e-02
3.531212986871813675e-02
5.022490138117004926e-02
6.572567491810070439e-02
6.646559491497511241e-02
1.037433198262134870e-01
1.518058927895588051e-01
8.317936394881468576e-02
8.814347062020733148e-02
1.422305631055106323e-01
1.669496992088573550e-01
9.351383930269960287e-02
1.107395413930435668e-01
6.382239279692075717e-02
8.364738150386161197e-02
5.994736873589419368e-02
1.014797707251406667e-01
1.625191130499854530e-01
8.759726459498339002e-02
9.557161833163368980e-02
1.295409395659489482e-01
6.866853770141610747e-02
1.262060161127457059e-01
4.156773150566377834e-02
1.089907325063322607e-01
7.048691003085047480e-02
9.611965196309332771e-02
1.157397314941850941e-01
1.178417855360174571e-01
1.182071871254763984e-01
1.956153733502269954e-01
1.557643142419657400e-01
9.146246117612588655e-02
1.103626364805341542e-01
2.054437988662533576e-01
1.819338547733254374e-01
2.402426858188358438e-01
2.580115795136999068e-01
2.481758643893954008e-01
2.959067553394387762e-01
3.134625805294338208e-01
4.050602444977168259e-01
4.312589501037830675e-01
5.200228755572895434e-01
5.236804360542550718e-01
6.006856446510326908e-01
6.603797273252803857e-01
7.920385195661263644e-01
8.165131184941720743e-01
8.845444552346493072e-01
9.499153451809160265e-01
1.054871245937051727e+00
1.167518407471392683e+00
1.204660298612136859e+00
1.193453908488511850e+00
1.176399456103359498e+00
1.209447539439797659e+00
1.246592097296637558e+00
1.166711030104412128e+00
1.203933037789161276e+00
1.225212681059053565e+00
1.115881938674071039e+00
1.135180159614314288e+00
1.049628868860079667e+00
9.870265962042483743e-01
9.585322688957548243e-01
9.195010877620140022e-01
7.991908479184000047e-01
7.712497243678323455e-01
6.698338987512202358e-01
5.579670924465568449e-01
5.605101558483265300e-01
5.065501984518182566e-01
4.237971262433510300e-01
3.235783600635940838e-01
2.730345868246762397e-01
2.926581580519671544e-01
2.591306816702370619e-01
2.379855629891685365e-01
1.278098740241634945e-01
1.484405548430085264e-01
1.422811353361596864e-01
1.802966167922469554e-01
1.404355371269504216e-01
1.682221200824127461e-01
1.011060089634434334e-01
7.367390214832483797e-02
1.544122401974666603e-01
1.236811240934919537e-01
1.340178982134233032e-01
9.813101870422780149e-02
1.430940646721844955e-01
1.492382977055505822e-01
1.478446471926439243e-01
1.717972373289715360e-01
1.800223995352187856e-01
1.989983690415677020e-01
1.680854526102168178e-01
2.214556008884505933e-01
1.369804707014406486e-01
2.081702670776507114e-01
1.859650390283852373e-01
1.858665686498844616e-01
1.800146042092305165e-01
2.139519948772289626e-01
2.571763893992383698e-01
2.448799744127318212e-01
2.360151713150490105e-01
2.081746055801699802e-01
2.646175882725237405e-01
2.311086283425719534e-01
1.897200466529856966e-01
1.992149187288015655e-01
2.744237055541236536e-01
2.616498079617332606e-01
2.675089638538419301e-01
2.357287315643797621e-01
2.065483151536388617e-01
1.800373813733784634e-01
2.086285488733050919e-01
1.899063999611095288e-01
3.038927398260859447e-01
2.171510440767128736e-01
2.166921007916536301e-01
2.157187441511471682e-01
1.792253852862365771e-01
1.755957336770087862e-01
2.773020401770788790e-01
2.806665904223910046e-01
2.607034889463150096e-01
2.381482018346807727e-01
1.838232453225690510e-01
2.561489499330024122e-01
2.147769694270939278e-01
2.275284197380552931e-01
2.169456223339543133e-01
2.278723229931678140e-01
2.300578974171080537e-01
1.926442834278428162e-01
2.242810410270875965e-01
1.799969558800485481e-01
2.149337987261853711e-01
2.113202972420337722e-01
1.249362331145110472e-01
1.722278689102555438e-01
1.017868216508413248e-01
1.156672110507404039e-01
1.589430243785007746e-01
1.481295119822404471e-01
1.396598639635079353e-01
1.624196371491965218e-01
1.265581085558314112e-01
9.807204499690369559e-02
8.219362893043545559e-02
7.372007990537593480e-02
9.250521213778994944e-02
9.184428948286420258e-02
1.521463666026688366e-01
1.102596694027623142e-01
7.009775095814357870e-02
1.215230782740045895e-01
1.161410407636004893e-01
7.486593217915382681e-02
1.222451514237842124e-01
1.110219542928205932e-01
6.674125583943446571e-02
7.092299676518747098e-02
5.821593020993482553e-02
8.154233568973809354e-02
-7.125268727610729186e-03
8.698705391012677424e-02
1.247898204977030551e-02
3.297409030457621598e-02
1.125360426324210489e-01
3.716850873682494422e-02
5.521095511204663492e-02
5.490821453853118178e-02
5.078157088870594721e-02
2.498126683068841586e-02
4.903136306572149217e-02
3.152259313612781194e-02
-2.057001354418919875e-02
-5.009708925159729077e-03
2.322324342729137348e-02
4.216957025289153754e-02
4.112884705087413439e-02
2.914652929720372085e-02
2.232156142142205021e-02
1.712133871898837215e-02
2.970048955132769536e-02
-1.027710719638660029e-02
1.902375828897634805e-02
4.371594261614300536e-02
1.929899258987049018e-02
-1.425031763791302641e-02
-1.531572240167483959e-02
5.270434101706561458e-02
9.444206057834020687e-03
-3.018840405890827611e-02
-1.749999660044315730e-02
-3.785285871360410948e-02
-3.700889500058433812e-02
2.088141372229237666e-02
-5.440960517947034981e-03
-2.468644600702248407e-02
4.943472675397615756e-02
3.912205211407263419e-03
1.367401710240939011e-02
3.552475146577388498e-02
-3.118459145931562135e-02
-2.416117827626963754e-02
1.589736080292078815e-02
-8.391564513088695110e-02
7.802216794928644450e-02
2.950936077296638371e-02
1.573436412026570433e-02
3.480033066863105762e-02
4.167030535199371666e-02
3.350708051342553284e-02
4.993635631911673423e-02
6.221938977167008888e-02
8.149094504076052903e-02
6.367912508318068071e-03
-3.612806681246789539e-03
-1.141738163005169907e-03
4.533172335917805273e-02
-1.311005777946459838e-02
2.912770473206033675e-03
6.404633076806415248e-02
3.702187443881047035e-02
5.082020703957904062e-02
1.068498425601409202e-01
9.304798172744387086e-02
7.390604777378892432e-02
3.935477875938578340e-02
6.933856230096836770e-02
5.323120124199894054e-02
7.584347817278611070e-02
6.062471884220914375e-02
9.541536934228511679e-02
8.819888463714839477e-02
7.450038838101619154e-02
6.931419896771573441e-02
1.603836484136635099e-01
9.497551492482106394e-02
1.526648796765745497e-01
1.219020422971771322e-01
1.328823775931164408e-01
1.376736633724481296e-01
1.296512654424655797e-01
1.422240564970519427e-01
1.627844219283839655e-01
1.115048237542927423e-01
1.474591990729141044e-01
1.569999509312345332e-01
1.785932248211193896e-01
1.488670788476387230e-01
1.573041671868885272e-01
1.887075499669803591e-01
1.182282307986594616e-01
2.017121532588262156e-01
1.434563600794107330e-01
2.013960078513767349e-01
2.079339093086760015e-01
1.601368064811900249e-01
2.010567306081068317e-01
1.605886915787470282e-01
1.504678976741884999e-01
1.848254537082139048e-01
2.011080208644335232e-01
1.483578910631654924e-01
1.286368219465680030e-01
1.919883368158265824e-01
2.420702144453227289e-01
2.011887148963310834e-01
2.524836319956433872e-01
2.616473608149830765e-01
2.740626721727873472e-01
2.651909896305661429e-01
2.777471252525745560e-01
3.337783651664026352e-01
3.323730717147293512e-01
4.350682174711919536e-01
4.463510296925309873e-01
5.072617362183885481e-01
5.647749578465740550e-01
6.101608024114132389e-01
6.838605112860817181e-01
7.807668500077270535e-01
8.059210031610456459e-01
8.778452292900921217e-01
9.540579196222509495e-01
1.048011047138418972e+00
1.058980559744520322e+00
1.140692503598955687e+00
1.139514197432533349e+00
1.198617040861950755e+00
1.261627753493371751e+00
1.299673265889335960e+00
1.297549524692778178e+00
1.286770375223768692e+00
1.251246691991829252e+00
1.273778697383608272e+00
1.183751497051354296e+00
1.104859037110584419e+00
1.133336746170434672e+00
1.002262651056119447e+00
9.529831626015081714e-01
9.207793452271085810e-01
8.005710937942522865e-01
7.828088042246005296e-01
6.839194268475119465e-01
6.293950034063149346e-01
5.588361921058291326e-01
4.864311173517668063e-01
4.883190623248082618e-01
4.171603120986040469e-01
3.004330852828875353e-01
3.031026722202433965e-01
3.095904498639286961e-01
1.892847028191941561e-01
2.145982209044294819e-01
2.547015538830408321e-01
2.191299786633920665e-01
1.840677350088166242e-01
2.144426373894317561e-01
2.538522098994025478e-01
1.581094603809759802e-01
1.486440409447904454e-01
2.377924015811253566e-01
2.181600577311365030e-01
1.818022750612793281e-01
1.954138909572366578e-01
2.228210576514497998e-01
2.269831444690275091e-01
2.333819673905725145e-01
1.859502037827148735e-01
2.072143636122159016e-01
2.782975027190640605e-01
2.442100088173451700e-01
2.794370662699492414e-01
2.398604779493876682e-01
2.232345473049194284e-01
2.144630086775054789e-01
2.348061267717228007e-01
2.880881925305685543e-01
2.585956012070831367e-01
2.156164830063989624e-01
2.334347957666039475e-01
3.364403961544436550e-01
2.442455231621467604e-01
2.804241207794740953e-01
3.020437656197244580e-01
2.684771886491470472e-01
2.087989905034619009e-01
2.452039832758873272e-01
2.553571697056039036e-01
2.425474364214116330e-01
3.293915900414462472e-01
3.115437927438237664e-01
3.254509998367421941e-01
2.617419912883198752e-01
2.816548125471357578e-01
3.193413092549661214e-01
2.351600942449765808e-01
3.427573374794514738e-01
3.211218930016093154e-01
2.977945600284243044e-01
2.650940607365785961e-01
2.422106856192670632e-01
3.001244334113858381e-01
3.233779783869856206e-01
2.863232393154633293e-01
2.917544401441611868e-01
2.896103947611492480e-01
2.717015787559446394e-01
2.780845199932971967e-01
3.054371270278987693e-01
2.729142000650852662e-01
2.560005492596432175e-01
2.238378517572318926e-01
2.684576773270310746e-01
2.418632117681651372e-01
2.379064332265473924e-01
2.470762304448527180e-01
2.264595357242766283e-01
2.325224876763932191e-01
2.220079501922075649e-01
2.008172239565609030e-01
2.330650693966831166e-01
1.238914493725220278e-01
2.142691325765380128e-01
1.610957587441070038e-01
2.212683577485332620e-01
1.268777723396808943e-01
1.610343882006415595e-01
1.841768586481657977e-01
1.631944503567912541e-01
1.412448201243750034e-01
1.908540489789967154e-01
1.138065342591498275e-01
1.517878349954082107e-01
1.255112059299730853e-01
1.629879771887261519e-01
1.184181598667683605e-01
1.317718844441001236e-01
1.184438870503219665e-01
1.217064209597343988e-01
1.242874855144660007e-01
1.173294849709177606e-01
1.107214265060059433e-01
8.809946742867394431e-02
1.127229224383170803e-01
6.714037250430848758e-02
1.106127853540353201e-01
9.593978810859360440e-02
2.637192121294262837e-02
9.661572764090445298e-02
1.391615709600359796e-01
8.277568195037965371e-02
8.874976566801193179e-02
5.965939571019225618e-02
1.501564094506435409e-01
1.442508527085869241e-01
1.270331689708969480e-01
1.361654326943811666e-01
4.504198572042836940e-02
3.179240196676667851e-02
1.534726494850544021e-01
6.211991004573212682e-02
4.077489315545644588e-02
7.830715461991727411e-02
2.971757139852413548e-02
7.013320201546942301e-02
3.644646314259464281e-02
8.750759173341797481e-02
3.333488977901956363e-02
2.324294896986820944e-02
2.995027213481665784e-02
6.765230051660287014e-02
3.853769037695042865e-02
8.301924854238643126e-02
5.532279925925626812e-02
7.443163909846949033e-02
2.748255989224623885e-02
5.076660196550724508e-02
5.477352950493340200e-02
3.140348064905630621e-02
4.088082928009317829e-02
6.802349543892406702e-02
5.436365778538856941e-03
4.327145831288879002e-02
5.346369360421639877e-02
1.891797142547529259e-02
-3.511076259377216013e-03
5.694688734052322926e-02
3.026699501304779688e-02
9.871273656849151312e-03
3.737698040925444692e-02
7.131270898443162198e-02
7.708495070691868956e-02
5.963675893195279770e-02
1.026043439155861908e-01
9.069069114354941230e-02
3.611257735544584624e-02
5.695769643018808170e-02
1.338228538107198717e-02
1.204234816866093238e-01
6.814012927725690560e-02
1.508876702213573784e-01
7.503514129544279487e-02
8.587017554735448810e-02
1.124794256597474174e-01
1.522406943441187432e-01
1.607618099136182421e-01
1.066982151089101855e-01
1.080924894117631929e-01
9.690243135834303301e-02
1.749731300097654985e-01
1.436049444069185665e-01
1.092691707898577058e-01
1.606550265257378207e-01
1.570191388840621038e-01
1.208507950744447113e-01
1.303498988312449536e-01
1.154486791853263361e-01
1.895560797011651699e-01
1.431829291112986235e-01
1.273690687260750076e-01
2.121595464224341754e-01
1.816173200820444533e-01
1.112130348663163126e-01
2.007621379725240407e-01
1.244556065719481519e-01
1.615170705069315926e-01
2.023653134187419211e-01
2.041365914042496954e-01
1.708979436890143422e-01
1.560568523761241555e-01
2.516683681575830889e-01
2.439596192948771114e-01
1.915094939318449929e-01
1.993876319519740370e-01
1.795755415994355619e-01
1.930089002097485074e-01
2.020476634328035315e-01
2.249210653117281189e-01
1.515743333098414913e-01
2.145654447255246622e-01
2.494510895409315643e-01
1.933044936831176952e-01
1.756031333892616453e-01
2.411546072029181476e-01
1.791538337456534957e-01
1.782513076441195332e-01
1.702960659537874066e-01
2.506724129642536880e-01
2.106868701099627594e-01
2.143356429512995875e-01
2.898703894883729593e-01
2.780360778363962782e-01
3.580387614155395304e-01
3.900424960931698770e-01
4.169940928173979655e-01
4.366493538405440411e-01
5.352741060586188038e-01
5.241979308498386780e-01
6.621923295217123639e-01
6.854402688173748537e-01
7.575241257755114255e-01
8.414440584852921345e-01
9.398289255452426660e-01
9.800506357006408820e-01
1.024775064259481505e+00
1.119551048779749092e+00
1.193916046581228185e+00
1.241296627196234237e+00
1.258950568794172442e+00
1.291836151246136044e+00
1.317865856288691129e+00
1.341288526513280122e+00
1.309747019458199713e+00
1.305150900018751114e+00
1.279038337110762757e+00
1.196773210158883716e+00
1.174938903337250595e+00
1.169977828470851300e+00
1.138454717004159233e+00
1.015984683660011934e+00
9.409540969245328013e-01
8.568703143842513192e-01
7.294530085464735469e-01
7.782647020761199741e-01
6.399405730699900818e-01
5.491293379956454501e-01
5.477946656286012406e-01
4.833638097516403942e-01
4.975668335531806541e-01
4.036768618914428619e-01
3.978021368510521460e-01
3.382705788920458145e-01
2.705804806459030099e-01
3.405169957516620549e-01
2.949556180310368703e-01
2.483412221668847009e-01
2.530617572800685222e-01
2.216952898814400774e-01
2.123165837928405464e-01
2.164614161523871760e-01
2.631617405753515770e-01
2.367578291544860936e-01
2.004682941668658180e-01
2.093350701866344976e-01
1.581464105978566959e-01
2.126749989097690419e-01
2.308130188775407987e-01
2.285247304305974558e-01
2.264451094357025907e-01
2.046876709244673520e-01
2.562531356033793672e-01
2.641348691451458341e-01
2.404350534643539539e-01
2.448908017323589981e-01
2.458357382013564851e-01
2.602211616860753418e-01
2.707203982836545730e-01
2.090979675920797143e-01
2.484153410284758723e-01
2.279037884230459554e-01
2.531851828014323180e-01
3.094727559082462998e-01
2.460353676526290112e-01
2.307260639551390602e-01
2.412355616386558932e-01
2.916080259412675568e-01
3.071296234754442023e-01
2.882234591774473498e-01
2.264974317462711828e-01
2.691500305218514355e-01
3.406767788319792212e-01
2.952577018334484604e-01
2.303081306478045320e-01
2.683518558644102936e-01
2.305814162765751074e-01
2.782093495160992136e-01
2.956406536294384213e-01
2.865143647467921495e-01
2.784504905116029216e-01
3.513750515339889025e-01
2.938060180049148484e-01
2.746363519237832174e-01
3.063088080283000170e-01
3.040964796180525842e-01
2.903052448055483681e-01
3.573009945108026053e-01
2.494458950101318961e-01
3.065060800762771098e-01
3.000109098099155713e-01
2.176283016880557197e-01
2.737531596637448605e-01
2.243796768767844507e-01
2.513202806324211780e-01
2.818168424022400864e-01
2.442445938663775351e-01
1.696047506349714351e-01
2.542941609907632960e-01
1.785396991919611653e-01
2.064631701546708886e-01
2.527006052759442900e-01
1.754881554837284807e-01
2.203101404736061419e-01
1.784353102474025010e-01
1.272095334072914641e-01
1.678659053969117632e-01
1.645609458900437194e-01
1.406544447720446400e-01
1.748503539621119873e-01
1.713219234630713461e-01
1.510100597106656950e-01
1.468168121813031857e-01
1.742694264230207624e-01
1.075600266795847804e-01
1.805937412033721268e-01
1.202818672807234035e-01
1.239049397979873068e-01
1.019408844309420692e-01
8.995986594377648748e-02
1.518984441611942460e-01
9.182806037295962454e-02
1.284620655017179314e-01
1.211077217656119920e-01
9.728931209925331669e-02
1.348810581605679459e-01
1.004015992966966475e-01
2.785903642461023261e-02
7.098090355532973850e-02
1.708722684473600317e-01
8.529247578955292952e-02
7.833617677880039265e-02
1.086195755313068279e-01
1.188897834855864866e-01
4.383852715161430658e-02
7.029788790461027892e-02
6.721821919559969882e-02
2.093562669713649321e-02
5.628575546482929293e-02
6.713645267674210604e-02
5.241132444164581239e-02
1.177402359039137342e-01
7.833823557547672789e-02
6.335706657470234482e-02
5.226239123518854057e-02
7.283256981998698087e-02
4.124796538879983016e-02
-3.419595551540435818e-04
8.239595106851075462e-03
5.211584017584217077e-02
8.224191722708987240e-02
2.906568555404783274e-02
6.898268128944663735e-02
5.428395287239402844e-02
7.527868047118319028e-02
4.884757530546703780e-03
3.189143312046508610e-03
9.171835594562738336e-02
-1.560354532667810115e-02
4.834861253811435777e-02
8.459296725476400658e-02
4.897867495513643504e-02
7.938854140339816901e-02
7.666865140320568150e-02
6.101956613982824351e-02
4.717938330038962125e-02
1.822018480410834279e-03
-7.378957754305602579e-03
3.014522175064223569e-02
-1.904337724307791219e-02
5.603320747801519841e-02
1.119461603987524784e-01
4.080454198874444716e-02
5.172050877506785549e-02
5.015350869116138449e-03
3.887487460971544850e-02
4.632968050237386282e-02
3.848254322148553230e-02
5.995254232776594389e-02
2.937681128465389688e-02
5.536367495989494292e-02
6.835442974943767291e-02
9.852533595224316487e-02
6.159776848201017896e-02
4.345281158637667729e-02
6.012551461037586586e-02
8.171611087714494848e-02
4.308082392039137148e-02
5.232194868122780340e-02
8.174635585886558253e-02
1.995948596195974353e-02
8.137582092003374512e-02
7.581267395225668726e-02
1.110581865536279800e-01
7.091348600138820679e-02
8.847455056885226987e-02
1.048368966256573442e-01
8.891033547185139829e-02
8.459270739224286628e-02
9.891928895913779107e-02
5.908048454363412638e-02
9.714137429920109701e-02
1.493487401203966169e-01
8.893616029303472170e-02
1.064270258766483179e-01
1.341827842154306172e-01
1.673361392407960724e-01
1.113363234688377890e-01
1.326783288111989534e-01
1.960884784736766084e-01
1.627589831445782897e-01
1.802885972051880004e-01
1.301583883768235028e-01
1.444178686905769338e-01
1.957253100477445162e-01
1.767743238625649194e-01
1.846326342652870600e-01
1.883781716093113345e-01
1.933558184437954852e-01
1.562089122535754160e-01
1.350682820966508935e-01
1.467151628916379125e-01
1.550606838559491774e-01
1.001532921281649002e-01
1.827240230018832290e-01
1.958792895038116433e-01
1.747994276264412672e-01
1.546803255283265288e-01
1.822125490800640124e-01
1.346935904726914712e-01
1.406669558189847791e-01
2.568280758688614718e-01
1.592810220211317573e-01
2.634788903095186541e-01
3.028261586445339937e-01
2.874662340339964040e-01
3.179976572330137641e-01
3.625020485409719551e-01
3.354306327076348460e-01
4.291885774645068374e-01
5.442257166075853414e-01
5.634742380663178007e-01
6.179406194387319085e-01
6.911664983447074473e-01
7.368701222410452001e-01
7.911219849499194767e-01
9.264447217294823345e-01
9.388752823390773550e-01
1.099256193175401908e+00
1.083876294589617428e+00
1.157876990821106622e+00
1.243160762889349735e+00
1.243833678746441684e+00
1.214424369451733376e+00
1.253205892658732612e+00
1.222700935630719021e+00
1.259425633248042020e+00
1.214326614049790365e+00
1.207406417140583388e+00
1.214362012964797399e+00
1.173846661238465261e+00
1.012169049608887317e+00
9.479886784498113839e-01
9.354881507118526507e-01
8.564062282216611255e-01
7.500935111279886103e-01
7.123293135890912398e-01
6.489261529744629886e-01
5.730568922526421138e-01
5.576944349491611552e-01
4.947063879659914787e-01
4.056650415084679384e-01
4.003295548228558709e-01
3.478204409453337642e-01
2.878511489082677399e-01
1.759355908150521397e-01
1.847156441263279880e-01
1.939195580438119182e-01
2.037806919969711306e-01
1.357605535678904352e-01
1.990802475511264658e-01
2.028559908679354595e-01
1.681306989946048935e-01
1.666966609280212674e-01
1.724969056083651420e-01
1.626463771547897730e-01
1.541385359110599151e-01
1.498899748672171406e-01
1.847727466906236293e-01
1.869915043661761478e-01
1.220763562570729294e-01
1.669117861249111712e-01
1.870007745012586264e-01
1.316648875678389230e-01
1.997545936637904473e-01
1.795699675352038227e-01
2.483555600927755402e-01
2.157325773540360037e-01
2.008922564859479676e-01
2.154278732926938333e-01
2.094151666042057547e-01
1.628008941458927994e-01
2.113417093079986153e-01
1.667779111452825647e-01
2.102144615686272477e-01
2.270826448498064198e-01
1.884171660376783852e-01
2.256955006531836672e-01
2.749978080793673008e-01
2.161370214241917775e-01
2.057913151877796276e-01
2.690956426344972008e-01
2.439851225422908776e-01
2.375286523363167035e-01
2.553689822002040977e-01
2.447813693257600565e-01
2.170234467668254730e-01
2.055999884648840592e-01
2.936692148447985762e-01
2.534182717219735093e-01
2.854162236465905833e-01
2.300719927009941546e-01
2.731650981039471238e-01
2.107231607775735815e-01
1.850603692589982974e-01
2.443594332285137505e-01
2.559126755492149297e-01
2.566884828364557891e-01
2.349792709239168498e-01
1.986891588185981661e-01
2.273283044514259610e-01
2.232995468978142828e-01
2.062450202429852442e-01
1.908948350530050575e-01
1.664588533819999217e-01
2.021949038841734381e-01
1.987958121497154784e-01
1.429884416071688646e-01
2.406833636253244146e-01
1.344762733127954357e-01
1.523197724807917874e-01
1.750003611965044170e-01
1.739075401468458959e-01
1.325758532383353172e-01
1.237463507077914138e-01
1.436100079408990648e-01
1.405667582071873922e-01
1.790642523889325599e-01
9.853412447491378956e-02
1.276474876823092131e-01
1.155320406067146255e-01
1.264307866969593130e-01
1.016071327443272831e-01
1.364149151154169515e-01
1.198753722089622442e-01
1.338743924571781096e-01
9.336847818191698622e-02
8.437760817781318756e-02
6.804285007457636092e-02
3.065902287474132903e-02
8.198419715050273004e-02
7.958185709572782041e-02
7.852478434533315121e-02
4.569794565854769230e-02
1.847550319517802381e-02
2.494389974118637124e-02
5.216402920387741560e-02
7.482903055720682706e-02
-9.461203100612519679e-03
8.291521685084989046e-02
-3.231371653431567431e-02
8.284914836200020505e-02
-6.603440303043269649e-03
6.535684645817511906e-02
5.202810275778221860e-03
5.823030289699193673e-02
-5.628242722822013322e-02
2.817894552663215493e-02
3.890840340137279030e-02
1.510031578229857965e-02
2.145703455543845548e-02
3.303439074493188382e-02
5.514515124738817581e-03
-1.567495123668315518e-02
-4.311684132247811663e-02
2.254296553697693675e-02
2.585908275123582206e-02
1.233842472065713528e-02
1.319104878621933305e-02
-3.547213062853236953e-03
-2.582405164453156418e-02
2.071207837796855758e-02
-2.910127114848731766e-02
-1.197497341650780728e-02
5.414528272638594042e-05
2.428176534810150625e-02
-1.056238060541915824e-01
7.479688649528113548e-03
-3.276469153977673576e-02
-4.737198982797983376e-03
-7.687027251816026807e-02
-4.319684279544661748e-02
1.414654712180057894e-02
1.394972690713797148e-02
-2.717582866523169521e-02
2.962980080105823838e-02
-2.153366250133738335e-02
-1.145484263999358918e-02
-4.595675021761490980e-02
-3.449593270100682896e-02
-7.838878304249358858e-03
-8.936920054999568375e-02
-1.600406583797781349e-02
-4.943206303889582237e-03
-1.707305759469001857e-02
2.708400751504820569e-02
-2.931665328364371770e-02
-2.061409140206885149e-02
-2.401274309413591046e-02
-1.931976859952696385e-02
-1.325399018480321461e-02
-2.316919619641358979e-02
2.951784826762046676e-02
4.002373874917401070e-02
3.507468134245703834e-02
2.481352941328748146e-02
-2.292122957859012156e-02
7.025385480462859045e-03
7.515305740858960193e-02
9.527996518638635892e-03
3.128966160040459743e-02
-2.168469816471921274e-02
4.324967272638722410e-02
1.073485869291399691e-02
2.711662132618939541e-02
-4.347343618445372038e-02
4.190883069895266072e-02
7.472279034671733267e-02
8.030214604729685179e-02
4.472809614208130696e-02
8.398589373937215274e-02
9.411203451413169274e-02
4.648758315798631052e-02
1.028290376410961882e-01
6.792588770128471509e-02
4.216630613976480452e-02
6.483148867362950596e-02
9.599510903822724983e-02
4.770805216657928588e-02
3.437876167398917077e-02
1.108976016235179163e-01
1.124380709477124374e-01
9.616684698480033877e-02
1.092345901094470551e-01
1.280271881162085845e-01
5.857445911667513716e-02
3.051725834769175583e-02
1.364267211683714009e-01
1.239129212795035684e-01
1.289478489245805826e-01
8.828827421674260989e-02
1.190443991489635589e-01
1.450950951508439002e-01
1.194175617569622205e-01
9.780148770739685582e-02
1.204670638448040731e-01
1.549985176890397165e-01
1.212055370809356492e-01
8.514625898186600761e-02
1.745804868377496544e-01
1.195158426038157029e-01
1.155124951805732714e-01
1.278981272751817388e-01
1.747096512330967022e-01
1.581317153862348279e-01
1.476839279301667418e-01
2.352866625728134709e-01
2.579337233055478684e-01
2.892632519711315076e-01
2.957346724457561304e-01
3.599148660422271107e-01
4.366639411119729863e-01
4.826107162181738075e-01
5.499389670934879959e-01
6.511005070414594975e-01
6.811167538496942786e-01
7.580066751734151342e-01
7.857793729743993705e-01
8.492631244045978356e-01
9.709577495475246733e-01
9.996626512634146922e-01
1.018708529175155419e+00
1.136060149966433119e+00
1.193875451835751056e+00
1.162490402530058864e+00
1.163164861337470990e+00
1.266777138350116516e+00
1.260130030022269310e+00
1.237140310414314603e+00
1.155805972049155139e+00
1.135408297312180181e+00
1.110303294020421383e+00
1.070814594289998034e+00
9.792409803147094083e-01
9.966761901343470509e-01
8.657971058680730136e-01
7.803475193274815869e-01
7.003684331151703857e-01
6.415829737509191055e-01
5.783546392874016062e-01
4.687109210958742556e-01
4.063671275959792606e-01
3.649765185401510625e-01
3.279042658436358004e-01
2.983093471603223135e-01
2.413308765845051940e-01
2.207480374806613244e-01
1.507552371057527540e-01
2.065485956662862499e-01
1.099934885797648476e-01
1.458171544054953084e-01
9.462759342173304722e-02
1.289311904846897339e-01
1.580045570032835023e-01
1.322453389169864213e-01
7.940529192370436584e-02
1.128518840694064940e-01
9.599543424657969171e-02
6.927612070509331366e-02
1.412680630007225047e-01
1.846946083727080967e-01
1.572994986449923749e-01
8.598773240470414247e-02
1.890110804326140537e-01
1.125400750419456031e-01
1.232319621191731995e-01
1.176971207859139612e-01
1.492676135362898115e-01
8.734704576295963807e-02
1.240054453629631792e-01
1.925802825075761948e-01
2.393368698337906553e-01
9.908002183196722157e-02
2.010323392600810721e-01
1.367977725004361766e-01
1.626658215344502223e-01
1.418228013325408821e-01
2.129118735377130145e-01
2.029209325560664134e-01
1.919874170551919279e-01
2.140595190242099433e-01
2.117097956158777716e-01
1.608682313136595154e-01
2.064516282283624105e-01
1.788954133159235127e-01
1.762772532446374996e-01
2.151877635495255403e-01
2.404549445853171319e-01
1.985682595743683276e-01
2.504724918773727493e-01
1.908334972391421136e-01
1.493711937322116379e-01
1.589061407186087849e-01
1.509494668142178364e-01
2.092550185661374296e-01
2.532447701583373512e-01
2.286286810043050566e-01
2.188089149980852743e-01
2.382907161963783715e-01
2.070155514306490085e-01
2.180445361871434229e-01
1.838262068514192049e-01
1.509525888360511714e-01
1.367150114365930924e-01
1.585387309063338024e-01
1.143044459562246179e-01
1.519743073257551202e-01
1.485560229516782738e-01
1.805248268000627931e-01
1.450842702435324316e-01
1.832066016234947803e-01
1.266979317406252137e-01
1.054163690910993600e-01
1.848920720944003948e-01
1.608940876036267786e-01
1.251793667243777664e-01
9.822641972103589303e-02
1.795917712720457304e-01
1.070453224229911543e-01
1.273281054100492971e-01
1.411348481821954604e-01
1.043666585939512503e-01
5.120742236437236805e-02
7.547740725006817086e-02
6.075102689675831308e-02
7.038851921075876816e-02
7.609821013484674435e-02
4.979260788939411653e-02
4.589653915476550605e-02
5.679187270704865592e-02
2.414458950900311152e-03
3.326256876784625116e-02
4.731959980656303549e-02
4.011655995488795645e-02
7.919060358063244320e-03
1.143593804547413800e-02
-2.251700951046210764e-02
-4.406681924195139655e-03
-4.081576338853597913e-02
4.532394077269241706e-03
2.213371050605790480e-02
-1.676943114603221541e-02
-6.588444076108004865e-02
2.493222128625999234e-02
2.540231810711592042e-03
-3.271472686576856748e-02
-3.667295402815244632e-02
1.530049721903901927e-02
-8.914611809048775259e-04
4.897157496301027257e-03
-6.380138942296365023e-02
-4.078699474285470139e-03
-5.385819049757421817e-02
-6.662974125632865896e-02
-2.675377442678716911e-02
-1.293851582902535990e-02
-2.790441912591450080e-02
-2.794546201087286241e-02
-6.664966256305980552e-02
-9.207013070952795031e-02
-2.051122799805507602e-02
-2.782824579554835434e-02
-5.077699561654751975e-02
-5.045111626600079502e-02
-3.484337878238438074e-02
-5.098705142931782980e-02
-1.789844656013092616e-02
-1.716389726680706690e-02
-4.271800575022204061e-02
-4.727280625434102795e-02
-3.280741221146338260e-02
-1.274706730063145943e-01
-4.313356212104239862e-02
-8.952128395129677063e-02
-2.861076048132090224e-02
-1.405429221483220359e-02
-1.173922233028942830e-01
-2.047868100884930875e-02
-4.351240524695538375e-02
-2.498487108660470135e-02
-9.464034385787703507e-03
-3.201797675787443342e-02
-3.367537341164829334e-02
-7.179734932892270494e-02
-6.209510636111644638e-02
2.533636836181814289e-02
-3.615069456627831301e-03
-1.813280800376174812e-02
-5.918208609105719831e-02
-1.804458856796779809e-02
-3.985085941129386938e-02
4.205212758412588125e-02
1.900187954109151811e-02
-4.515251801774651519e-02
-3.959148189246179672e-02
-2.162818333237938664e-02
2.675467102514790529e-02
2.416047596066586700e-02
-7.099348394250265537e-02
1.042374479935984782e-02
3.630748421649947905e-02
-1.229495259996139789e-03
2.563285257918825055e-02
7.004045688209367682e-02
5.913061837411321547e-02
3.626977682886088628e-02
3.617899120541792635e-02
2.939456952005882473e-02
5.183477421631909471e-02
3.377139148525883788e-02
7.590822718850941120e-02
1.815814106409630729e-02
3.517511416562729698e-02
4.616648693581869300e-02
9.967635745550953996e-02
9.122873844885817651e-02
8.070688903038289452e-02
8.636141872209412984e-02
2.001304680110928963e-02
1.032352758833392503e-01
5.410121902313579090e-02
7.023557157269463835e-02
1.869898968598562583e-01
1.110787664410843312e-01
1.029919366647152335e-01
9.425730871063593697e-02
1.403539957052027387e-01
7.190627699147300600e-02
8.907730742414884939e-02
1.416660609835075912e-01
1.078709042924639316e-01
1.201965680771157619e-01
9.069341959188509383e-02
1.266900514730578131e-01
9.335963215735854082e-02
6.137684247091754197e-02
1.399563967044488710e-01
8.414399270504827055e-02
7.470261866464680822e-02
8.542559132448915293e-02
1.204425388173110401e-01
1.014142611614889111e-01
1.863843197444732258e-01
1.734083002653102334e-01
1.556044721980305856e-01
1.395427991235210774e-01
2.151578714077087007e-01
2.189114509601797764e-01
2.162487883079316220e-01
2.771396202207478954e-01
3.143177524077870877e-01
3.285164640022983917e-01
3.582714344299287035e-01
4.904122308247217399e-01
5.350706376332652336e-01
5.726454161143093025e-01
6.594898722100781541e-01
7.398888997253922906e-01
7.714593176535009533e-01
8.446684752741201452e-01
9.757435742789981603e-01
9.693436955676232314e-01
1.106021884744296413e+00
1.204267934169315435e+00
1.157757384929860800e+00
1.134823512858323058e+00
1.209480039271645824e+00
1.229552139761176832e+00
1.227864271822388886e+00
1.260676558941800307e+00
1.186703693416805150e+00
1.183453759476802425e+00
1.140522026604612105e+00
1.091303066126448451e+00
9.924923678861456988e-01
9.850585376315181829e-01
8.591662416782329670e-01
8.308645203100525345e-01
7.629038976246953485e-01
6.469918734893386203e-01
5.757255263870869610e-01
5.315608506967762770e-01
5.137382745508964899e-01
4.358230001156077060e-01
4.024189217581496947e-01
3.582335394256382366e-01
3.059812929946350568e-01
2.470190845192114792e-01
1.204395172138103542e-01
2.132999789459378848e-01
2.425617238865148961e-01
1.336048174141326039e-01
1.420338873767405807e-01
1.871085001114910773e-01
1.430924862991546365e-01
1.370955032930343265e-01
1.082061689778041624e-01
1.286258581784929800e-01
1.268410176849026350e-01
1.350267144582455447e-01
9.089780765678320829e-02
2.010449088685339891e-01
1.329459104693397342e-01
1.065035026073577612e-01
1.198860154386559573e-01
1.123890881157625227e-01
1.426651970153841875e-01
1.453720752811785699e-01
1.893001538557863572e-01
1.261718018291325683e-01
1.275455604431081635e-01
1.132320741347475623e-01
1.889984517627000815e-01
2.027905297396752626e-01
8.434817038696920677e-02
2.031458683843469781e-01
1.730199986372171206e-01
2.291966826323225126e-01
2.591754536803078102e-01
1.533556766157068985e-01
1.904157340698510725e-01
2.414662399819081373e-01
2.442034840641505167e-01
2.109314114366048210e-01
2.452140530104760796e-01
2.334095693130947557e-01
2.502445660858891308e-01
2.535638171938695562e-01
2.192719917014575581e-01
2.487936400220714106e-01
2.207832859230811351e-01
2.505266535124002769e-01
2.018934135859356271e-01
2.371618871951365892e-01
2.358322460336791659e-01
2.506242703922844650e-01
2.175902450546514377e-01
1.912451207571142786e-01
2.154777713398778882e-01
1.723077743283068231e-01
2.009410500503858998e-01
1.639229831348165412e-01
2.107382257600500242e-01
2.384333934979064318e-01
2.306958429158379453e-01
1.482224609133101501e-01
2.031192973225236786e-01
2.672110950594550061e-01
1.713579379491186605e-01
1.982348626931438873e-01
2.164155466219471469e-01
1.309450263109122048e-01
1.824895239050003670e-01
1.956400351112231872e-01
1.524968287272978340e-01
1.138170315855754344e-01
1.909560340479877771e-01
9.515791787528797563e-02
7.564033307858659960e-02
9.587616642139315526e-02
1.213958462234677460e-01
8.177230591138870408e-02
8.811195674112411169e-02
9.826933204303747726e-02
1.545618952389063994e-01
1.237702398438806084e-01
1.122279277956857724e-01
1.504359475597068507e-01
1.476115445840603391e-01
6.318294133941976254e-02
5.690327074778685906e-02
6.354998912704175329e-02
8.648021209110642871e-02
1.170253717184932957e-01
3.811392460080351152e-02
6.427733296213636316e-02
5.886357556958420056e-02
1.033690065278522197e-01
8.293436238913969027e-02
2.031195599137170654e-02
7.399161156539948991e-02
3.684144799471741893e-02
5.103066474619429027e-02
8.568290800389927186e-04
-2.482388559274473910e-02
2.503422572786808201e-02
1.442068086536454560e-03
2.324564428520342618e-02
6.381532060929404407e-03
2.606676669006027791e-02
3.002248567318528683e-02
4.278069774732309871e-02
4.061189042608132765e-02
5.700251189729153151e-02
1.829821269878954826e-02
-2.410671595212528218e-02
4.280129314860533357e-02
1.946384213937078431e-02
3.359513093553176399e-02
3.374556394413285448e-02
-7.676768360035009231e-04
-2.171887526063192089e-03
6.708671513346937954e-02
-3.501530940957851834e-02
-9.890165682483111065e-03
2.994710949994093194e-02
-2.938011182305273229e-03
-1.485097272968841434e-02
2.673103989134778882e-02
4.356815043652598890e-02
6.950240819303353350e-03
-4.595314571973273254e-02
4.991353358776573143e-03
1.388667837230053714e-02
-2.982140990670745923e-02
4.807486655099461881e-02
1.847828028186032298e-02
-2.772587362961117727e-02
1.980296850542774545e-02
1.971757188199175365e-02
-1.520835605166941454e-02
-3.425204783664752284e-02
-3.636833186887113330e-03
-1.328635125450121530e-02
1.512866996878647376e-02
-3.038594234117722968e-04
2.466512576587647637e-02
1.805840933301488052e-02
3.566033493648761155e-02
3.229786804285064011e-02
4.677350252006080150e-02
-8.715196875806999546e-03
5.254000588302790847e-02
8.207769893961638918e-02
6.246685135556936247e-02
-1.794475739499870257e-02
8.089057475357486204e-02
5.704213714704042815e-02
6.778656408947489331e-02
1.523807090434747824e-02
-1.022200861790326619e-03
9.216687741463140682e-02
3.623559024142225526e-02
2.933904740439152378e-02
1.104613539917220603e-02
1.025682156235786270e-02
6.764972022622782466e-02
9.994142361305725919e-02
8.585788285990604563e-02
7.712806278682096672e-02
1.271228285145992176e-01
1.361185505720042821e-01
6.762809289269550161e-02
1.063161299334994675e-01
1.091369188600704171e-01
1.006332620046213600e-01
1.286991830795853331e-01
1.639323443868374586e-01
6.301613409867203031e-02
1.349122718819171785e-01
1.364430338064130388e-01
1.285124439217625869e-01
1.625601798290617905e-01
1.349137772049397721e-01
1.242280929271034062e-01
1.728443016606707183e-01
1.135244882556129820e-01
1.327962761594163044e-01
1.304391763056381437e-01
2.083284920862278899e-01
1.631732831638619263e-01
1.183132989980511807e-01
1.682505407353334093e-01
1.274353328494627347e-01
1.702327558262112239e-01
1.218983476314676878e-01
1.165197065625671879e-01
1.844372918651508431e-01
1.450398232408544597e-01
2.030133873034525582e-01
1.011641559301786064e-01
1.878308382722636283e-01
1.601776108989518832e-01
2.030953266895433318e-01
1.766588540780553440e-01
2.183787202775870073e-01
2.054670710617499119e-01
2.339312801735665692e-01
2.915135990569781010e-01
2.794693034636456797e-01
2.893413108563288039e-01
3.149739956773517924e-01
3.991808222461872835e-01
4.645774928093514555e-01
5.026750025510973163e-01
5.917369706534545415e-01
6.098039285782077545e-01
6.495458721260901624e-01
7.757749514950085246e-01
7.647864313350591914e-01
8.519054828928169787e-01
9.483915758576130228e-01
9.827726602830223479e-01
1.092941530686165175e+00
1.121203066777250346e+00
1.215928120443044547e+00
1.240082465862296868e+00
1.313476609240632476e+00
1.223966721919282241e+00
1.299800631043519950e+00
1.286481781369077204e+00
1.271319676227690154e+00
1.228988286130061836e+00
1.214624157782210778e+00
1.099571158598358300e+00
1.044311493092749954e+00
1.018602084671877739e+00
9.172835931759831807e-01
9.198589788355918673e-01
8.073249207099587599e-01
7.638029723999657516e-01
7.046806129215157366e-01
6.236788692306780568e-01
5.843982581741032911e-01
4.908137873937953866e-01
4.485677850479217743e-01
3.860451521361677463e-01
3.858253590095612195e-01
2.796174381990794711e-01
2.983991232233347279e-01
3.057792804316917246e-01
2.512777853823041085e-01
2.008515298795716664e-01
2.145299778847622463e-01
1.739671921844474500e-01
2.184307031089836870e-01
1.941862063428455576e-01
1.823593183798646600e-01
2.184418869928370643e-01
1.784409818221440736e-01
1.338572415988467657e-01
1.818050402271404742e-01
1.746449349685115227e-01
1.857693849157809052e-01
2.055185941374889635e-01
2.159084146786388048e-01
1.669364373161551784e-01
2.047146010515011882e-01
2.029551453712312159e-01
2.200277002712778263e-01
2.309177025650691606e-01
2.210410135444839108e-01
1.911382613605730751e-01
2.294310548237686875e-01
2.715713195292575599e-01
2.074247621470922953e-01
2.857757544016893414e-01
1.981618934389011155e-01
2.585523120666360919e-01
2.376221555119882867e-01
2.587569147782978751e-01
2.843428577483998465e-01
2.934967938118490105e-01
3.064054563234221429e-01
2.238808180642067602e-01
2.461461202213121591e-01
2.571870069035690487e-01
2.533954903560262095e-01
2.901067272388942464e-01
3.022889347838342844e-01
2.235307517303850577e-01
2.470072557074661501e-01
2.750090432425109088e-01
2.797087482855258322e-01
3.271040569684531829e-01
2.421143104719176709e-01
2.618686073076452736e-01
3.161995501565692535e-01
2.602185792582181190e-01
2.958027919230785119e-01
2.579764807347245670e-01
2.619976656940311566e-01
2.845716193031713193e-01
2.566555679269643120e-01
2.397318169958514433e-01
2.800169086350915437e-01
2.286275438728810061e-01
2.748832289942247931e-01
2.380569861766421991e-01
2.173626810734509696e-01
2.661700195584296158e-01
2.235107650986803141e-01
2.266050501019686580e-01
1.686833743484829617e-01
1.884821241256906810e-01
2.538033087088311657e-01
2.201471135759178188e-01
2.442012707889290035e-01
2.021330413829267592e-01
2.025217237785849056e-01
2.453004266839960701e-01
2.032984872155472467e-01
2.350264083317118169e-01
1.671107608499280972e-01
1.684641160459216802e-01
1.480576903321023374e-01
1.829179603433281620e-01
1.345628240015628863e-01
2.075408485171996997e-01
1.033862776068140144e-01
1.475817680774872964e-01
1.257583106307545440e-01
1.465633976093810575e-01
1.116960192011596242e-01
1.369104045354201382e-01
1.382704543226322136e-01
1.385741865406173168e-01
1.711560607716283988e-01
1.129102922304013046e-01
1.023662579335234690e-01
1.014713831621513879e-01
6.016205884754384503e-02
1.292370192975149101e-01
6.787425982327317808e-02
1.258401240059227044e-01
6.472051068673506657e-02
3.838520250706646542e-02
1.337650907668347378e-02
1.094313738921184609e-01
1.192187082098573325e-01
8.950690968268609771e-02
4.508126110209839665e-02
3.861100476626881661e-02
5.810756004021452870e-02
9.729704956680115813e-02
5.986863830864186387e-02
2.223860216062977999e-02
3.814900614725145328e-02
6.922823858891127835e-02
9.826206146305387079e-02
7.973656638136794594e-02
3.408231581601499360e-02
5.750811611333654649e-02
8.786200069673133495e-02
5.492501939007018996e-02
7.305036002353541835e-03
3.424483454285046080e-02
-4.306492179119839753e-02
6.268876130590730900e-02
9.241020741740504918e-02
9.685362772059251391e-02
5.021270378228316622e-02
2.524991289477127379e-02
4.510397535443800426e-02
5.581235232742424307e-02
8.864925363656436796e-02
6.230342596864504867e-02
1.094072375568536093e-03
7.570333891493806477e-02
-5.497145203471436037e-03
5.793515258646404764e-02
1.029881334129133519e-01
4.276480468777911492e-03
5.005088224747047954e-02
5.246838468165158920e-02
5.542283097832837596e-02
8.092045042659959386e-02
3.702861163332994698e-02
7.877200182953253416e-02
5.184908826684456185e-02
6.519462689634192287e-02
2.094182143240094773e-02
9.694725996093161990e-02
7.156957636862687488e-02
8.656409156457402221e-02
1.048103411247044009e-01
6.500568898293289377e-02
6.861286862649892959e-02
2.530702914763126310e-02
8.707978443951579217e-02
1.260275380848201454e-01
8.651003383493681420e-02
6.672596143365785992e-02
1.218261728494393764e-01
5.592223572526425907e-02
8.459845660836921855e-02
8.678519851461924395e-02
1.377975900242650320e-01
1.222480767968369825e-01
1.021163520445205752e-01
1.089193888777905961e-01
1.339374201592792579e-01
1.394131101654831340e-01
1.424834074031295639e-01
1.225726101054503692e-01
1.795217127969984117e-01
1.997022221910781103e-01
1.987722633439659714e-01
1.973833084927409387e-01
2.363538969926389788e-01
1.481977656222325801e-01
1.540591580431053265e-01
1.352216511405739674e-01
1.734296538962978307e-01
1.467064138565210840e-01
2.266763730482275752e-01
1.964590940776018979e-01
1.825085855781768684e-01
1.619340995794330551e-01
1.581653884359089657e-01
1.824697047182227694e-01
2.480854649226074959e-01
2.348176752245345611e-01
2.239084266551874536e-01
1.364034719562708109e-01
1.990518849428786208e-01
1.947507846264787124e-01
1.814018229604650867e-01
2.042317635609035564e-01
1.759973645714724977e-01
1.878039902017046292e-01
1.794496948769565281e-01
1.887160221658834847e-01
1.124464329576902455e-01
2.187361785572949080e-01
2.422457906701817043e-01
2.086411154022019820e-01
2.783730105413660949e-01
2.340025392586590758e-01
2.424697694410432591e-01
3.338391546971124502e-01
3.143155906546518663e-01
3.700005755264034746e-01
3.572150754805095696e-01
4.398814633231780125e-01
4.839543630210917935e-01
5.364844680338851646e-01
5.961901041597715833e-01
6.760309157775712396e-01
7.408844026009960837e-01
8.222706215534192342e-01
8.178140862913846343e-01
9.927167104226377603e-01
1.009743538425177611e+00
1.065915566897359446e+00
1.151985929366233563e+00
1.189706251574620177e+00
1.243980601616449633e+00
1.265073589333808535e+00
1.318798209277417754e+00
1.267383932192451823e+00
1.325069647533934969e+00
1.293036906609447367e+00
1.232658232662509956e+00
1.288274918357545928e+00
1.201790010226264860e+00
1.192666445594671165e+00
1.125874150978140475e+00
1.017892262244755486e+00
1.006917022707322973e+00
8.942976831710982566e-01
8.096705883200068232e-01
7.291556624310455703e-01
6.659294370836809085e-01
6.351972056156627300e-01
5.401291298690968912e-01
5.179456780194410248e-01
4.377951268408991070e-01
4.352519314837900999e-01
3.543237207249159693e-01
3.248730388985948681e-01
2.962810287324124658e-01
2.808134784306093867e-01
2.558890850894962044e-01
2.096975431372366250e-01
2.828371898245480853e-01
2.358692747825696101e-01
2.373451261976372573e-01
2.405465925040428110e-01
1.964965316476223745e-01
2.269223187875258896e-01
2.432230600101973339e-01
2.471282473340586372e-01
2.348968425256553472e-01
2.033074827178187050e-01
2.539620839712962708e-01
1.790881183547810285e-01
2.024153660180986747e-01
1.567255394070882768e-01
2.230271348424872901e-01
2.224432534931691796e-01
2.252394345323750768e-01
2.373120705579971901e-01
2.153344378601403097e-01
2.713059461919228310e-01
2.500542456838511507e-01
2.510022430133319604e-01
2.244533089725299080e-01
2.377798716421471448e-01
2.438384050813159065e-01
2.895355110986078118e-01
3.613336683302115215e-01
2.886535317590879779e-01
3.076474217786862586e-01
3.123453373628923280e-01
2.401002218380925979e-01
3.254345403032779527e-01
3.002430172907700201e-01
3.262777884893355296e-01
2.645967936492810701e-01
3.045489134522743058e-01
3.178333410046948471e-01
2.947642198543313219e-01
2.629488528639257194e-01
2.450525874287190486e-01
3.181506907255970962e-01
3.135596164119640594e-01
2.744649365651317674e-01
3.183689757407603405e-01
2.756703013253097856e-01
2.609982140105777115e-01
3.012543776694999731e-01
2.340630381460224174e-01
2.898664238432661078e-01
2.300842877165795719e-01
2.428367948199266491e-01
2.630872436959426075e-01
2.922679093251110416e-01
2.061932789716588166e-01
2.856676811881636024e-01
2.952929166349562151e-01
2.628790395732849006e-01
2.459751261879941087e-01
2.460620362667088890e-01
1.991580654495947456e-01
2.359958823283059282e-01
