1.328076598004586772e+00
1.334333438454017973e+00
1.262259330588439754e+00
1.237891956446377062e+00
1.207714674420040657e+00
1.172003174521770497e+00
1.100789591967349601e+00
1.043630110526686305e+00
1.006407285644106642e+00
8.712255825852459612e-01
8.194218136644927375e-01
7.513672236139453675e-01
7.396723701704911447e-01
6.376229738842446038e-01
5.789667217582784575e-01
4.885373313409869245e-01
4.454138927821543747e-01
3.349642690198351702e-01
3.712591538698073457e-01
3.124292855377570621e-01
2.524643201658150482e-01
2.834971515807591658e-01
2.245875436617738030e-01
2.378992826370506797e-01
2.297673393435082367e-01
2.940537305288128955e-01
1.915683663398381475e-01
2.040001381317403939e-01
1.938640036472619177e-01
1.711416857914435929e-01
2.002940750566956640e-01
2.185825718113187099e-01
2.139673852873128501e-01
2.212252466739174916e-01
1.800084075918867987e-01
2.098336847338660993e-01
1.638706425377608189e-01
1.640635760542634158e-01
2.711563361056054111e-01
2.279535670746850040e-01
2.478839406143442115e-01
2.523610859627445357e-01
2.367742601179179673e-01
2.818872677956041350e-01
2.418527729183667097e-01
1.853233874441492235e-01
2.590993488242285814e-01
2.856291405963241603e-01
2.187204013421994997e-01
2.558963304884221968e-01
3.007871196771407796e-01
2.970308180703256085e-01
2.691554311483991269e-01
2.524235245812199713e-01
2.775433981437213093e-01
2.870061570500669346e-01
3.036776410905167589e-01
2.785852696524151462e-01
3.307204653261802130e-01
2.919963351795541451e-01
2.751029148814786440e-01
2.694239941254703563e-01
2.604654475552171666e-01
3.166463187097630638e-01
2.795170736446430659e-01
1.991110318904570076e-01
2.721034839234443559e-01
3.194154646827169763e-01
2.671345204346292634e-01
2.386940454092429109e-01
2.627832730163837671e-01
2.923891609246082601e-01
2.647860429888668765e-01
2.412299230490452251e-01
2.837119849712101960e-01
2.974980307069495788e-01
3.032946856096726540e-01
2.618808511231007219e-01
2.466248298713519804e-01
2.609008551787729280e-01
2.813740472813081039e-01
2.704929578248650990e-01
2.326510005509397627e-01
2.017221250961546697e-01
2.328338859539512695e-01
2.202990002944910930e-01
2.293799868224016825e-01
1.779289532119496808e-01
1.859138632922726075e-01
2.268595719764084917e-01
2.009063238993641920e-01
1.547810740664988804e-01
2.241022249385982712e-01
1.707731722603896551e-01
1.857690300574572906e-01
1.545493164802670683e-01
1.721185402366815498e-01
1.980613158404642971e-01
1.931001292382979462e-01
1.949879720141064476e-01
1.292862787779272271e-01
1.580501875665845657e-01
8.367653538889688325e-02
1.388278160421241303e-01
1.798866244831652805e-01
8.350771768397428907e-02
9.035199834760665460e-02
1.066646512967262955e-01
9.942710431777666835e-02
1.273439260805654949e-01
1.213060679735637470e-01
3.369093848484007447e-02
5.958727063842018945e-02
8.266087908429536890e-02
6.658459377182415762e-02
9.125268844392878109e-02
8.936009397947805577e-02
6.536277652894176282e-03
6.154115816818225837e-02
4.244963515436123852e-02
6.872835741708244184e-02
8.262050547490644437e-02
5.369931512950333607e-02
1.915965718479658089e-02
9.486452348608667706e-02
2.945304939315364703e-02
3.517942406876851946e-02
-8.185976344782460584e-03
6.298270269030337154e-02
4.567292174502715629e-02
5.821054224758667739e-02
1.758512136468613415e-02
5.976605855170659398e-02
8.128102488703933814e-02
-3.123370846771885215e-02
4.946845906591391950e-02
-8.979287148402414348e-03
4.733193090180468077e-02
6.486204110577103998e-02
7.097780360704360192e-04
6.528588647958506394e-03
3.409763200015917400e-02
2.878782509121745672e-02
-1.247017326348604654e-02
1.090248188877308844e-02
4.264169175016208069e-03
2.008688728556966285e-02
7.918368028764211086e-02
3.095446874645058077e-02
-6.247433041652615537e-03
3.400309881768130704e-02
1.805884635838183455e-02
6.894931717099253565e-02
1.253553128703014177e-02
1.702926788003345654e-02
5.979977491231491804e-02
1.423512890090992272e-03
-8.369372678419629424e-03
3.617047457998254223e-02
3.387615554525207073e-02
-1.018415923117296090e-02
-2.897883933755177402e-02
4.152185334072235057e-02
4.264921131379932617e-02
5.090505494745349579e-02
6.651795129161809650e-02
4.107073419141906573e-02
3.538239385044298496e-02
6.366080204953875055e-02
4.747765788595794539e-02
1.988966690206345200e-03
5.650201124385911822e-02
7.184024723753579256e-02
2.795029011820480969e-02
1.097613367944368507e-01
5.220260568580106786e-02
9.736987901695359771e-02
3.927513108815681997e-02
9.728765493732913217e-02
1.176096509306395060e-01
5.633485016743363522e-02
9.316052945858332990e-02
8.147046403196708808e-02
6.205141910555781598e-02
1.004702065833045777e-01
9.168928452842653454e-02
9.780638509639522082e-02
7.493381091894468771e-02
1.399111324501969567e-01
1.058120044220130923e-01
1.135977087088115844e-01
9.507763877968895827e-02
1.626116424239350544e-01
9.458522432220950460e-02
8.919098338302455797e-02
1.447719821452389533e-01
1.286704494114881692e-01
1.651112911251958471e-01
1.952783599017995642e-01
1.894333344788154960e-01
1.814857541744217262e-01
1.269694536376130001e-01
1.869477999895755582e-01
1.428903944501127010e-01
1.229520127878913627e-01
1.738524376122617954e-01
1.447685553042100670e-01
1.529945225390492991e-01
1.778501001322461139e-01
1.808667985263845424e-01
1.483203022871476817e-01
1.618452752982363074e-01
1.861337130659863337e-01
1.381049950264226500e-01
1.145183444320411054e-01
1.508963110289864296e-01
1.609521062909444189e-01
1.738249442052733906e-01
2.551091922691189340e-01
1.777293353844394685e-01
2.102018121640995274e-01
2.087313860308289137e-01
2.653885586353402770e-01
3.023989987405438229e-01
3.425961035909231844e-01
3.665169484513964293e-01
4.060022594592964662e-01
3.800612620513201256e-01
5.291417473233721580e-01
6.085831356615525323e-01
6.076679102090798423e-01
6.722990929612844280e-01
7.348370966686675887e-01
8.566042535175082406e-01
8.740409560572688363e-01
9.719827596755884480e-01
9.952824843476911765e-01
1.111137994467897405e+00
1.137510152683033793e+00
1.200392308733899016e+00
1.202112892184946880e+00
1.229486045349065026e+00
1.245366856285921919e+00
1.236953693946618804e+00
1.223574929575204528e+00
1.188831467370017325e+00
1.207241967528873472e+00
1.158189498704559339e+00
1.084047600564489233e+00
1.059803965779847923e+00
1.016450170138482045e+00
8.819759680636040100e-01
8.384242350860932058e-01
7.667461069391826589e-01
6.703389621429017842e-01
5.818511351370228013e-01
6.289580712116523697e-01
5.045000047429087919e-01
4.386781212618032222e-01
3.963796742491166869e-01
4.136927332201117968e-01
2.943207724506970435e-01
2.676853637901555616e-01
2.386380511276145755e-01
2.450997657822326647e-01
2.005132338917960944e-01
1.299505610757507590e-01
1.112576278415556424e-01
1.861099341146955077e-01
1.560442286115094890e-01
1.344728215246971115e-01
1.184422265178863842e-01
1.939183791572305637e-01
1.490100877893945908e-01
1.593167752075038412e-01
1.705623719836941721e-01
1.619241117188709722e-01
1.391511562062391627e-01
1.502672462712483781e-01
1.797194101098266716e-01
1.911308974875867428e-01
2.004985338979677623e-01
1.491558288343133587e-01
1.828536432780023535e-01
1.574501530598435561e-01
1.822023377843961234e-01
1.822401539685234162e-01
1.936270074295174670e-01
2.254096370791480175e-01
1.758917396980224923e-01
2.637809935148117679e-01
2.457455484543113466e-01
1.630270160071812802e-01
2.236113468518738101e-01
1.821608382651657421e-01
2.300105094798893246e-01
1.788210606443347284e-01
2.583838033891208141e-01
2.615606386615976220e-01
2.128234180895975935e-01
2.333988437929690185e-01
1.909485162874777486e-01
2.132297716769479268e-01
2.254426162592055860e-01
1.833630887611184257e-01
2.792904133110126752e-01
2.340200736235410472e-01
2.666214323862140523e-01
2.229096042883491335e-01
2.061850048749484521e-01
2.286645788656131162e-01
2.525088502098776222e-01
2.016909963965465014e-01
2.274357118500681674e-01
1.995459536332204187e-01
1.504525081220417504e-01
2.007185828816612783e-01
2.122177388757248706e-01
2.050170462101876812e-01
1.927769955657053225e-01
2.003120563579004199e-01
1.741538044129465890e-01
2.042512342762293209e-01
1.716253992148142060e-01
2.050993903409603081e-01
1.342997195438714875e-01
1.737371628654501843e-01
1.809981007808970366e-01
1.987767747697339327e-01
1.402698491306377804e-01
1.862837565709368759e-01
1.590959361174547060e-01
1.926037959699891666e-01
9.140307744059042450e-02
1.373081803387896649e-01
1.238314730823848464e-01
1.245217156641127004e-01
1.405160074070703480e-01
1.509376764995290499e-01
1.137845108955206214e-01
5.057290347152190724e-02
8.227098728098083957e-02
1.832538396265764591e-01
5.496153780470302425e-02
8.407512556698969186e-02
9.569952962732766744e-02
9.902704548126223250e-02
4.635759945583660391e-02
1.032317724009624571e-01
9.212789459038811524e-02
6.430784005515929880e-02
1.947096773779105616e-02
2.601205012661508484e-02
1.890866829265375193e-02
2.762345687522980292e-02
7.244846259791298815e-02
3.630530928036308780e-02
4.266082996215062734e-02
2.537760838250223416e-02
6.315250950179614187e-02
-3.259524803123226705e-02
-1.019511346789941098e-01
6.932017295891650110e-03
4.939986165738478874e-03
1.430735171697262997e-03
-2.049376974535345106e-02
-4.134674088248950496e-02
-7.684635770995235093e-03
-1.768754345245055273e-02
-1.652166518943270351e-03
1.007549415168257356e-02
2.268323200826014713e-02
1.049589767444170790e-02
-1.654349329735900834e-02
-3.717187592017279218e-03
-5.400525038772324704e-02
-4.533263353167810844e-02
2.978693867064097917e-02
8.640908319637985446e-03
-6.763634078380986736e-02
-4.570392076477869381e-02
2.981444753055969427e-02
-4.967790183854919883e-02
-8.281568711776293723e-02
-4.346864579312698790e-02
-4.336270274177247974e-02
5.135699745235672298e-03
-3.695339597549383848e-03
-4.396515455206657930e-02
-3.167516695726793619e-02
-2.114340102237362642e-02
-8.291471591911628997e-03
-4.127088409499013455e-02
-2.132530933862288730e-02
1.286920349509682732e-02
-3.425280572039456073e-02
-2.546075438696952450e-02
-1.102331714902150123e-02
-4.600559229332611827e-02
-5.486986257130706257e-02
-1.585811618962494618e-02
-9.451539825466884204e-03
-2.845586615431337091e-02
-4.407276033801724863e-02
-3.777224984105988226e-02
-1.467885621203463692e-02
-5.632386600515898456e-02
1.199432413184816498e-02
2.931845290563275114e-02
-6.071479581649527613e-02
3.094036317431964056e-03
1.248885473315607120e-02
1.733527284475025465e-02
-5.579545573826186905e-02
-1.314892230360704961e-02
-1.751586882253892974e-02
-4.631068451495364002e-03
-3.105892492444881775e-02
6.121538111092455353e-02
2.616144042242875278e-02
-1.365873542293923742e-02
4.197322199560912792e-03
6.681156911115485042e-02
2.588402410866821879e-02
7.149040347720499178e-02
5.769688943261183645e-02
1.061135509399041554e-03
1.650259418300328851e-02
1.540429876608808563e-02
6.900594234485589451e-02
1.165866831511692125e-01
6.891644821299816592e-02
6.475033239536165386e-02
8.822534179351687600e-02
7.386665678886067399e-02
6.987751963196883742e-02
8.946908316113486026e-02
1.099337482354550144e-01
7.512181780952686960e-02
6.343466383186566193e-02
1.245711347932512147e-01
3.202920112377977135e-02
6.105695256248211411e-02
1.028875367203927055e-01
1.307959733355557042e-01
1.114641293947961354e-01
8.915073115413377214e-02
1.312337137492773087e-01
8.387253950856160545e-02
1.276017226200035493e-01
9.417105123314709059e-02
7.198208468132719084e-02
1.291474742155218347e-01
1.553901220484465440e-01
9.661666034817580073e-02
1.395550455803697132e-01
5.214659665319405085e-02
7.349116633918986730e-02
8.925152213040898896e-02
1.196580364607354591e-01
1.471027223597877465e-01
1.068307871895466665e-01
1.292651541872301135e-01
1.990332029004792391e-01
1.705727182929676344e-01
2.633065722574954304e-01
2.307156454200209317e-01
3.233597628169559979e-01
3.542900896014528622e-01
3.791693026168705405e-01
4.354717623913202385e-01
4.899769592012399033e-01
5.818835622072523472e-01
5.481232572241505618e-01
6.718627995695349853e-01
7.578818910700906297e-01
8.589018016769860431e-01
8.748785144614859011e-01
8.959520799386450074e-01
9.451842077313021839e-01
1.078913560678774530e+00
1.085771479799419126e+00
1.157600393128608740e+00
1.155579181593674454e+00
1.201324995404086771e+00
1.277341607126644796e+00
1.251590546422810979e+00
1.196074283096332236e+00
1.160162246597139957e+00
1.103201915563917002e+00
1.098986144907449614e+00
1.015830343652670109e+00
1.004957320063536885e+00
9.012138852995996707e-01
8.325664466648291517e-01
7.063002536924631869e-01
6.679923153734211860e-01
6.713133764932806002e-01
5.019506432999731871e-01
4.771389858566404962e-01
4.188353427513782368e-01
3.793730521557676094e-01
3.347878671746445378e-01
2.637854804131741226e-01
2.686669784103697944e-01
1.918655933455694351e-01
2.008599385601657072e-01
1.147979245731783199e-01
1.203051975223054099e-01
8.383117604935404199e-02
1.267477720978670008e-01
1.203136513416109277e-01
9.369462404246375886e-02
1.107182052805361083e-01
6.583519399724946375e-02
1.386092113058731146e-01
1.296872554915098064e-01
7.680052930536439282e-02
7.198787877002460478e-02
9.660209829954768956e-02
1.220778884043629275e-01
1.228852554283891563e-01
9.185528333921663680e-02
1.153663685688484514e-01
1.425548331627165544e-01
1.250748596989670891e-01
1.447783934502920866e-01
1.759219054612694011e-01
1.318533061267943840e-01
1.818236615511278076e-01
1.578735704969653209e-01
1.594574562007502472e-01
1.265538580407761793e-01
1.943189717187735199e-01
2.334858477826777245e-01
1.469157805940049522e-01
1.532552894605204163e-01
2.308250075057128869e-01
2.064259947545218354e-01
1.692355615324034890e-01
2.423665049003860816e-01
1.802213452358844004e-01
1.965058557107763615e-01
2.072051733091129500e-01
2.210346630748974139e-01
2.123131682499912742e-01
2.615877727159311439e-01
2.411713210073785085e-01
2.471336753332872005e-01
1.799314868767323272e-01
2.089812666492687487e-01
2.490174094798194571e-01
1.855165107490510945e-01
1.844273320086817769e-01
2.221775713358126736e-01
2.067084470293747422e-01
1.899974862650373464e-01
1.964121269960902028e-01
1.309972090937628342e-01
1.727816292464346981e-01
1.543157248049965846e-01
2.246771749727078382e-01
1.677741051990715437e-01
1.720254566986624545e-01
1.987275416714293363e-01
2.082729984226412701e-01
1.655841436898139452e-01
1.277644159612718600e-01
1.324484702339859543e-01
1.532146112529433335e-01
1.494621755815352393e-01
1.107779090909943032e-01
6.843418353312327729e-02
7.675675824657021695e-02
8.490848185683466665e-02
1.089560699752026296e-01
1.010129302671948642e-01
5.565612561811168757e-02
9.321853676733989069e-02
1.455419134742841902e-01
1.012451987944189835e-01
1.456581037085516173e-01
8.082952823676498033e-02
7.503562448848408173e-02
7.947569354604629155e-02
1.208605303297203559e-01
1.087389736387026351e-01
7.969967117455500905e-02
6.526174520029039139e-02
2.227520971832523677e-02
3.436921591783353991e-03
2.605512114364829518e-02
8.128501216773376115e-02
8.493115640465616345e-02
-2.081650587983092243e-02
6.417368599639353133e-02
7.485012550430185374e-02
5.396908024987023822e-02
-4.869577486424706003e-04
3.446774067995643509e-02
-3.957750546002949260e-02
-3.840794627625547519e-02
7.578730767587266159e-02
-1.564797724301993098e-02
-3.882222378149443459e-02
-1.783282567441783414e-02
4.640947340222094375e-02
2.307838040324811796e-02
-3.395356514002778603e-02
-1.802994826218192945e-02
-3.020262602230899818e-03
5.745586295804877563e-04
-6.131781153579735077e-03
-5.141194568242654639e-02
-3.137328518181691644e-02
-5.907570742006085229e-02
1.467926243246986395e-03
-3.126329849846175291e-02
-1.946801062890057138e-02
-5.057678069962158462e-02
-1.237487380510351315e-02
-1.224535051353919241e-02
-7.603577956716242592e-02
-1.019748553357816695e-02
-6.935860006790184329e-02
-5.568119875489827009e-02
-8.151518735398488591e-03
-5.565932103091609379e-02
-3.292667606556289733e-02
-3.951659757095858649e-02
-8.010057801502969144e-02
5.346021956985524959e-03
5.680581836643841531e-03
-2.316168689823535493e-02
-4.594715538172898517e-02
-3.386995867949824102e-02
3.688782908536650251e-03
-5.164662594438771542e-02
-4.844584540925725435e-02
-4.169409477983990892e-02
-9.982776503136867041e-02
-1.261051093847024435e-02
-2.682582109940770398e-02
-6.717339746411948864e-03
-4.461225816921798870e-02
-7.265890827787155337e-02
-2.371224151391028087e-02
-6.118138735624152613e-02
-7.456377695315270782e-03
-3.078908204121620640e-03
4.339712294470694787e-02
2.352478087284771979e-02
-8.116911974145289699e-03
-2.148947471491906638e-02
1.530448769225783295e-02
7.496098250001775876e-04
-1.947373233858770702e-02
-6.415306572548484798e-02
7.009673786458808786e-02
3.668160592075779547e-02
2.762525640984719866e-02
1.392138582124963220e-02
7.308043305495609543e-02
4.687279190322212602e-02
-1.732976961025978202e-02
2.112393642897641283e-02
5.594204296040653640e-02
7.402607280632066133e-02
3.362892145563339819e-02
9.292275953224932161e-02
1.187968199575836076e-02
4.872535165084958958e-02
5.466746225029003176e-02
9.430751724108497880e-02
1.094959298477048149e-01
1.132621509287160821e-01
3.752839067752135327e-02
8.777511532668025307e-02
4.156655293548222607e-02
9.256628102087882670e-02
1.450770869661899554e-01
1.592671276413128723e-01
1.161020690197722832e-01
1.133247150666117919e-01
1.020277174205208859e-01
1.088759806875691100e-01
1.551640794234238341e-01
8.722008684134494039e-02
1.064836933567141070e-01
1.161151825629637979e-01
9.510428253444538904e-02
1.320639452640917089e-01
1.637942501810116247e-01
1.364865831417450548e-01
9.675360329865145825e-02
9.562666067832414907e-02
8.054940467696983242e-02
1.163644142718890939e-01
9.635839505934848392e-02
1.311945010542046874e-01
1.066566312721555498e-01
9.079788162458303502e-02
8.207539348130984957e-02
1.686334812403000871e-01
1.205176410928959774e-01
1.928048260475834497e-01
1.778545473810894950e-01
2.289270981938004434e-01
2.479819870426213102e-01
2.872397238245343321e-01
3.501004323452360234e-01
3.443136485590997942e-01
4.597288145623037448e-01
4.927897009156770869e-01
5.193888027555814135e-01
5.864190816816859941e-01
6.641172993118824586e-01
7.175169181302982757e-01
7.488975565019663216e-01
8.421119813906468021e-01
9.105728151487921807e-01
9.991987973293242620e-01
1.028436281184913703e+00
1.142951259852614143e+00
1.166743562703305148e+00
1.185684811703701769e+00
1.198239074612094779e+00
1.236727296872774717e+00
1.265862883851313958e+00
1.171000982916272859e+00
1.160639995298099914e+00
1.142107425085842509e+00
1.091142415162648316e+00
1.035840938001143519e+00
1.021135518960267108e+00
9.556152063594550716e-01
8.772830471951820197e-01
8.241659335271841469e-01
7.445160966637066613e-01
6.535900349421607247e-01
5.948933477007242177e-01
5.490010797861046843e-01
4.448091666330541427e-01
4.336769332164628343e-01
2.771911297414964004e-01
3.268234353317903684e-01
2.971610408211148302e-01
2.239365053669906680e-01
2.554369240610721015e-01
2.333674957161674945e-01
1.853866624771823846e-01
2.118661483757191821e-01
1.270790176079270306e-01
1.685425117989243216e-01
1.782641875159645117e-01
9.774185205119682862e-02
1.323440315923157806e-01
8.531786924341983047e-02
1.556574576567489876e-01
1.825687498053632507e-01
1.189436814698153488e-01
1.377414008048928329e-01
1.272981108641202119e-01
2.216440236290359578e-01
1.240915635431598940e-01
1.286181563529329164e-01
1.774489213109717856e-01
1.628305384018924606e-01
2.456194820726038675e-01
2.345729040614892014e-01
1.981492262255731551e-01
2.121736992376877240e-01
2.106213267888334406e-01
2.243707016562178358e-01
2.129001813449885039e-01
1.709297559582474979e-01
1.803481388479172831e-01
2.378063277807892784e-01
1.970777753255804066e-01
2.556161078180053114e-01
2.401585065754353598e-01
1.855449231643949703e-01
1.892533509350562415e-01
1.867963691920917768e-01
2.515627250075551657e-01
2.647108665770047664e-01
2.196232130752654166e-01
2.324129958877252378e-01
2.431248636771877747e-01
2.604855368389211723e-01
2.241655813434165201e-01
2.477932755283105415e-01
2.324523066259237269e-01
1.874471346907459202e-01
2.745964524631474557e-01
2.420828994983243443e-01
2.256542585286373526e-01
2.071775017880150283e-01
2.069137230987731779e-01
1.827862585597513911e-01
1.902305012342763169e-01
1.933409659420368687e-01
2.021234070753038514e-01
2.555382415571332277e-01
2.306551970720126243e-01
1.818704853281953859e-01
1.581419976882130762e-01
1.747633236269783563e-01
2.418188900320956680e-01
2.143886307425685034e-01
1.849422940902080148e-01
1.855992300496840941e-01
2.161080306751444191e-01
1.766278814859920665e-01
2.407214043173557250e-01
1.705951510180280795e-01
1.355038414739347385e-01
9.811215194563362163e-02
1.672134502432142400e-01
1.428791075483446249e-01
1.162458663123019653e-01
1.603122025097042935e-01
1.428670975784290254e-01
1.162041453208561004e-01
1.344195758550414954e-01
1.164202411184953184e-01
1.436121657577400512e-01
1.140034664741532006e-01
9.528964048157893829e-02
1.396748665289585245e-01
6.586866741012781246e-02
5.140616093723073682e-02
7.150002907678421060e-02
3.181509542439438232e-02
3.526996872615877771e-02
7.032497693556451213e-02
7.550855234018662154e-02
6.214665507724551757e-02
8.164050694913152495e-02
4.908839078481826157e-02
2.881348393440409314e-03
7.906196237842999519e-02
5.112567345105428762e-02
7.160792506827162729e-02
6.666278063302141788e-02
7.769412491283066158e-02
1.608766875078916983e-02
4.606529926864405371e-03
3.523374134117238099e-02
3.126082671505692884e-02
7.111343712491925706e-02
4.705544727498538193e-02
3.431414109148798325e-02
-8.299963763026550409e-03
5.336221598801110626e-03
-2.347239218980749775e-02
-9.770324790299702786e-04
2.772631250812321313e-02
3.453567382545184861e-02
3.911738881715386834e-02
4.176583827917178249e-02
3.494362253398538426e-02
-1.041534009245658702e-03
-6.715666613045840130e-03
5.448335957112240835e-02
3.154892423644238900e-03
3.947195448788715089e-03
1.031012091328384166e-02
-3.131921069144694147e-02
7.596370995099481840e-03
-3.407412586818941991e-02
3.152024249563319114e-02
-7.255543311799365555e-04
-4.970791141084108383e-03
-4.500095632830536374e-02
2.228486907466760425e-02
8.465725171897450774e-02
-4.024376920704814120e-03
1.203704522303265280e-02
6.130037588445198804e-02
8.556291282490997852e-02
-2.117484302240204078e-02
5.215374392838083989e-02
-6.660748333873940663e-02
-7.686793256331198032e-02
-3.500922867102887470e-02
8.688444245543595901e-03
-3.880284389052651023e-02
6.183732709127921778e-02
2.535465201736381707e-02
4.438003586004946738e-02
1.725884779205312525e-02
1.188234665407170848e-02
2.930348748230902564e-02
9.258458525150461971e-02
4.262119983826546943e-02
4.414717408000809473e-02
1.054877574743091906e-02
1.502111759161974154e-02
2.796568227393995965e-02
7.010140956811414248e-02
6.492556633570187308e-02
-4.504373216760171328e-04
7.610679704816847302e-02
8.824852523682058525e-02
8.848919852085967985e-02
9.218012031903920211e-02
9.733465242880169621e-02
9.498482271941291466e-02
4.852160015206141014e-02
1.222778297996823804e-01
1.496394860201194499e-01
1.407341577699044166e-01
1.157673053086186177e-01
1.101114799245256626e-01
9.825882169664443277e-02
6.556423031929117795e-02
1.554210617011624052e-01
8.646200327476469272e-02
1.245699395474388904e-01
1.281641538300515581e-01
1.813272779909547994e-01
1.674290661662957147e-01
1.326959420549958801e-01
1.511184152153852434e-01
1.514010968508479882e-01
1.791962075353517592e-01
1.327048007589093082e-01
1.740930500988851770e-01
1.610990643171071324e-01
2.423190933669821245e-01
1.464442948008794487e-01
2.078945521999475687e-01
1.592650879666239194e-01
1.698277378477406896e-01
2.136658609547537613e-01
1.898233018337349420e-01
1.704383188062346122e-01
1.637183606119697044e-01
2.169255753128109532e-01
1.658631452286882246e-01
1.679393884759984024e-01
1.614634991849962786e-01
2.406041128609682500e-01
1.548470050452536440e-01
2.094748036478306097e-01
2.217773761868475912e-01
1.896623500512370775e-01
2.348571830565163165e-01
2.531621216702567012e-01
2.719804645290421208e-01
3.238781192149130517e-01
3.658455649816790278e-01
3.889522456295860242e-01
5.043893853715745168e-01
4.763877019584956130e-01
5.609625267983321395e-01
6.184827610726914005e-01
6.986756847218474897e-01
7.552879627450793665e-01
7.941659707780911459e-01
9.096476807303514045e-01
9.605351102296016963e-01
1.056556050144129122e+00
1.113596855965554688e+00
1.165158844032705421e+00
1.224651088316297098e+00
1.220394501484898697e+00
1.270762889824006869e+00
1.320980417518682559e+00
1.302767521118998850e+00
1.268862477267582944e+00
1.245330812034262769e+00
1.272908266844972935e+00
1.195924761843579098e+00
1.164352432871980758e+00
1.153535917354610252e+00
1.024842745889653628e+00
1.019454072351005713e+00
8.844970258961664111e-01
8.794488377934037704e-01
7.775053330392039941e-01
6.513398078425995941e-01
5.988398696218765194e-01
5.459606070038235393e-01
5.165445910623561732e-01
4.921029327509424123e-01
4.211811929375383623e-01
3.404053270614428861e-01
3.718789944808754133e-01
2.943383106857505593e-01
2.415518292438369463e-01
2.431011443729490518e-01
2.288134158292602360e-01
1.887496818689404499e-01
2.321925878875671923e-01
1.850619073627417233e-01
1.658678069498057128e-01
2.060349307976094280e-01
1.983607878380079792e-01
2.103112625432974059e-01
2.110117317429922590e-01
1.705785365137316989e-01
1.899747712427600488e-01
1.295866338911484950e-01
2.051115359488734913e-01
2.125517228151891092e-01
2.037889171667472410e-01
1.857292129539183934e-01
2.508963113602263317e-01
1.876184696642158034e-01
2.737043138626137906e-01
1.876885696344233467e-01
2.298862752532317699e-01
1.739161767323253449e-01
2.239529634569850935e-01
2.580857607798920927e-01
2.643264189550226795e-01
2.515289068981383935e-01
2.473480487127746874e-01
3.367486791912043254e-01
2.667423383384887603e-01
3.573158717643689086e-01
3.211220706198145702e-01
2.576478659997289977e-01
2.655012597727781087e-01
3.307047162597183121e-01
2.422988122259873978e-01
3.276637310306775852e-01
2.835407767568902115e-01
2.135040130209162612e-01
2.547533064384454038e-01
2.820464558300802560e-01
2.739641651502862096e-01
2.677919640765052955e-01
2.445808139429852535e-01
2.873456009324084626e-01
3.333073819328656873e-01
3.314299006894436128e-01
3.211309800435221407e-01
2.779044842790062697e-01
3.177482351100484603e-01
2.317572092134665140e-01
2.950855494023607584e-01
3.217575845018622038e-01
2.933593047150211963e-01
2.193279160311986664e-01
2.378278022850488505e-01
2.416403351350784878e-01
2.250819128858278506e-01
2.437592899611514263e-01
2.466115442338502051e-01
2.385583299358602916e-01
2.140905376630103385e-01
2.699769060295084122e-01
2.267632746800816446e-01
1.848707266934838944e-01
2.095279094552087995e-01
2.013620522731532081e-01
1.586628362055972352e-01
1.969577270131261382e-01
2.420790639990706428e-01
1.910503718589942612e-01
1.881389593167881180e-01
2.052773374152832841e-01
1.659920390091826903e-01
1.462391014385694965e-01
1.951720087301692941e-01
1.687056227295752886e-01
1.131318844423246650e-01
1.721312679037764193e-01
1.647248584136603022e-01
9.817881308744323687e-02
7.443768419816584880e-02
1.217790301738451431e-01
2.137866103240770033e-01
2.045928706665938457e-01
1.746623983892547916e-01
1.026275836396829122e-01
9.650596941616937374e-02
7.871022217884529604e-02
7.696365307847094495e-02
1.291434471741202406e-01
1.592222440733121469e-01
9.633640947823544909e-02
8.432511852589219536e-02
7.001134245422541147e-02
8.833684673490470318e-02
6.621329705599619808e-02
4.714133712304472562e-02
9.230205614494639554e-02
6.033052640549952522e-02
6.641077269037348740e-02
8.042722051306028241e-02
1.581039343120330815e-02
2.999620756532327473e-02
7.803938131964203995e-02
3.744578620416783021e-02
7.215601603458698943e-02
4.713730940878314846e-02
7.608223348129998509e-02
1.832092245101615141e-02
4.018268886038915688e-02
1.120146595598002226e-01
7.385898884125682851e-02
8.960183374551318469e-02
6.111788286941283871e-02
2.186181919097134746e-02
3.703413710319205382e-02
3.887666653475688877e-02
3.835183014225976295e-02
9.661646307401675071e-02
5.003916183680447161e-02
1.468837817571361920e-02
3.567184137362594543e-02
6.800608347864960102e-02
1.017672722073999225e-02
8.819176903557381098e-02
9.912512492408054321e-02
3.020256597744303342e-02
7.144173784910676228e-02
8.422132362821924123e-02
2.548192276684107388e-02
4.388523755068378385e-02
4.872340796186218348e-02
6.869314039106499958e-02
1.019686752978254257e-01
5.100887652928729615e-02
1.396766172582672438e-02
7.618777614496571871e-03
3.870565889935833476e-02
5.441900187732716387e-02
1.002513951699370853e-01
1.373966670466759271e-02
6.207502830572883545e-02
1.138193047825876991e-01
8.329939907738115323e-02
3.639460605589210640e-02
8.100775584852247524e-02
7.668235123875143111e-02
1.181759907762231915e-01
1.053418044565992417e-01
9.470892386370104166e-02
1.062804768191847049e-01
9.400228875672306250e-02
7.326525010150075623e-02
1.215616637797837796e-01
8.351356999231290823e-02
1.184841571356108209e-01
1.327492681524461982e-01
7.837645248506897033e-02
1.135420450594391006e-01
1.713432929518253212e-01
1.691563636660224912e-01
1.465496726372889080e-01
1.327478646722952127e-01
1.345331710034247119e-01
1.271253147005694251e-01
1.495894581502244247e-01
1.948801779155687752e-01
1.415861825067924740e-01
1.264862425279779656e-01
1.981219930102893212e-01
1.617031438663913967e-01
1.468253787083193540e-01
1.808807925929119820e-01
1.731612181840135878e-01
1.877699488021719598e-01
2.036324060410194814e-01
2.020033101187875546e-01
2.069477264316162135e-01
1.991612049527611561e-01
1.431526265803813869e-01
2.002298056886446243e-01
1.599346523438195389e-01
1.776918176909133840e-01
1.785826040909049839e-01
2.171426854530723871e-01
1.464791616556506693e-01
1.942573961750947986e-01
1.975545945991503127e-01
2.240634866450276763e-01
2.046042435060330122e-01
2.194350472190683132e-01
2.088166849943648429e-01
2.601482271587051143e-01
2.008089628974468188e-01
2.906305061207637430e-01
2.132145642245146244e-01
2.652213416274932234e-01
3.027747290669114966e-01
2.703043826254097892e-01
2.967819709970481723e-01
2.862877630644568017e-01
4.609997332349273225e-01
3.910306577534878869e-01
4.835026652241695144e-01
4.685040273425521984e-01
5.019023219364987520e-01
5.839214946151568553e-01
6.717843369038739576e-01
7.367752596525098951e-01
7.827982681620737626e-01
8.594556073431224297e-01
9.476840276550445585e-01
9.884090472609741163e-01
1.063168628036455621e+00
1.105006985191906654e+00
1.214850809154214950e+00
1.197207946220866015e+00
1.263612396722736175e+00
1.314436102067673584e+00
1.330968804561024177e+00
1.281128301004921699e+00
1.329507647851580598e+00
1.299312648909562551e+00
1.273457496977572490e+00
1.208313562931885521e+00
1.174556021499228109e+00
1.121130568878418554e+00
1.113704985023215466e+00
9.196553829626302745e-01
9.130319299166217428e-01
8.509930570301318387e-01
7.671440042315152974e-01
7.195660722285348587e-01
6.519950184801269755e-01
5.719849099691765026e-01
5.009492434262888816e-01
3.901174205585691834e-01
4.704079745048511674e-01
2.950908921468463064e-01
3.486475223561698589e-01
3.102754542947018246e-01
2.349754357073493005e-01
3.219790722592594800e-01
2.647628256629077081e-01
2.340428502027739333e-01
1.763878991148511155e-01
2.548401856044107405e-01
2.524509856429011379e-01
2.066626176578941765e-01
2.563210426599413227e-01
2.080220289223558838e-01
2.148267621331179933e-01
2.035334501489717285e-01
2.309122801137624692e-01
2.285087358803720714e-01
1.994195155468169722e-01
1.850207727840179617e-01
2.174149603780402562e-01
2.495330554460511718e-01
2.267424863647966859e-01
2.083257174718127491e-01
2.384523748856409997e-01
2.096916290095723057e-01
2.325073869215363853e-01
1.986477918747136806e-01
2.608172102858094532e-01
2.845467261699414774e-01
2.656052872984597246e-01
2.800646202616929314e-01
2.761436551000125417e-01
2.887438482887785263e-01
2.952684149491577870e-01
2.985769009689486775e-01
3.169197621099123507e-01
2.360627984139389290e-01
3.097763665646445230e-01
2.813461562213430134e-01
2.750837995096007682e-01
2.325125795111998850e-01
2.438497696289042838e-01
2.769867371509647236e-01
2.674851673507829264e-01
3.223609516616073312e-01
3.143916519483511141e-01
3.369038770322880794e-01
2.864532120958566686e-01
3.096562615757483816e-01
2.414756045474163726e-01
3.588666398986197770e-01
3.391924041509600252e-01
2.583478224053765704e-01
3.289027493607559194e-01
2.437657294123189156e-01
2.552298136862561351e-01
2.726731196200862795e-01
2.428148681390558394e-01
2.837902002082913766e-01
2.960665221780302003e-01
2.154922173788313966e-01
2.575825905608855049e-01
2.201078594437653468e-01
2.536948115169908036e-01
2.498931755314016123e-01
2.172020522724802394e-01
2.266423711583710476e-01
2.298168416362331989e-01
2.012543000658239822e-01
1.665322567091740424e-01
2.349582388957736634e-01
2.296062076870050428e-01
2.230477030968744112e-01
1.664004274170922115e-01
1.839934819978042702e-01
1.368366722029831228e-01
2.431264359222699012e-01
1.354954076776702931e-01
2.077428406941303485e-01
1.417810756005780382e-01
1.690696360885109439e-01
1.472599655251188300e-01
1.384441977691719117e-01
1.573189559474520161e-01
1.237642552182141586e-01
8.719857444836173754e-02
1.260028088081346920e-01
1.598813790258792611e-01
1.225174225491308111e-01
8.950108615129542811e-02
1.964526356306845467e-01
1.096530776625722070e-01
7.991564240864096336e-02
1.660186510270756088e-01
4.587244424121389441e-02
6.625461148710834469e-02
1.213781331811087383e-01
5.890148428867825192e-02
1.060392571848008531e-01
1.067463567619614806e-01
1.400540129874069395e-01
1.070045301009225763e-01
5.861767242229898311e-02
4.762498228665806854e-02
3.551420293213427420e-02
3.128739882778090037e-02
7.430372270830362669e-02
6.970216802040473530e-03
6.304105514703509106e-02
-1.648411497255336533e-03
6.205854739310608104e-02
3.613509855187518188e-02
6.986056396150094883e-02
-3.176136588181993625e-02
7.617583784515134793e-02
4.667503146853627105e-02
3.097387062750681444e-02
5.946895147654907010e-02
5.596586840078653091e-02
1.919974870409520140e-04
4.521241246693849525e-02
6.152673074047011748e-02
-9.094602811537805948e-03
4.402776926253436363e-02
7.330990008855489681e-02
4.166606366691746194e-02
2.186026667162560555e-02
-5.610252878534258830e-03
2.045444554989658825e-03
2.253941282415904829e-02
5.771733720520512423e-02
5.200898803261075343e-02
2.210559455250238683e-02
9.283310229122130469e-03
1.582001570296657361e-02
6.896366486489660663e-02
-1.125149917074965908e-02
3.540296104340495686e-02
1.902565414601038729e-02
5.504986209487407189e-02
2.923277665346849657e-02
-1.481386244065231034e-03
8.454948220521726898e-02
4.470775007268792955e-02
4.419539168488759162e-02
-1.228784999909401932e-03
3.236963857103833386e-02
2.179939781928652218e-02
4.293849729256857262e-02
-8.727203681100380306e-03
5.362036002807366031e-02
7.706999219867959050e-02
3.816555493385002246e-02
6.549721451883827594e-02
2.905798940220193777e-02
1.137224751041966408e-01
3.581127879963730276e-02
6.412963841447903712e-02
4.919791083761058947e-02
4.895224052904310896e-02
1.284294114727010105e-01
1.290939926269831506e-01
7.411215212504765337e-02
1.959748888084455742e-01
1.308351745375719299e-01
1.325446377126578978e-01
1.066405580320778507e-01
1.464971487873737155e-01
1.188504375100418037e-01
8.981744864909679826e-02
1.230308674964213922e-01
1.145253460453430072e-01
9.491622752103948124e-02
1.662457898802331135e-01
1.449628411301476238e-01
1.412904760413689065e-01
1.993742695326602976e-01
1.551436020883988631e-01
1.902058907485513761e-01
1.242269324818548043e-01
1.346268295943446047e-01
1.604552324538805474e-01
1.651460257339975313e-01
1.726737513672317315e-01
1.950172990853970834e-01
2.743893178945115419e-01
1.180246218365391536e-01
1.483993452870977781e-01
1.789039264985471112e-01
2.254366039181280035e-01
1.599511337168658676e-01
1.659996520689768218e-01
1.543699487439328943e-01
1.829179824334489224e-01
1.669929565089309509e-01
1.939579732281432323e-01
2.087535800370450001e-01
1.644601738009021374e-01
2.100876966469192586e-01
1.664990911095162729e-01
2.057665220344754853e-01
1.920532457307366769e-01
1.789367466849884902e-01
2.768207507465766937e-01
2.433372703513985713e-01
2.814923166744012217e-01
3.276475891549107122e-01
4.355892524359591400e-01
4.729024037148023552e-01
4.247106627335348050e-01
4.940924683337966639e-01
6.482958664106186486e-01
7.223203088567061725e-01
7.389151365104243974e-01
7.984343962481799117e-01
8.628249047346808753e-01
9.276402596100667974e-01
9.638555659920495788e-01
1.089094126720658418e+00
1.093226093219443973e+00
1.191016093122267305e+00
1.213640443354643494e+00
1.276689735395182046e+00
1.243607364418413352e+00
1.234692987218351634e+00
1.239622536316594692e+00
1.254558674456231815e+00
1.224459221453452873e+00
1.154003240864531543e+00
1.130328576414996400e+00
1.094333570424036006e+00
1.052124444716394658e+00
9.640826613546691348e-01
9.162226790189430536e-01
8.250520860501167064e-01
7.536033814735414449e-01
6.967386319650477056e-01
5.779861867301789857e-01
6.058818754395789430e-01
4.914707443263343078e-01
4.313277557658515837e-01
3.916127205736599781e-01
3.740317301448426446e-01
3.136041722573597590e-01
2.869371994554792971e-01
2.423481119803141126e-01
1.839234049867508325e-01
1.195573549801056679e-01
2.073435999987590928e-01
2.012486451324443926e-01
1.265856759691463829e-01
1.171682195482783434e-01
1.178909968559246346e-01
1.319308657822261810e-01
1.221731997738594588e-01
1.539388640731480795e-01
1.567330216675485444e-01
1.556560291441589916e-01
1.414330142619869279e-01
1.332953092032834186e-01
1.199486337834511918e-01
1.510604567642334917e-01
1.913647289975655974e-01
1.279699755335380884e-01
1.787970255610623060e-01
1.534120267971635920e-01
1.503545049929810584e-01
2.225493157900139685e-01
2.346053531545802540e-01
2.165940543031495413e-01
1.697441072469871304e-01
2.341650507683591398e-01
2.348621479489217123e-01
2.758555489733761634e-01
2.030145384272213915e-01
2.332145573002036010e-01
1.979182378789108021e-01
1.700994926989522205e-01
1.743495632681125451e-01
2.330719888175692700e-01
2.108255354941582782e-01
2.501867452620868404e-01
2.551759389397383893e-01
2.372932958787168367e-01
1.909620639287911703e-01
2.083226074650811055e-01
2.451111662644552824e-01
2.479668677292477252e-01
2.479534090114770828e-01
2.627370386372300803e-01
2.285201635297370304e-01
2.407799979822118353e-01
2.497012832067948274e-01
2.601975615130114328e-01
2.287038727292659834e-01
2.253447751675249633e-01
2.334722872353803824e-01
2.228406644396015990e-01
2.102306846208391311e-01
1.961134079385842832e-01
1.601518711627469282e-01
2.240565233993910277e-01
2.180925740740520813e-01
2.080346278462820442e-01
2.082096422188031426e-01
1.865628812670918901e-01
2.431502985814834317e-01
2.089552576245651272e-01
2.359229225007405395e-01
1.529539507752186722e-01
1.661153650283047067e-01
1.610605943004712881e-01
2.011678806689295440e-01
9.048808260127996772e-02
1.657422699520203768e-01
1.485536709785887366e-01
1.698374955387971230e-01
1.164234778325256847e-01
7.581503205200909590e-02
1.794449737224686758e-01
1.170547682911318166e-01
1.408485193534142477e-01
9.778248287955432216e-02
1.360536028909752060e-01
1.200721946816187546e-01
1.285374019553521818e-01
7.710245827272510510e-02
1.227616490636937868e-01
9.328789133319417837e-02
1.839088127059862118e-02
1.092030763313908970e-01
8.122296168810386185e-02
5.064466145532169061e-02
5.141884193290209570e-02
2.108140065503614699e-02
5.176051723177169106e-02
6.008299348985171595e-02
4.317188692414833384e-02
4.306805272034908150e-02
1.626907447773429452e-02
1.679944955893478142e-03
2.706876934913544225e-02
3.073259073690094365e-02
7.657171193892642336e-03
3.131183226198741565e-02
4.030537106263833158e-02
4.098534738125488019e-02
-5.375107034174368692e-03
-4.298578150859065639e-02
1.754408145732309909e-02
-6.228241449530030199e-03
1.042517056831400446e-03
-1.612044249015354841e-02
4.553361001146291609e-02
-1.775142611548684995e-02
4.925291764926838234e-02
1.487744668808963638e-02
2.157633709545421496e-02
-1.529165325897290442e-02
-3.765540976422701580e-02
7.109683404007072910e-03
-4.748456667018917388e-03
-3.124014305241513967e-02
4.213971926385909339e-03
-3.920815732392363140e-04
-7.053067095115797547e-02
-1.049133803476841320e-03
8.625491230593387154e-03
-6.660085856914681190e-02
3.714839500806184358e-02
2.011196800454053898e-02
-7.389253922600934332e-02
-3.340793680872307381e-02
-4.968799416717796513e-02
-5.862848038555834584e-02
-1.368192584907368045e-02
-1.860216004807890497e-02
-5.025230614022183767e-02
-4.657565075391725123e-02
-2.207883689161422441e-02
-9.666288321656758831e-03
-4.624200627188119334e-02
-1.873773130679890278e-02
-3.475276200769823742e-03
8.341717747122279203e-03
-9.277513922162278215e-03
-1.214582030792525982e-02
-2.280260387883537368e-02
-2.640932682946497967e-02
-7.181385669217388301e-03
-7.898865260348584411e-03
3.585524759662013505e-03
-2.963302874590995062e-02
1.481839569906961279e-02
-4.752769027612334385e-02
2.115083273358942667e-02
-2.878333018031982438e-03
-2.746469045899709721e-02
-2.413429171315849275e-02
2.939395492293139095e-02
2.012544236722407787e-02
2.619625371813040504e-02
1.806149587515124694e-02
1.546850503977385133e-02
3.527943011295609638e-02
3.476329741064469042e-02
1.711214019982591067e-02
-6.058673845662228274e-03
2.757887068025689087e-02
5.758807356342948020e-02
8.218183222233929608e-02
1.771502986769105115e-03
5.097328914038749131e-02
7.666688457159578918e-02
7.812429179041316396e-02
8.013316389192733091e-02
6.671833325177116414e-02
6.290487557838261856e-02
1.032755204774114671e-01
1.001038088835274759e-01
9.412692701812575002e-02
1.592903142170842001e-01
1.384134333961598851e-01
1.190497719470610810e-01
1.340871708397310680e-01
1.275166849625522236e-01
1.013186649948155660e-01
7.728117178832694112e-02
1.404330335860389523e-01
1.116445262210151029e-01
1.394148817575009414e-01
1.371041376997981509e-01
6.755330931128436522e-02
1.313716573246999364e-01
1.646060690034721330e-01
1.075079498258365018e-01
1.239459641969938020e-01
1.459774815847258711e-01
7.295311955738328913e-02
5.900957398422352479e-02
1.201140749791372031e-01
8.430961077549690985e-02
1.804640484416122070e-01
1.774123389411598750e-01
2.053033013724156475e-01
1.832769012840358980e-01
2.407436625989182177e-01
2.369326635563352712e-01
2.781745583325822002e-01
3.676964073372203656e-01
3.084351421190553721e-01
4.463114394779110206e-01
3.913038494298914372e-01
5.055356807735836844e-01
5.855664993325562229e-01
6.203486561220843409e-01
7.126965410207333207e-01
7.854942929362285220e-01
8.633446193424493265e-01
9.075087108911414902e-01
9.586846001581257326e-01
1.045438563799516274e+00
1.084400310497142472e+00
1.141199268083631146e+00
1.168028671948689201e+00
1.209892984199408605e+00
1.201062473443492706e+00
1.208542762169388496e+00
1.181421850575878674e+00
1.199614491901428215e+00
1.137114844926905732e+00
1.132464580346470573e+00
1.103890930529072056e+00
1.062922228740021291e+00
9.492131457650258008e-01
9.679270588789639085e-01
8.327970496814981471e-01
7.465948443625693987e-01
7.299113562139560862e-01
5.758666396124006992e-01
5.355313492351790883e-01
4.645904075920210263e-01
3.769806668627673218e-01
3.927611949628328492e-01
3.247053116301015230e-01
2.942719819467042863e-01
2.576783814288007290e-01
1.566263212901595481e-01
2.174242835236653293e-01
1.379474246827442907e-01
1.728536190321141586e-01
9.284568349525501585e-02
1.314190382370140353e-01
9.458477819383570573e-02
1.155744430267073575e-01
1.014931749015501872e-01
1.138604778109333221e-01
9.879471841550557798e-02
9.269926165720315803e-02
1.469228724552433529e-01
1.499080237924637904e-01
1.729651958085290930e-01
1.213193561446070379e-01
1.215329797727561500e-01
1.314222374620200584e-01
1.131945826452454423e-01
1.011985849947974331e-01
1.265542264950051399e-01
1.251619020440760954e-01
1.684767180043750812e-01
1.794376746925605282e-01
1.014899310022291945e-01
1.404433067305061178e-01
1.799243671294082081e-01
1.762855512798975899e-01
1.693285804369579484e-01
1.718526351165637900e-01
1.923456668281804949e-01
1.971013550736303854e-01
1.487401494747979946e-01
1.367787558912202939e-01
1.901473509942616102e-01
2.166468290600002122e-01
1.832613832622076444e-01
2.633794826901172392e-01
2.241486192082334239e-01
1.863338317937742183e-01
1.491978524237002612e-01
2.235270144205883658e-01
1.766252937903606268e-01
1.844141688246854205e-01
1.782253294673425137e-01
1.624081584170358750e-01
1.837553388891245976e-01
1.822254200564788484e-01
1.715619083941277434e-01
1.760370919646806476e-01
2.465988858193559896e-01
2.122693649205729116e-01
1.837283336458692962e-01
1.339265913032383348e-01
1.983383559436390775e-01
2.339576150287837608e-01
2.274992619268914884e-01
1.680210436767838322e-01
1.787275877859129392e-01
1.312369841011927774e-01
1.683242355931950929e-01
1.767593256187635908e-01
1.669924049940934574e-01
1.826025563881740199e-01
1.625285975573316222e-01
8.906396445779329873e-02
1.217989861797360851e-01
1.582734591230077481e-01
7.454408482869459562e-02
1.205783373204594860e-01
1.007576510872958131e-01
7.133695772037562666e-02
1.316478982497343020e-01
7.483035641021670847e-02
1.568690855710486998e-01
8.187394112228438270e-02
1.155544362993398688e-01
1.286869729233219850e-01
8.331841057023844921e-02
7.112006856823516188e-02
8.685734313134044204e-02
1.087779143148448896e-01
6.424677653157137569e-02
2.893068934087444227e-02
2.271560175450090813e-03
5.148746488418164124e-02
6.666569141559927636e-03
6.053228245852004807e-02
6.660249031093357086e-02
4.233086798177965182e-02
1.931158275017821890e-02
3.590596118889047977e-02
1.468871707734799303e-02
2.589517257886288226e-03
-5.985367315302726754e-03
7.463198990106355291e-03
1.485400074129665515e-03
3.534915380988625649e-02
1.244276637464626634e-02
-4.713681124003570727e-02
5.032714839828991704e-03
-9.517139940220804839e-03
-6.140283604915773574e-03
-2.425894060332873386e-02
-1.781198905242002695e-02
2.853967093395416710e-02
-3.370307376259380067e-02
-4.357460631897152464e-02
-4.713503776632778364e-02
-5.970158195554278735e-02
-1.109090373655852863e-02
4.743637717530474474e-03
-4.961267263131265148e-02
-1.704699577566954477e-02
-2.966981924739951759e-03
-2.828923117572442261e-02
-3.545761404571971115e-02
-5.658504951391567228e-02
-1.897636571386483034e-02
-4.543481384639870557e-02
-2.090352412076158101e-02
-5.485116183446814286e-02
-3.020375423771333445e-02
-7.647125419122088874e-03
-2.614733302807686899e-02
-5.997945773310570106e-02
-7.390468875459169085e-02
-3.899255602267694132e-02
5.178319168326409039e-04
-1.730633670979310826e-02
1.844817979960613336e-02
4.158426398541979763e-02
-4.328926114665856972e-02
-2.081476676111436094e-02
-3.942650328075334581e-02
-5.499091892721799657e-02
-2.466996353490327407e-02
-2.942674958464860935e-02
-3.751421296945978839e-02
-4.553225032299869357e-02
-2.966275323471111516e-02
-4.336474289839458568e-02
-3.497168416639120925e-02
-6.229779044061488358e-02
-5.170126209766323644e-02
-4.153012617092115277e-02
-1.725335350718392932e-02
-1.854892906146510950e-02
-3.621937941493479779e-02
-3.086849540733357239e-02
-6.758874668267536578e-03
-2.436901172554466893e-02
-3.550045685902904202e-02
1.691855933405590762e-02
-4.091442435145630635e-02
-2.757023313859308447e-02
4.108119762080002235e-02
-2.328912385757574838e-02
6.036003423172246751e-02
-1.499698323456118837e-02
-4.829057899645494700e-03
-2.992314438663754017e-03
-6.211486058479542827e-03
7.960292783091041380e-02
7.834822325899984397e-02
5.226026514525208833e-03
9.888287243417363814e-02
1.957347257544801017e-02
1.497985029648753741e-01
6.103378717758183719e-02
5.186670543659894356e-02
8.915530338861350768e-02
5.196503226870601705e-02
3.993081491591735088e-02
7.304135576766328242e-02
9.213770579306709840e-02
2.815557870501665672e-02
6.920017685223633919e-02
1.574580495353402887e-01
1.011094978489057439e-01
3.164435417844816550e-02
1.054971387224215712e-01
1.177636557614842039e-01
1.077802525964413338e-01
1.328538575248399689e-01
1.013667065650561694e-01
1.410497831104076394e-01
1.105279497299604952e-01
1.146705403112357191e-01
1.218639204814121468e-01
1.327557352994483686e-01
1.232616057690556488e-01
9.143625539938123048e-02
1.636852828160645368e-01
9.496658228503043753e-02
9.653745021427594108e-02
6.997615533895537587e-02
1.284588029991511338e-01
1.313924160868331636e-01
1.615281661104174260e-01
1.511732724391359750e-01
2.459897884538502777e-01
2.036529754882004106e-01
2.331748912705312871e-01
2.832634474909541678e-01
3.366027694881366661e-01
4.070736936351962432e-01
4.373690298778777352e-01
4.928303455716172010e-01
5.418960427644886613e-01
5.785170977911231471e-01
6.525537409652351073e-01
6.745255605564912660e-01
8.024695798101444399e-01
9.011600676605020510e-01
9.419901040303748641e-01
1.026637704159981679e+00
1.128949112500124752e+00
1.126294471735191927e+00
1.182882823367466862e+00
1.201858304622024365e+00
1.195727339655500154e+00
1.224271805259071089e+00
1.196601490942863721e+00
1.241570505248184686e+00
1.219453789966438384e+00
1.153605831662195769e+00
1.164658459181554750e+00
1.051631120532596331e+00
1.024579375831259576e+00
9.256911673605074942e-01
8.776315720866851855e-01
7.515616050262406977e-01
7.072911789551602491e-01
6.539508426990661150e-01
6.096255449802664428e-01
5.210991548939176710e-01
5.005103318798693746e-01
3.933888476919902288e-01
3.265368875207895205e-01
3.660008729471858624e-01
2.255440256986088188e-01
2.156034531060180282e-01
2.091878002778702061e-01
1.772744175049442705e-01
1.709658909692383100e-01
1.552179879125582251e-01
2.067878053145083828e-01
1.254449530705393501e-01
1.377608762006685139e-01
1.251071706450652687e-01
4.906319575502463004e-02
8.591306342382470929e-02
5.672975733758429950e-02
9.169027796818236820e-02
1.222060326755378679e-01
1.566772918584692642e-01
1.750192262832202250e-01
2.145224488548581609e-01
1.461233033154873961e-01
1.490782414075035867e-01
1.094016697499097940e-01
1.275267043837801095e-01
1.865541816779974216e-01
2.249476200403207338e-01
2.134974036598780989e-01
1.576998091548144632e-01
1.458576894867990581e-01
1.303174317541298810e-01
1.864825270305926763e-01
2.514435106064960568e-01
1.812085236753931961e-01
1.811212531179103025e-01
1.959085694160230817e-01
1.983175965241448790e-01
2.119640506174935990e-01
1.366596448903835415e-01
1.850395784046373060e-01
2.051743885946346047e-01
2.269491095266838454e-01
2.034306407548138462e-01
2.282994443255184636e-01
2.042890286721303350e-01
2.492472852632820202e-01
2.342705642967679025e-01
2.307052489039118359e-01
2.494473251645105694e-01
2.423904740547271619e-01
2.074376946010073886e-01
1.995506335048183866e-01
2.632474282910056695e-01
2.800454503072018486e-01
2.553544318595339369e-01
2.527708945320519818e-01
1.857183589870870510e-01
2.093791908717611561e-01
2.029525248987893993e-01
1.991370752256068910e-01
1.818678502567749600e-01
2.132095396186479141e-01
2.101924263208476418e-01
1.686242659386543719e-01
1.701086010605504240e-01
1.943950331787738239e-01
1.834409347985446193e-01
1.621689805386981320e-01
1.698710627326861233e-01
1.321883262811980320e-01
1.870701198035408519e-01
1.506589931667499382e-01
1.449787412823095867e-01
1.675212767376692835e-01
1.798844047300605098e-01
1.438040958171284134e-01
1.201117144869911779e-01
1.461060692920289061e-01
1.310480608977544481e-01
1.338655877994644472e-01
1.439874432391304859e-01
1.096748020620113423e-01
1.409262022722727326e-01
8.827545429297642410e-02
8.044737306933004428e-02
1.233724742841739441e-01
1.053002334338627027e-01
8.292676742077471908e-02
8.295520337985153037e-02
7.029580603280449758e-02
6.915419502510294913e-02
3.424379268002349097e-02
4.410382756280517569e-02
5.896775609267621010e-02
1.291367204610125406e-02
-8.318281960682537279e-03
4.648686661960240926e-03
8.509555551931499706e-02
1.041642385231082296e-01
5.193535142037741803e-02
3.541310729271759938e-02
7.234821394925472493e-02
2.364184779961421914e-03
4.192287607129870086e-02
3.970880182042933748e-02
2.041569974330625231e-02
-2.979078501206852692e-02
5.716612961648413066e-02
4.728371758076275674e-03
-9.956060535960247621e-04
-2.694558818028647273e-02
3.451529573766128067e-02
2.630139695564847474e-02
3.010577484572601534e-02
-1.190027246592837915e-03
2.230504158773957864e-03
-1.076101586979111985e-02
1.629289998832811337e-02
7.817763944113771679e-03
-2.189457435756167816e-03
-3.058397748302574964e-02
-3.756081450625637155e-03
-3.921729685047536940e-02
-1.421689282413934538e-02
-2.052156659797096244e-02
-3.285725251891257609e-03
1.153019649227117992e-02
-1.565878353491402530e-03
-1.485515890236366321e-02
-4.954000285471257814e-03
7.565034164594635659e-03
1.584096486063615861e-02
4.359064196067265889e-02
7.484592411385318500e-02
4.738841350154857773e-02
3.989573843021692115e-03
-2.332045549256729980e-02
-5.805537303274800609e-03
1.191668743964324761e-02
-6.011411736970271626e-03
-2.363551472799077860e-03
2.786616419981492038e-02
3.581427565259247270e-03
2.033954695113751945e-02
5.365542521408453794e-03
-4.665831153041377632e-02
-4.510843743928076577e-02
2.827099617684515620e-02
1.611729753992818814e-02
2.507828478408417883e-02
3.135931833153840498e-02
3.195376053364446661e-02
2.644144719736643556e-02
6.902930718712685376e-02
3.991961766941252987e-02
4.378490006601774148e-02
2.434996768002951895e-02
8.516211557639895291e-03
1.118537933976746640e-01
7.508690636732112678e-02
6.184825143635433453e-02
5.138943744405998632e-02
8.126142250063324302e-02
5.169861470558207578e-02
9.240642480780129897e-02
1.207306690448756714e-01
7.814965908924006999e-02
1.317109825360305853e-01
8.204473233731582327e-02
4.135313203474413890e-02
1.242411358688339101e-01
1.013455207912965228e-01
1.339650772053146421e-01
8.021171945745933507e-02
1.038680042647345814e-01
1.632494295542029350e-01
1.361796398334281788e-01
1.764462314145001931e-01
1.167428048120997819e-01
2.102291658282668396e-01
2.112705881960310339e-01
1.689341317188177705e-01
1.539732144833022010e-01
1.651639342144353984e-01
1.859671383719638249e-01
1.643711850316860457e-01
1.482746266832402626e-01
1.294295954443202556e-01
9.635197828991542979e-02
1.536360497679204462e-01
1.014448143951563464e-01
1.592150445446719742e-01
2.110468706039605180e-01
1.624434652706947257e-01
1.366981360223395170e-01
1.502595863090809836e-01
1.421770799003763130e-01
2.192165917904937422e-01
1.508482910537456145e-01
1.203968488288263972e-01
2.553567483269340577e-01
1.799151588751731201e-01
1.681581253050102032e-01
2.064039664504782601e-01
2.137537791509489526e-01
2.532645750311122157e-01
2.567194385919839283e-01
2.242934094574367543e-01
3.150313299037652559e-01
3.840805463856485358e-01
3.838570412663052656e-01
4.697654057732039146e-01
5.295194699596939003e-01
5.948311135770710800e-01
5.910700253449940877e-01
6.605817424170488117e-01
7.583491599708136466e-01
7.738733394873712479e-01
8.666357577480350294e-01
9.773116231987619695e-01
9.721622492718255959e-01
1.042500607322628614e+00
1.166981589675765818e+00
1.150565603059494180e+00
1.318248195476519946e+00
1.234954777117526215e+00
1.249889985679113247e+00
1.244998933889696735e+00
1.279805659458061129e+00
1.256047714097321411e+00
1.244318239649521818e+00
1.185579789448564458e+00
1.172014436400435233e+00
1.081007304490488652e+00
1.014188225715890734e+00
9.651951002549717940e-01
8.296152871012515417e-01
7.836016353701692472e-01
7.974446035382538600e-01
6.236596358841054455e-01
6.371944147106746170e-01
4.763939523576924406e-01
4.417645875672138733e-01
4.136233854179097724e-01
4.024711348818811318e-01
3.432967516859273815e-01
3.231562322554713540e-01
2.642479901643189910e-01
2.494373011071377988e-01
2.340526811144697239e-01
2.444723200491618342e-01
2.547408627475690190e-01
1.606433253213960799e-01
1.810569750354348861e-01
1.692209408530273573e-01
1.881343887909698864e-01
2.202426243495202440e-01
1.816054591466532420e-01
1.634491201375672664e-01
2.139581360956212541e-01
1.790240114702124075e-01
1.855893401263262188e-01
2.123601634066895893e-01
1.590780870415872961e-01
1.617401537338392370e-01
1.779725833031631232e-01
2.043216774932211655e-01
2.487170045686257769e-01
2.022949378072552984e-01
2.115808880960889649e-01
2.370228701127452542e-01
2.081832797115677480e-01
2.263441985468748752e-01
2.436417906934786604e-01
2.659140744366919606e-01
2.810559474584765072e-01
2.516449126966331939e-01
2.510049132660804316e-01
2.567683181086259925e-01
2.723661145957269603e-01
3.130981528452635443e-01
3.368743411425427214e-01
3.294279309380452880e-01
3.080124327728117062e-01
2.471830859987171891e-01
2.859230118669550680e-01
2.697160384207736294e-01
2.775811084238258286e-01
3.346248947281593167e-01
3.227336530771139356e-01
3.084627152882142842e-01
3.614234839196138194e-01
3.073605262878477129e-01
3.265344146135118475e-01
2.976652094530484738e-01
2.857377133696837879e-01
3.392523563886921667e-01
2.531062213363949875e-01
2.262686811540218224e-01
2.435833246859927248e-01
2.562541378416007820e-01
2.947725769210043367e-01
3.021110750413558144e-01
2.377057022404317210e-01
2.397028153478251711e-01
2.411888916998129184e-01
2.521547555115504768e-01
2.470456931286535429e-01
2.538518310641930120e-01
2.104551941720426422e-01
2.022990437261119323e-01
2.040148798490824811e-01
2.268524480358856399e-01
1.843466753846727535e-01
1.892288216676163148e-01
2.268978048879553011e-01
2.508127210283687125e-01
2.135403873071853587e-01
1.643871051883001588e-01
2.128932185171333036e-01
1.700565374598835555e-01
2.244412816410024936e-01
1.904002988318185263e-01
1.471569789124700656e-01
1.714353710316547652e-01
1.210263231758255398e-01
1.635633955165843312e-01
1.457309337155975049e-01
2.121672926613475674e-01
1.509199616703842950e-01
1.420183043058965144e-01
6.429157096887119782e-02
1.506483635866173454e-01
1.626155990110626226e-01
1.588100842594842299e-01
1.159153054592559628e-01
9.736689953180910351e-02
1.494416393857281311e-01
1.059993467026013880e-01
1.040805346563887929e-01
9.191246468338194753e-02
3.124775749463960806e-02
7.095676594593519626e-02
9.558687385018593829e-02
1.078058632770601821e-01
8.618687706300939833e-02
1.007013373013601748e-01
3.068649575884316999e-02
5.109255034709302146e-02
1.465793777311447943e-01
9.659494121633101227e-02
1.140159195665949310e-01
6.334391359665386689e-02
1.006404738264234378e-01
9.778763992149670792e-02
1.311378487662983594e-01
7.833063273564405682e-02
3.219661387438693678e-02
3.936484116545525824e-02
7.021314266287514982e-02
-1.825978818309943741e-02
7.132189309101860664e-02
7.484814746254543627e-02
1.015565121548628880e-01
1.822064023949708511e-03
2.230362705457665171e-02
5.845421582206661304e-02
5.310749149699994787e-02
5.452662767263878607e-02
8.275156779114685446e-02
6.354777865232205669e-02
9.894344864314971733e-02
8.878755625589487832e-02
3.234899111134113131e-02
6.154223623322341297e-02
6.961411436139947062e-02
1.097316281097473756e-01
5.980959750365800326e-02
7.076526740642197222e-02
3.957323438358658491e-02
7.042859044181000450e-02
2.246789610907794915e-02
3.559985225577946139e-02
9.405903133473278444e-02
8.270285883008182681e-02
9.869958276351270543e-02
1.268498435069495556e-01
8.852337171349886069e-02
6.902705933273661776e-02
4.638966297022749374e-02
4.860480263423624936e-02
6.708090917365872041e-02
6.677463485269292953e-02
9.665568655307890666e-02
4.644770244656265534e-02
5.842683955881110280e-02
8.867620969043579771e-02
3.635884772922672731e-02
1.275557563355069202e-01
1.126220252740121053e-01
9.615928759292485806e-02
6.276334023879623358e-02
9.285536438844413376e-02
1.222174248303081606e-01
8.585581101119577063e-02
5.950723407041807328e-02
1.269666175175817036e-01
1.266909399029439443e-01
1.070500499096344038e-01
1.964211081008334359e-01
1.059991337533770089e-01
1.769684886060509665e-01
1.599794373771865341e-01
1.554328815788246221e-01
2.188367304913612088e-01
1.884346425747961962e-01
1.381929524754487437e-01
1.454914884158808597e-01
1.438868658347467466e-01
1.802815175624391253e-01
1.537337668327939111e-01
1.154489689180825118e-01
1.677535331496882998e-01
2.132314648166434568e-01
2.294597757197664456e-01
2.164945403819723557e-01
1.901251857981086923e-01
2.276945648315149839e-01
2.564844759280422437e-01
2.151972934247899927e-01
2.018497837716893839e-01
2.538833458180531633e-01
1.831935809157040906e-01
2.257615829520616679e-01
1.105066793700583416e-01
1.918772099128492337e-01
1.363020658959940845e-01
2.265599686991896788e-01
1.804186986983965513e-01
2.250875589010336575e-01
1.896051362774280602e-01
1.947299935817189409e-01
1.932950307156706682e-01
2.356627687644396452e-01
2.365353121593417596e-01
2.094527368244888110e-01
2.462958083841964851e-01
2.443395556822839376e-01
2.706260552440546974e-01
2.946329769402738497e-01
3.211144925664046745e-01
3.926146483941102550e-01
4.315010851222104149e-01
4.086775102957418970e-01
4.989906128900581939e-01
6.395636518907019674e-01
6.603438087878586993e-01
7.511869100623628226e-01
7.235381884026730326e-01
8.119637748904153796e-01
8.682789476648858917e-01
9.646137666748508810e-01
1.039748694473708213e+00
1.111415173405608359e+00
1.141166931024541809e+00
1.186751915060127116e+00
1.223037192778617666e+00
1.278568036881625014e+00
1.324537934328876343e+00
1.340002364612746355e+00
1.355506684793753136e+00
1.315903799518864936e+00
1.305153332509163100e+00
1.204385866763556079e+00
1.233683970637911465e+00
1.184540594571169114e+00
1.144162160194620359e+00
1.089268674896719524e+00
9.226621363102653905e-01
9.140307062448308484e-01
8.042238337093634559e-01
7.300345162487736905e-01
6.651580929954705734e-01
5.965685826276307946e-01
5.457290353546861983e-01
4.814973509711975019e-01
4.577321174191635866e-01
4.193013176904595851e-01
3.943942725335787824e-01
3.408453233035181329e-01
2.931859719145407106e-01
2.927138711898484846e-01
2.827121689774310109e-01
2.546390921470659818e-01
2.409234962678773462e-01
2.981119970328720559e-01
1.920863864330429605e-01
2.333754393865515586e-01
2.088031317275183540e-01
1.537700781781819737e-01
1.529695928605222799e-01
1.496894350539998142e-01
2.097827904830012469e-01
1.636757945526479963e-01
2.127468630318114506e-01
2.242126884589688562e-01
2.092660744362831726e-01
2.204954117893503096e-01
2.601983270633292378e-01
2.106396727930737178e-01
2.434324852633458214e-01
1.787122319483871180e-01
2.579511027075807594e-01
2.937723143189316932e-01
2.825842236683472897e-01
2.552665215782771724e-01
2.541420969342809699e-01
3.207172665853480487e-01
2.928152948183542770e-01
2.790840760279334476e-01
2.998343614423332193e-01
2.662299664804528287e-01
2.812435564888451922e-01
2.660630918530249023e-01
3.168631653488354627e-01
2.637926774393555829e-01
2.785740371577162255e-01
3.073283221171861923e-01
2.189129409422351236e-01
2.728305267896535824e-01
2.695258585802803863e-01
3.026071012483484424e-01
3.021921579127935242e-01
3.561622508482085725e-01
2.682128683201223662e-01
2.498085217139806302e-01
3.304004379147004178e-01
2.734093613321357807e-01
2.950493008451177124e-01
2.739152578892675161e-01
3.054931741761645614e-01
2.950986123993523669e-01
2.709294161778458276e-01
2.799414238360769525e-01
