1.311547262216098630e+00
1.321385759231122448e+00
1.265139247691219104e+00
1.344867312350933597e+00
1.220512140154922598e+00
1.161763855203943985e+00
1.136435832285983549e+00
1.081597956713620245e+00
9.611843205813760393e-01
8.605484843811108675e-01
8.306828463841018362e-01
7.781517749304720510e-01
6.779556162936937191e-01
6.328208704757435354e-01
5.668813239892780409e-01
4.633322447706835212e-01
4.790001743767161591e-01
4.382769976900269815e-01
3.749425915670409615e-01
3.438982759166819281e-01
2.812142694901154649e-01
2.708285613977540751e-01
2.728740924778271237e-01
1.942150668061954910e-01
1.908850501399630972e-01
1.684340115931759474e-01
2.542825337451142254e-01
1.904515260171809332e-01
2.389424084980936724e-01
1.923912709291317469e-01
2.485964376923169294e-01
2.330379423148813411e-01
1.776979788008294370e-01
2.044881297550578403e-01
1.743408803332968382e-01
2.280751278036056706e-01
2.445799991215331370e-01
2.728554778608759390e-01
2.621343390641339144e-01
2.381736687827439303e-01
2.402037519517967457e-01
2.265704734517899888e-01
2.929847433863825845e-01
2.165780563233528910e-01
2.154805363439971644e-01
2.176868621370338097e-01
2.866892819560153405e-01
2.870229308452528771e-01
2.749883545625980141e-01
2.743577603083197647e-01
2.325982284828783386e-01
2.791470674065815172e-01
3.106936989439174068e-01
2.437044233757728606e-01
2.417732135976868313e-01
2.897155115412634596e-01
3.050851876549229846e-01
3.080396327263912881e-01
3.210851613471642496e-01
2.905189212157236467e-01
2.366544792203239822e-01
3.022366945278082140e-01
3.225163652852815477e-01
2.680399377002599115e-01
2.821266837244209014e-01
2.202154197352034215e-01
2.761143911030481402e-01
3.311712374313575680e-01
2.683611773686571111e-01
2.482023993290475294e-01
3.366193999276173021e-01
2.939447568410080702e-01
2.872085595617674403e-01
2.747964978421653104e-01
2.468543128304978573e-01
2.559229655449562491e-01
3.101984660747964528e-01
2.360900725495734265e-01
2.937876416804918733e-01
2.592610011573620588e-01
2.552142234844879676e-01
1.901150710182694104e-01
2.484682975019577300e-01
2.291430747598265094e-01
1.779305999660520943e-01
2.227174052189941078e-01
2.037453667515522482e-01
2.194300921360305412e-01
1.807681895419813167e-01
1.707767982422705444e-01
1.988839127427800835e-01
1.789501781832363581e-01
1.754420235636610925e-01
1.437033500135363184e-01
1.733509542790172275e-01
1.890731631784515476e-01
1.728744893966523144e-01
1.484139147069337139e-01
1.050977299170479801e-01
1.237241099870104721e-01
1.219490148981828559e-01
1.645118187367714535e-01
1.585650649523727140e-01
1.390576698512765164e-01
1.146375819362787235e-01
1.595568617065287187e-01
1.348448567087478511e-01
4.933635075682497872e-02
1.547991763716861091e-01
9.831548646843769890e-02
1.273724927613039959e-01
1.093616013423507199e-01
5.274853676805256464e-02
7.376465422380765191e-02
2.645182697347247744e-02
5.760194217043401732e-02
8.178396855318662007e-02
7.641091926129700562e-02
5.121443961929514344e-02
6.080288808603549755e-02
6.889804054386677867e-02
8.306093311386109068e-02
4.156873147879761032e-02
5.340927041699834732e-02
1.798594748631902537e-02
1.684407035047799303e-02
8.521425080323578871e-02
9.520691601274680615e-02
5.363028584752659034e-02
3.595092973522740626e-02
2.993201323481124027e-02
7.913751868676040246e-02
-7.556379993857857691e-02
1.079645779193420807e-01
4.094488214505188906e-02
-3.892088884718510750e-02
1.101924543294842268e-01
-3.665097640002137891e-02
-3.305786866516562811e-02
7.056068577950288731e-03
2.861805821221542756e-02
6.890470088545472271e-02
2.214268780040949680e-02
8.062478457529763734e-03
2.284278402224666771e-02
2.266024718887937883e-02
7.534357522688710229e-02
6.406098407908911163e-02
1.465894145020704871e-02
2.294697853165534457e-02
-2.184706642891262596e-02
5.368495059588029861e-02
3.413241962506741861e-02
4.842280584008679112e-02
5.701712710326765909e-02
8.618263022494190850e-02
2.941581108876444722e-02
4.450904747999485933e-02
9.183757532969666348e-02
4.177503826391099073e-02
4.659093132003150339e-02
1.309831313806188724e-01
5.312222443887516798e-02
1.093867138737948386e-01
4.359622088142887236e-02
4.993034571087534568e-02
6.729978506043331546e-03
8.877935935987776861e-02
9.560530544992187907e-02
8.056826147606854782e-02
9.556166248266544094e-02
1.120809356362562348e-01
4.548851358367262537e-02
9.623841651294434696e-02
1.481441445263017853e-01
9.417252945987468482e-02
6.567144175062522571e-02
1.436794551377791884e-01
1.199244595815606024e-01
1.188386264742436610e-01
1.115431489359392236e-01
1.553531911112363550e-01
1.150936011059425085e-01
1.786653989064490300e-01
1.413323810280073534e-01
1.724804858427173571e-01
1.720306262508723150e-01
1.125186587461178001e-01
1.648224012839468178e-01
1.446904738852954342e-01
1.743875751975831889e-01
1.545217801843568051e-01
1.011883260688622443e-01
1.824121246132961449e-01
9.246960964064994404e-02
1.641433613694499860e-01
2.169708933152066643e-01
2.021907090551077757e-01
1.721384448725380711e-01
1.446025997747433234e-01
1.580043302952925666e-01
1.915838544338738236e-01
1.369054003262326069e-01
1.742527416733557488e-01
1.381557250677225845e-01
1.583327632751382330e-01
1.571841007090427622e-01
1.901696209097779311e-01
2.028538753633538638e-01
2.623616325273327998e-01
2.077097534622656116e-01
2.401581502939741375e-01
2.880397438060331994e-01
2.789005915773614674e-01
3.143766168157238750e-01
3.667647098869567523e-01
3.706249101623058095e-01
4.448029868006768139e-01
4.675750261247620942e-01
5.404146030479173302e-01
6.768065462724415227e-01
6.740822192162400084e-01
7.536482921242348976e-01
7.375462006165454110e-01
9.000558121330680672e-01
1.014450558379080380e+00
9.948608230368534144e-01
1.113139181274227507e+00
1.115875043676635592e+00
1.130703576606272520e+00
1.203852100695590233e+00
1.222706806524770151e+00
1.261706612544293948e+00
1.252546532629027931e+00
1.223263351761707973e+00
1.249244587154624053e+00
1.237540789305747513e+00
1.180817722160568684e+00
1.116779768916706272e+00
1.051712047054846222e+00
1.008244017699648332e+00
9.064869910884619797e-01
8.778949737347628846e-01
7.428014353299045025e-01
6.579314207963199435e-01
6.594975800884933514e-01
5.426614394346193082e-01
4.898647457558528151e-01
4.237020162127293488e-01
4.201825758299334579e-01
3.312561320759876415e-01
3.553253211594680772e-01
3.006013377974043332e-01
2.547227732951434231e-01
2.690019119476094733e-01
1.718347377310285584e-01
1.867941434393526057e-01
1.009653401124141758e-01
1.438354039756317704e-01
1.129996061753620329e-01
1.750478416573825469e-01
1.828113607324897971e-01
1.357520543680555414e-01
2.127090148739052833e-01
1.201287026967612637e-01
1.120208410131818266e-01
1.342666587721529636e-01
1.652799971103311449e-01
1.859096030343288519e-01
1.852780772487828131e-01
1.554542396153674455e-01
2.035668902162674487e-01
1.585940501421362614e-01
2.657403444925948710e-01
2.149630431977269107e-01
1.264940232524573716e-01
1.764465734606123215e-01
1.723868410465805301e-01
2.625236214497120857e-01
1.747044012549933412e-01
1.387011498152624922e-01
2.401644356288569759e-01
1.266220317020156638e-01
2.053904923879571465e-01
2.430793949780468144e-01
2.099081954577623199e-01
2.666300402115481805e-01
2.378560913626528717e-01
2.005542444600782737e-01
2.360867330515557805e-01
2.832744320373483116e-01
2.393772713669541918e-01
2.486594424494888433e-01
2.473616465515084129e-01
2.120266350029138824e-01
1.838391308155170600e-01
2.450004863688027279e-01
2.764622147213666725e-01
2.499307785295831752e-01
1.905981132708874926e-01
2.422925584219170758e-01
2.562483706147271056e-01
2.618492690994729255e-01
2.424923238565966921e-01
2.292366505306308311e-01
1.997433564258422056e-01
2.104592889917758225e-01
2.428261226767164105e-01
1.841893244136582897e-01
1.795056134095203149e-01
2.237066700358046056e-01
2.096390425455996742e-01
2.380908213458057254e-01
2.171875757223231673e-01
1.688926396071312730e-01
2.273413132544324922e-01
1.853857584647960188e-01
1.926144896234521509e-01
1.559994095576165973e-01
1.769696200756223359e-01
1.409312838990154082e-01
8.771084251464750237e-02
2.008083376760351202e-01
1.151081090092653941e-01
1.190850603669646735e-01
1.118911136511328702e-01
1.799430192477612656e-01
1.347068432191025900e-01
1.339761672615750743e-01
1.387629086154238134e-01
1.272772020815850502e-01
1.061065998314438541e-01
1.000495891230029910e-01
1.343367503246477024e-01
4.810085757776379201e-02
5.307484573945666501e-02
9.428967793720377522e-02
8.004951904371013227e-02
5.515659722864923314e-02
1.324002877390157429e-01
2.109993795954916498e-02
5.384984455569752360e-02
5.666908255592047888e-02
3.198247184464989706e-02
2.023796346613115221e-02
2.724145322374471948e-02
8.047476860681823663e-02
1.775792375897947833e-02
3.755145047168212402e-02
4.313869548097065687e-03
4.070321538556138236e-02
4.863679953039395931e-02
7.687114259665065591e-03
3.122337456830728830e-02
4.057777595354243594e-03
6.262915176081296220e-03
1.605939390542814038e-02
9.671738197000644133e-03
5.149243533905639714e-03
-4.824440935478625792e-02
-4.306088267674598735e-02
-5.970630136138303096e-02
-5.158556935707576951e-02
2.645017271516482416e-03
-2.324720058727182403e-02
-3.300249532421913046e-02
3.874387005952038832e-02
1.955912796606706916e-02
-6.528703543870761905e-02
-4.459806997246618804e-02
-4.787735694022016847e-02
-1.830682191208856530e-02
-5.957228635980921227e-02
-4.179888125959634049e-02
-9.265423497474108844e-03
-2.611759795896373415e-02
-6.160718967652237948e-02
-1.933395605129482539e-02
-1.845182632033055131e-02
-1.572114453957424232e-02
-6.408552277606105463e-02
8.011679494104959054e-03
-3.575454693594471572e-02
-5.464680760272854626e-02
-1.712828885408375357e-02
1.677059981709944081e-03
8.808816545251771379e-04
2.296187855812300421e-02
-3.317915610833734735e-02
-6.101521215469477011e-02
-2.038807992053577600e-02
-9.332397679751644470e-02
-3.128585473649578980e-02
-1.390919338429721236e-02
-1.607150010312009131e-02
1.679227077434363585e-02
3.819212740040621445e-03
2.101116199300386012e-02
1.931489775829871997e-02
-3.018923401130607642e-02
3.600355275089968388e-02
5.529784600263591698e-03
3.207108218888674034e-02
4.348464062339379987e-02
9.894330020599036157e-03
1.723678697894211187e-02
4.326536362658442436e-02
3.214465145563016185e-02
1.025541440061981668e-01
5.564261785021005352e-02
2.483384557845733087e-02
1.265762598182889886e-01
7.883488589222401033e-02
7.135998896942152836e-02
1.220763083531379717e-01
8.971004035309090852e-02
8.177625497209281558e-02
3.982270589878475486e-02
2.242980800763053756e-02
1.309001621370647073e-01
1.061363706692287356e-01
9.372419614054883219e-02
9.783347833158359541e-02
1.132730557290477225e-01
1.248243953852260224e-01
8.384355872558187095e-02
1.140581682845717010e-01
1.248646482713409306e-01
9.457368024281682939e-02
4.315603495811695667e-02
8.695088848672080650e-02
7.096197135092832675e-02
1.456164457160358805e-01
8.127915132520849295e-02
8.056507048554961692e-02
9.176257821830352546e-02
1.376311485832199255e-01
1.411986485123963020e-01
9.410066966592484095e-02
1.096810177039637679e-01
1.247683875740398518e-01
1.809547753533704006e-01
8.961602272492263932e-02
1.237792962798646562e-01
2.582354438128791063e-01
2.437588340059932412e-01
1.914587057301250228e-01
3.629736699239517472e-01
3.260437400803344876e-01
3.537069661763758144e-01
4.434691228853180900e-01
4.269866184524089836e-01
4.975694660599532249e-01
5.776208659785750932e-01
6.570912808488920120e-01
7.210946353927328856e-01
7.872984677798281483e-01
8.391746565510962430e-01
9.297403642509858290e-01
9.918787943891819170e-01
1.043066211547162947e+00
1.088293151338093345e+00
1.125360057182194451e+00
1.132245943393785925e+00
1.243579086860755467e+00
1.236781088650910965e+00
1.246203927525174837e+00
1.171181334077978198e+00
1.169405947800327583e+00
1.149906924717030599e+00
1.120436969282993633e+00
1.035645794256309760e+00
1.052488897429949555e+00
9.629021977527363330e-01
8.739067177411106169e-01
8.071211621106630929e-01
7.201327530618761852e-01
6.357103524478634471e-01
5.152025862173585935e-01
5.483102993062786146e-01
4.623007528175091529e-01
4.393011072042476428e-01
3.697007841311600873e-01
3.053252252709486303e-01
2.683643703574949413e-01
2.085392549027382525e-01
1.649711087023788547e-01
1.462752226103689879e-01
1.268660191076420862e-01
1.336696985574702956e-01
1.504591601976440485e-01
1.381841095799354879e-01
6.552007499791072387e-02
1.326423598414927241e-01
1.087961664735469791e-01
1.248793509468152374e-01
1.199246020124282303e-01
5.592543996158447217e-02
1.145840855562848815e-01
1.558993177503011918e-01
7.974712399209218927e-02
9.156941519038944155e-02
6.381884994842354497e-02
1.143412881217086841e-01
8.815966849908749015e-02
1.109954179163063770e-01
1.487055800311579967e-01
1.702477008132277092e-01
9.196923032884012084e-02
1.406829021159139437e-01
1.516842604291726848e-01
1.588381124695761593e-01
1.906322265098736313e-01
1.944618534385214870e-01
2.005516027132236978e-01
1.846506730616394865e-01
1.730188572304650063e-01
1.682488091669194219e-01
2.043940111846596908e-01
1.635463050614888725e-01
1.660320925576178885e-01
2.081109793537280483e-01
2.173609037405468125e-01
1.965098822388018363e-01
2.167724020624772485e-01
1.906965116231056356e-01
1.949864523215392165e-01
2.109047325872636658e-01
1.765492038746973025e-01
2.215269196024893528e-01
1.923530879879944977e-01
1.936296166565002475e-01
2.006745174247470676e-01
2.217712148718628262e-01
1.292011595884010045e-01
1.556314945512919379e-01
2.224774217582504154e-01
2.041131569033928783e-01
1.737704717636075202e-01
1.863290239696568928e-01
1.992721919099014471e-01
2.248115466066110124e-01
1.622881773588366883e-01
2.108429166657524167e-01
1.846364770498279129e-01
1.359877263502318190e-01
1.414075471049278387e-01
1.917073537213667966e-01
1.935099895498956224e-01
1.451288592904283470e-01
1.750224853972770223e-01
1.479566161827776394e-01
1.305508402257314071e-01
1.333980620442412335e-01
8.097090217860758443e-02
1.097149774218185297e-01
9.708355411581998107e-02
1.378989918473921827e-01
1.102863166849258614e-01
9.067366016026820463e-02
1.261586411215326886e-01
4.241502383747516869e-02
5.419074713063672111e-02
1.157899732530778825e-01
9.224575589853453716e-02
2.066291974014142219e-02
6.997101441664434207e-02
2.074578358603769435e-02
4.137813900657189015e-02
6.339209558557973301e-02
4.423239944572433802e-02
3.887583171813532856e-02
1.204260343195560218e-02
6.726343097360240608e-02
4.357195406813013649e-02
6.583217688449979899e-04
2.473984760315574294e-02
8.155438730972248973e-03
-2.481901506319397765e-03
1.491641198800552903e-02
5.750315509554251858e-02
-2.178813897022637697e-02
1.810539918662931042e-02
2.402758436940134745e-02
1.027480068659641921e-02
2.040454898522205129e-02
-1.152248928831928199e-02
2.914305470504259532e-03
-1.038749447115408509e-02
-5.469052388037053819e-02
-4.942534043114244630e-02
1.156159782592514756e-02
-3.562767612001149775e-02
-3.324988530090872141e-02
-2.095083340567793773e-03
-3.018002855954730196e-02
-6.494319540311939420e-03
-3.223312554836720023e-02
-6.103859183406024069e-02
-6.399305306239583269e-04
-5.674405018040636073e-02
5.013042654618861393e-03
-1.633034908142525984e-02
-4.975496629848963348e-02
-1.673508752625488955e-02
-4.886147163533974269e-02
-5.811872774569300237e-02
-2.897597633954538884e-02
-1.201215184825754623e-02
-2.694686934469299466e-02
-5.714962095606074960e-02
-7.514339631415026255e-02
-3.953348318669142741e-02
-6.649985674195151020e-02
-3.588251694358244454e-02
-3.307181102409499640e-02
-9.661373054808360117e-03
-1.047234924874189399e-02
9.529729799446842731e-04
-2.756351614192988422e-02
-3.743106076815475719e-02
-1.037824680188680071e-02
-8.854797829602613357e-03
-8.013072598613529829e-03
4.026797159090479694e-02
5.441783432799329745e-03
2.372065177983943840e-02
-4.140778327667681002e-02
-3.502096088876899271e-02
-2.577771354446287133e-02
1.331740368817453668e-03
1.871883709149493868e-04
1.614376729206300209e-02
6.172889806333639595e-02
1.351995736067772291e-02
3.492185011884409163e-02
2.700956108581978321e-02
6.159265042562996062e-02
5.274325867728893447e-02
3.669221317026697543e-02
7.165477321001478828e-02
6.577806329560381693e-02
7.803425404701394563e-02
5.809615061780047662e-02
8.130182420414726330e-02
5.907259794208851583e-02
3.981457759389796930e-02
6.089889191604121177e-02
9.719859390572273272e-02
9.886481483338796505e-02
6.606954659193418899e-02
1.315456611151787913e-01
6.382553671335658430e-02
1.016800965057235162e-01
8.715936261685028330e-02
1.079604179702048916e-01
6.680875740791200612e-02
5.628126884548516340e-02
8.964395724497459250e-02
1.296115699009772193e-01
1.158996253478681293e-01
7.041152230233901910e-02
1.406419098555446723e-01
1.186220063630649968e-01
1.348818329145045625e-01
1.024072696936432214e-01
5.916616114251371100e-02
1.582226493587645666e-01
1.095575267854148327e-01
1.461116728342176097e-01
1.076165724342908053e-01
1.258484340182171035e-01
7.974760205604478069e-02
1.111824516295870785e-01
1.903278208110279202e-01
1.847497039731976209e-01
2.101132070019366971e-01
2.089994507127609091e-01
2.260273687309648782e-01
2.759038030181323875e-01
3.085140470843922289e-01
3.292364512894064843e-01
3.675783449269374170e-01
4.433744211990914286e-01
4.386755972055387809e-01
5.206479182539048844e-01
5.518732510100742283e-01
6.325124091019899142e-01
7.369242424268239722e-01
8.243601958958379772e-01
9.258941064421701839e-01
9.357137823820582678e-01
9.912275415446966109e-01
1.060021974436565317e+00
1.121464666175793212e+00
1.211857661197510261e+00
1.191970740704399123e+00
1.182159390039606128e+00
1.238471943719679835e+00
1.229585966237684014e+00
1.214325973811334114e+00
1.184436887545302408e+00
1.220865145135293872e+00
1.100144234589150116e+00
1.017288199509938540e+00
9.863722429642507450e-01
9.252253920710790114e-01
8.337106030662857492e-01
7.956164624847509304e-01
7.786894678049212093e-01
6.220584271292523004e-01
5.506656733405053128e-01
5.499313996935933924e-01
4.610195954730419987e-01
3.998899001017950927e-01
3.932937131227137728e-01
2.993111728893428913e-01
2.295759467252507235e-01
2.666101592438919754e-01
2.120310721808082999e-01
1.865721165855088459e-01
1.121508964081311677e-01
1.252933495617885584e-01
1.376016118798865928e-01
1.030264823079976300e-01
1.577062595522883970e-01
1.234596447042776990e-01
1.164282186721285056e-01
1.526680184201335833e-01
1.069936469978737259e-01
1.381260766374904081e-01
1.294321393334465498e-01
1.580527507923025210e-01
1.499215245329098001e-01
1.598338983893833054e-01
1.302347447030283711e-01
1.333572497415543845e-01
1.521733843426182897e-01
1.782516553359503320e-01
1.758212569796392677e-01
1.924724333827227962e-01
1.485257031666365468e-01
1.383820432901516906e-01
1.683622264157891846e-01
1.675025955557447599e-01
1.628827611514176432e-01
1.888515147184518517e-01
1.606197970395506491e-01
1.858355331569558622e-01
1.769375774291743197e-01
1.740869022737794591e-01
1.751807748208853155e-01
1.854156592749492405e-01
2.327699567406991965e-01
2.110750539361626876e-01
2.248781481025105000e-01
2.171302780830720591e-01
2.438208708970614758e-01
2.409851762514212403e-01
2.427861956092300932e-01
2.219423998954745403e-01
2.268067026539759834e-01
1.925989359687379776e-01
2.067381401869941293e-01
2.494061612546122908e-01
2.100399251891527375e-01
2.179647103092962057e-01
2.422652998585979323e-01
2.298857808979176687e-01
2.211785967376441453e-01
2.115930100972983341e-01
2.409492169057108890e-01
1.942590754216330096e-01
2.209309789787561873e-01
2.000213555315619174e-01
2.213938870641574130e-01
2.206509656165275834e-01
2.017006861881315283e-01
2.261733742299652516e-01
2.115859653665335682e-01
1.781331944055810634e-01
1.891269978695296616e-01
1.861258049142930915e-01
2.025098672810747291e-01
1.258065792156553564e-01
1.971491290045347400e-01
1.137416695994624555e-01
1.689643043697398317e-01
1.640134904691668838e-01
1.401746123132576183e-01
1.588811929261410572e-01
1.010312649339581009e-01
1.079475051936990837e-01
9.528350642830302197e-02
1.024159589187958741e-01
1.484735538961169665e-01
1.495743284461490963e-01
1.053164022422100193e-01
1.090006222107055694e-01
1.562262817187786146e-01
8.206347984901582460e-02
6.996134597328752813e-02
1.132349525848311139e-01
6.595026300086756499e-02
4.860715144475670491e-02
9.968074257492115509e-02
1.104683602759212457e-01
5.123498947074611731e-02
6.138304680122778911e-02
8.547220863670793034e-02
3.272027355870865684e-02
8.030069524881278120e-02
9.249906769372766291e-02
9.007310996481436571e-03
2.900523100624146505e-03
-8.036647404211932216e-03
2.215466823772383603e-02
-2.567515303338945357e-03
6.532739895015722553e-02
1.613517243011513766e-03
1.617490002109707448e-02
3.711027424908003303e-02
-3.530851531528102563e-04
2.282604472394777345e-02
4.027944963362990044e-02
1.122607609198458672e-01
2.923533135084914469e-02
-3.089534883191216025e-02
3.600969409203903793e-02
2.338082724862028741e-02
2.815110247356177042e-02
9.283393966830887079e-03
3.779021633561690380e-02
3.187624088771914312e-03
1.929680338550452540e-02
1.572800036094488402e-02
1.239572091207931034e-02
-8.625687207593170022e-04
4.228094432393764840e-02
5.002627718456611333e-02
6.675032530593177915e-02
1.283286965098681676e-02
1.604900178302093652e-02
1.828405427620335283e-02
-1.354364521436253119e-02
3.736295441820021435e-02
3.620702292811828552e-03
3.029555893626278626e-02
-2.098295654053643211e-02
3.181930010338804293e-02
5.473276973620130187e-02
-1.697923715093493805e-03
6.530040763180694832e-03
7.529604896277129408e-03
9.558250468665974858e-03
6.621277110767551100e-02
3.208538889397261062e-02
2.347277104464947153e-03
9.494910404936995896e-03
-2.447691963248629227e-02
1.701700419142865642e-02
5.658652954610349228e-03
1.043577962028055875e-02
3.767103470488063210e-02
2.157633816671409091e-02
5.311724514383646401e-02
7.276134788442928381e-02
7.502482262629447951e-02
7.680811009625582164e-02
-1.299131628643185495e-03
6.422886568651683947e-02
1.214248725691530889e-01
1.518459447040516885e-01
1.167878775474045366e-01
9.906708584633304449e-02
7.710379237184628032e-02
1.443501012645422299e-01
1.069274735902758927e-01
1.087497283918444080e-01
1.552067661157844891e-01
3.268182889133864483e-02
1.273221081305818680e-01
8.929875645068006962e-02
1.540301358521643516e-01
1.896588442791932727e-01
1.593754890294320214e-01
2.068472741493964651e-01
1.569051451801198038e-01
1.965518103251909510e-01
1.078450035585433175e-01
1.638523939885681568e-01
1.195067102529703967e-01
1.721120737011411217e-01
1.521209667282015510e-01
1.566263608519674055e-01
1.567726804423945630e-01
1.951230457703537202e-01
1.698113152151537464e-01
1.700432534634124526e-01
1.654187448109617764e-01
1.872676207436737295e-01
1.604187946161210743e-01
1.358323763587031274e-01
2.007503230735354638e-01
1.629460443981768647e-01
1.903992011600830481e-01
2.127939823702637845e-01
1.681530244545956232e-01
1.889997258562541860e-01
1.872432389754792870e-01
2.402471262501374161e-01
3.073075161023365309e-01
3.044332214952573112e-01
3.822643260473614357e-01
3.896604099482885997e-01
4.082369603504809041e-01
4.557085891027253255e-01
5.795899763577154751e-01
6.162203192396287221e-01
6.520655439147006183e-01
7.293679827835612972e-01
7.818285907179872707e-01
7.900092019838530488e-01
9.382288510943571636e-01
9.658236697535131920e-01
1.055908438340816380e+00
1.086936112478328109e+00
1.169984473435767169e+00
1.187911040074134617e+00
1.252235425455925144e+00
1.292622154509445842e+00
1.291325196831460076e+00
1.236131317821373532e+00
1.217041029705455912e+00
1.203859346671235508e+00
1.237844956136072927e+00
1.227929743211352731e+00
1.089014368216835837e+00
1.018589789829327463e+00
1.025812600886475412e+00
9.030089873474774764e-01
8.426362415459062172e-01
7.789802847191397150e-01
6.837489562478004101e-01
6.135455459720688953e-01
5.704303386767355377e-01
5.006479042342169006e-01
4.046756089580785254e-01
3.815634950796970570e-01
3.603055262969890871e-01
3.093070189104744627e-01
3.077363001314063484e-01
2.415343566308119361e-01
2.961637910195615842e-01
2.246654519149949847e-01
2.106183216388373969e-01
1.817459669987841475e-01
1.810537437794666749e-01
1.268014189838583272e-01
1.801873860089173995e-01
2.377373812834120137e-01
2.056131824012289999e-01
1.310135431873981071e-01
1.908713571950310384e-01
1.985040212044600905e-01
2.342303197917383339e-01
1.690012343081027935e-01
2.655075732474563299e-01
2.048367886002529226e-01
1.812460835275785942e-01
1.619035633714773770e-01
2.120313729299302952e-01
2.265369915408860790e-01
1.907659971046840319e-01
2.483730181173876561e-01
2.499568207239051543e-01
2.388235756333709492e-01
2.170620694985753718e-01
2.475067385944613174e-01
3.061198281545541855e-01
2.268679584608574995e-01
2.054508036876476762e-01
2.503734237173617094e-01
2.403638977447866698e-01
2.119693762088694922e-01
2.824775613769106575e-01
2.331155630600795503e-01
2.321882708818720775e-01
3.014057617190274430e-01
3.204996439352036930e-01
3.574764572011360220e-01
2.342674888816432821e-01
2.936336499197478300e-01
2.403607610038032694e-01
2.848576838539044753e-01
2.780329357453222294e-01
2.182093818983293354e-01
2.977743712854276081e-01
2.810773728196688248e-01
2.981786498664009688e-01
2.408841886235084939e-01
3.405223340146400490e-01
2.831344805545817911e-01
2.831153927318006414e-01
3.121692724323597012e-01
2.677447764292171795e-01
2.385027591468050212e-01
2.950141554847784398e-01
2.545549164405192522e-01
2.846344531856678239e-01
2.485378619403853240e-01
3.133961517929686469e-01
2.426397685166891971e-01
2.210541369999683703e-01
2.457380691486866775e-01
2.170559701389226381e-01
2.006850120787446179e-01
2.625712034253797067e-01
1.792646710956943834e-01
2.437176244280207793e-01
2.560917665770309215e-01
1.929453925361035715e-01
2.064060620060301776e-01
1.684085811831130819e-01
2.228449048800144328e-01
1.449001776229801031e-01
2.086084608865603762e-01
1.740214060385215922e-01
1.435244990506103213e-01
1.432331688030996086e-01
1.741020647722770764e-01
1.189844117726269607e-01
1.665794988931987575e-01
1.506942946375681991e-01
1.292543975970861792e-01
1.513909730389350061e-01
1.084913000581969600e-01
1.199830113904630791e-01
1.126193458336866293e-01
8.218953577815756029e-02
1.063964036514721545e-01
6.568535868885583273e-02
9.236496515065265034e-02
5.374237804210336283e-02
7.158618834912564011e-02
7.133806372399952023e-02
1.083781474154620339e-01
6.412247510865883016e-02
5.252329983647655715e-02
7.581213329148539515e-02
1.416498906577126071e-01
3.238650874437859484e-02
1.008192947386135074e-01
8.821889281396680382e-02
1.382080901653136018e-01
8.235046036564919181e-02
7.298232035794678663e-02
7.104356425743024728e-02
6.715222545402933785e-02
8.775117026393000619e-02
4.918447113492906142e-02
1.550106543155883587e-01
8.845534332580318182e-02
5.582554302992180639e-02
5.304744607140787771e-02
5.912205782665158615e-02
5.745930953342162639e-02
7.739347757902373393e-02
6.645009168068991001e-02
1.009558038519458301e-01
2.788928820601445369e-02
5.539700945651922226e-02
2.707967680741459049e-02
4.199925853633344058e-02
4.084280891067068597e-02
7.994908925020632884e-02
3.762908699650150540e-02
9.918059618533892063e-02
1.013898370943250304e-01
7.994130084258149749e-02
2.504643778112181779e-02
1.033230797005820212e-01
4.841621751526614670e-02
5.253982055353631497e-02
7.943285799525665047e-02
3.972737900063830208e-02
1.046132599152243964e-01
9.300187155280607854e-02
1.602613996461048074e-01
8.236321212030475736e-02
7.178837268625236356e-02
1.385138535559681805e-01
2.516617347979283048e-02
9.089909084311403875e-02
8.308785838422427794e-02
1.273913268210667415e-01
1.871351064043609291e-01
7.729639535363065639e-02
1.360149282743787769e-01
1.470238768145019637e-01
1.487590075060478134e-01
1.208432683509891303e-01
1.392866551046814116e-01
9.366932951550288600e-02
1.799526960631410710e-01
9.887355508844036800e-02
1.067133312612054963e-01
1.319447052656179120e-01
1.279310464475625631e-01
1.626465830010694891e-01
1.446581791829565367e-01
1.325036139537444924e-01
1.293005317587180014e-01
2.027793869247138947e-01
1.870373964221065943e-01
1.360522424799588959e-01
1.979209948736859459e-01
1.726263014153658348e-01
1.381046276372560611e-01
1.511695639287822246e-01
2.215396482411313150e-01
2.339420944588097573e-01
2.165908776449065598e-01
1.752508446965332645e-01
2.141144034781448935e-01
2.145783150071183532e-01
1.256670336291408896e-01
2.187737748834629459e-01
2.074651105148176689e-01
2.722758461457995272e-01
2.617646484304604337e-01
1.999371220031082030e-01
2.159973652193628302e-01
2.070216679676987193e-01
1.904500618040013971e-01
1.654739666951492161e-01
1.892297734079302629e-01
1.999001844579981202e-01
2.553158585881672993e-01
2.338899553072112947e-01
2.211029365244684963e-01
2.295110310136631304e-01
2.818377923700787768e-01
2.801788482092613664e-01
2.833434205011708951e-01
3.172067980060370163e-01
4.332724778372239460e-01
4.172146083642094272e-01
5.001236991828517109e-01
4.655556227395348801e-01
6.105023889508257584e-01
6.594890157686147392e-01
7.278921491947145661e-01
7.212087970660295833e-01
8.399590768106385275e-01
8.848030141758467249e-01
9.436097631285990106e-01
9.891393766732490267e-01
1.075849612899250518e+00
1.130411604078072507e+00
1.237836435391866274e+00
1.236607693500344496e+00
1.280708201118914369e+00
1.341036873600685464e+00
1.315255156250455526e+00
1.287964656318092427e+00
1.300212079502997664e+00
1.243991486233711141e+00
1.177788030208056558e+00
1.195262526142368165e+00
1.149010637302317894e+00
1.062725577846713509e+00
9.986426198364194429e-01
9.205741769693933652e-01
9.087422814097703139e-01
8.002563840999243894e-01
7.176564499293935917e-01
6.832994035840947999e-01
6.223192198557421229e-01
5.445760848696685752e-01
5.059429343412873425e-01
4.446459347152996733e-01
3.859948489199658272e-01
3.763926488053632169e-01
2.860369010836594783e-01
2.580165865361124244e-01
2.788946668897667180e-01
2.253646038958162512e-01
2.559791802097747815e-01
2.278978110924601008e-01
2.745250994621856178e-01
1.773629208730978513e-01
2.316952074288977370e-01
1.874023209609969876e-01
2.110281446666275873e-01
2.252422947263454378e-01
2.173540917634967096e-01
2.234997500243385837e-01
2.242959501336743433e-01
2.082643931748700827e-01
2.452476102378135514e-01
2.511236600196480873e-01
2.182497600265420890e-01
2.092443924536496747e-01
2.454751608888519343e-01
2.480319969505940803e-01
1.980394290885207631e-01
2.573636679166737551e-01
2.306514664207218179e-01
2.013298092123601279e-01
2.745951147318786978e-01
2.303564797025572097e-01
3.089432082862436091e-01
2.972706648067611201e-01
2.843827276989853159e-01
3.217875080987804837e-01
3.118151784518565783e-01
2.586964362736988154e-01
3.182564918061780435e-01
2.694698129756063487e-01
3.194594878118259262e-01
2.809052277515314278e-01
2.570259229611684404e-01
3.087422203819318867e-01
2.823099378731799280e-01
3.297110804150362728e-01
3.367615346136700882e-01
2.457231027239520915e-01
2.972449902562354640e-01
3.161991284668478341e-01
2.995962703254616000e-01
2.990970608565284850e-01
3.014277269169564621e-01
2.436156370330523346e-01
3.376814552696607019e-01
3.074083685981575109e-01
2.656460110834717447e-01
2.600196786874963140e-01
3.055889511683947957e-01
2.843448477517754869e-01
2.840617176299094493e-01
2.862335068519407666e-01
2.727069782530189279e-01
2.055634187178605465e-01
2.455978153560910704e-01
2.704090225041588247e-01
2.685949086280851050e-01
2.305169251829661259e-01
2.390255017733400322e-01
2.702446487164037459e-01
2.726728672655742702e-01
2.354966212578438745e-01
2.472333506940038728e-01
2.261793560491888733e-01
2.315870752145013090e-01
2.049831632824138661e-01
1.820578311725158382e-01
2.504581497548673541e-01
2.437816431501349523e-01
1.854769650971376527e-01
1.914036469494232451e-01
1.795667833080331899e-01
1.709687179843175087e-01
1.672633157634105805e-01
1.946479521739742091e-01
1.225222351568242551e-01
1.314670384748845844e-01
1.730869345346796317e-01
1.460453689932114107e-01
1.747960824429953819e-01
1.348106188668511951e-01
1.390447686359097546e-01
1.179949516430472134e-01
1.606515323683738450e-01
1.422235890134949665e-01
7.840158781184207448e-02
1.271825246850406543e-01
1.359752969908180620e-01
1.003873339829789157e-01
1.189522316685375364e-01
1.338616279383432472e-01
8.875174158796166057e-02
9.902718618069060452e-02
7.152746802269979720e-02
9.922835826769474399e-02
5.227192561893986150e-02
9.808474873817779605e-02
1.218371807302415094e-01
4.702239402006194724e-02
1.114955521757458323e-01
6.888532222407700578e-02
4.874280641800746161e-02
5.993867998171850675e-02
6.552487458655245622e-02
5.117441496207487950e-02
9.571939798882560246e-02
5.192877783244437273e-02
6.839630255731293795e-02
1.212645586225857275e-01
5.146664100647721507e-02
4.104174845063446320e-02
4.336188702590497435e-02
8.742626104466785786e-02
5.041864926835226690e-02
6.050789689287693757e-02
3.113081987655672012e-02
4.283456084131709307e-02
8.039579895491917594e-02
7.541639488524320978e-03
-2.020867057868219741e-03
3.634730326017186069e-02
3.957718918594761714e-02
4.385339738590791903e-02
4.519716027657753876e-02
5.343162887657382926e-02
4.149391109442688436e-02
9.564208673800696225e-02
8.065880456426394174e-02
5.366366075069247538e-02
8.600646100475636824e-02
-1.732538337270180667e-02
7.222142301505928008e-02
8.983570872002109853e-02
4.928620666941097017e-02
8.450608107379148359e-02
5.208783568126210128e-02
8.382017250643630790e-02
3.742416052798085147e-02
1.067492330024788633e-01
8.297702790376355886e-02
9.322347837785260882e-02
8.763675650537527950e-02
1.260111147657809738e-01
1.048547933035603730e-01
1.295226325027377390e-01
8.898352290226162198e-02
1.264002708807334396e-01
1.608556195065792560e-01
1.664312009358675792e-01
4.546903071275807534e-02
1.314618963334747981e-01
8.660908127254959843e-02
1.235531063782014660e-01
1.229973234944200661e-01
1.617037873511979473e-01
1.434886173864890480e-01
1.293638491352674946e-01
1.712529834986492028e-01
1.277907611022770507e-01
1.391174363576329620e-01
1.539904827379640073e-01
1.623286968886270554e-01
1.763023387304342160e-01
1.790257146642345309e-01
1.567452022143216162e-01
1.842682113986988113e-01
1.809408186893540771e-01
1.798052861078561215e-01
1.342921194406330454e-01
1.943747600767233852e-01
1.985069026841647655e-01
2.034600219241460006e-01
1.852326151182475122e-01
2.125969841240780145e-01
1.949896740571829268e-01
1.681672434068599564e-01
1.791570762653073023e-01
1.648434633034596974e-01
1.541181269554786071e-01
2.075937211871533294e-01
1.831528148025723113e-01
2.175170130131977853e-01
2.608501763833653841e-01
2.469849320665421788e-01
2.005579287665923971e-01
2.298576434346310537e-01
2.852939803737647995e-01
3.065343409179551726e-01
3.644353907022021555e-01
3.495531140762806466e-01
3.638496096523237133e-01
4.205690778283313613e-01
5.360724474352533964e-01
5.622301116929568909e-01
6.439702941782309287e-01
6.741538026137119388e-01
7.304682096826613513e-01
8.419088778692862540e-01
8.524073559511482490e-01
9.757738220820815211e-01
1.075819366468301785e+00
1.020907423364468158e+00
1.116004406040663754e+00
1.191329413495813450e+00
1.216829493203387402e+00
1.255716089309297345e+00
1.343491284416658438e+00
1.263618716602560532e+00
1.271106247706273784e+00
1.230457694480945774e+00
1.189413865135753756e+00
1.205900938639308695e+00
1.096091299381871442e+00
1.049810063258924009e+00
1.027979880926186862e+00
9.774120427606668438e-01
8.638983528787884669e-01
7.964430024897587446e-01
6.984234714652342024e-01
6.930465248207348106e-01
6.118407804103827008e-01
5.478143580171627169e-01
4.493822453889678159e-01
4.593418420412354042e-01
3.716329081747818397e-01
3.705249845920395857e-01
2.868774217091901724e-01
2.844084152271177390e-01
2.251153497623805955e-01
2.544567565169273959e-01
1.714423806007917273e-01
2.027257320224698789e-01
1.463937044669098575e-01
1.624378001553446471e-01
1.891792359082258290e-01
1.325944264596501665e-01
1.794526759556066831e-01
1.880228307726591330e-01
1.064234109825184238e-01
1.827417240432533951e-01
2.049474758063822843e-01
1.519640408977054047e-01
1.522602643979180659e-01
1.331802401956708459e-01
1.572219267580087787e-01
2.208612155775566965e-01
1.820582151097677459e-01
2.138817919087041830e-01
1.844265377852837284e-01
2.040190725219306334e-01
2.488954476447157727e-01
2.559492067815594130e-01
2.240388766947436217e-01
2.169790189283676562e-01
2.031034434749173223e-01
2.543091406442262725e-01
2.298999010397651810e-01
2.753972054609543085e-01
1.889033124401590102e-01
2.290441144029140841e-01
2.399777197802815398e-01
2.619061262762013564e-01
2.096777197405337578e-01
2.460403486381372851e-01
2.807464835043762541e-01
2.621043875170596116e-01
2.635681254528086104e-01
2.297382662601353542e-01
2.479331338189067202e-01
2.237609818417336527e-01
2.846559309872907506e-01
2.664532311242223117e-01
2.568180319102407183e-01
2.572532608152103828e-01
2.870092280666768914e-01
3.095171559434169439e-01
2.495794564793906156e-01
2.474759057771950266e-01
2.545341321790607347e-01
2.835821938405594378e-01
2.604073624152329347e-01
2.460194841263365351e-01
2.539146950680648551e-01
2.397261705711309088e-01
1.816118704885996138e-01
2.516772950407228371e-01
1.916031103823900572e-01
2.086437018498009388e-01
1.835782596177612247e-01
1.943664856460750046e-01
2.047351500645162581e-01
2.334977668949154150e-01
1.751825692484435537e-01
2.267139140104199591e-01
1.296868259997872308e-01
1.356459642459285631e-01
1.419501451907264067e-01
1.850663095510278466e-01
1.289141189796348674e-01
1.141281697335338324e-01
2.001281035690777310e-01
1.369532443803656852e-01
1.802788391253251910e-01
1.613425220483441502e-01
1.493610074013069500e-01
1.577452623805853382e-01
1.067941851375753121e-01
7.516926639617935169e-02
1.203623438302821869e-01
8.935446226697127403e-02
1.131337595603257029e-01
1.174324894162779021e-01
6.156017047191040398e-02
6.345738377079684911e-02
7.410399639752753009e-02
1.105580775517372299e-01
4.469734425179181653e-02
1.192050110780866340e-01
1.088086651309788308e-02
1.049501541750997996e-01
5.986481548624736360e-02
6.511275686576925570e-02
6.288461039332929325e-02
-2.718692672574377425e-02
3.056945695000343535e-02
3.157273515449726675e-02
6.937905702899010985e-02
2.770857962569522881e-02
7.022597252149573310e-02
7.951544355183216839e-02
4.001532331491852723e-02
2.586009880754713830e-02
-1.283394271529176428e-02
3.506591649867151633e-02
4.582121815912930732e-03
5.409796066007439841e-02
-3.337019673198445696e-02
-1.129609169521644113e-02
3.526040265922125716e-02
5.757514862418923463e-02
2.632832821355921005e-02
4.176398611629487945e-02
7.847332116955881010e-03
5.258524758512855835e-02
8.006399630821951080e-03
1.543372191637399499e-02
5.684807708376224053e-03
-8.978926671730568659e-03
1.130860290265741502e-02
5.705862253626889369e-03
1.151524597918410220e-02
-6.951923020820358068e-02
-2.836363685774227761e-02
-1.781755356366477444e-02
-4.678721387289699191e-02
-2.970443458568344797e-02
1.998994683276357834e-02
8.874682609103994729e-03
2.947744496577823017e-02
2.835702756075273584e-02
3.183015634999451088e-02
4.663391044888363229e-03
4.527346340889670806e-02
-1.068015403242413702e-02
4.710219262654054967e-02
3.666926167488791799e-02
3.175762451430682448e-02
1.391452422166091635e-02
-3.429308765198948311e-03
1.957885651755493159e-02
-2.320044455588388468e-02
5.655104725552062561e-02
1.419467748102606203e-02
1.940050923298015928e-02
-1.937978749447070298e-02
7.508812509383969158e-03
1.214324194395014211e-01
2.737737172338460673e-02
8.128410546482021937e-02
1.592262087167565371e-02
1.814798298967746151e-02
6.184662858367258320e-02
6.863662713627363687e-02
5.294181783578569278e-02
7.514026162543796517e-02
5.630357715260698309e-02
1.201810548815961388e-01
1.482314391397182018e-01
1.232843541878793636e-01
5.482225571408577691e-02
1.129068307251591685e-01
8.560969432272141910e-02
8.893085698579510090e-02
1.307703453359332357e-01
1.155597754020530749e-01
1.183373919404314967e-01
1.185932809953958028e-01
9.219986266080305859e-02
9.035704746447610625e-02
1.137524823533744012e-01
1.174616175029906534e-01
1.364878545240108543e-01
1.511811980316264403e-01
1.195355744821389177e-01
1.302037196673637154e-01
1.524437266665845947e-01
1.172459439752069482e-01
1.377008135044532067e-01
1.314315175544322756e-01
1.158850299074033335e-01
8.848459224005174317e-02
1.001578744463315213e-01
1.627786935399475055e-01
8.760090356736432993e-02
1.956511331432846945e-01
1.306051290263476328e-01
1.090351285333297782e-01
1.602006772729691331e-01
1.267888162766251381e-01
1.652603621993264105e-01
2.460129187714602816e-01
2.275548137442723329e-01
2.657784327039928174e-01
3.549452623605508506e-01
4.030406621471509521e-01
4.685997017544911158e-01
5.183640184910747184e-01
5.719302063199221964e-01
6.565894833002291486e-01
7.352028773330386846e-01
7.798138707777322320e-01
8.631461183427923123e-01
8.380311147854904164e-01
9.688042419683758899e-01
1.085879675801720845e+00
1.080315376320600596e+00
1.158835934846247362e+00
1.188118834401672652e+00
1.189307162823413089e+00
1.237693800249587861e+00
1.214712742584479255e+00
1.206192030304021667e+00
1.186789473298689224e+00
1.145694066348311946e+00
1.101426058937482022e+00
1.067634372165562784e+00
1.027436735279033675e+00
9.511601291502270739e-01
8.818478980467497896e-01
9.020691164723458888e-01
7.754823681959841508e-01
6.332663998532535032e-01
6.210911362177828909e-01
5.558810653150499936e-01
5.898971711444319643e-01
4.368156382235856006e-01
4.370145100512707881e-01
3.143285736718371970e-01
2.612172212598069532e-01
2.134685072780564963e-01
2.435961088361196514e-01
1.636056342038896827e-01
1.502629962160449695e-01
1.679545004163670585e-01
1.293267429605219343e-01
1.335630427371836404e-01
8.404978295952195144e-02
4.542398253753940351e-02
1.526876417384877560e-01
1.477858177977575405e-01
1.058743231095368581e-01
1.177852287681555310e-01
8.865480802320505060e-02
1.119021942256000768e-01
1.958369579544623207e-01
1.806983284568541848e-01
1.394154211963957724e-01
7.812850630999307322e-02
1.552368336420063000e-01
1.360227446621574965e-01
1.359485605032673683e-01
1.525449144860751283e-01
2.148910120148449510e-01
1.657114074562891226e-01
1.953197348607995931e-01
1.822243957120443514e-01
1.851315488653144103e-01
1.969923902299019203e-01
1.679990809551784869e-01
1.431680200871899289e-01
2.348808312331122639e-01
1.442196971834333596e-01
2.013098836683888948e-01
2.495578423574423832e-01
2.077232035663494070e-01
2.174089687234803947e-01
2.191635738343113426e-01
2.375788528092017127e-01
2.445660303909871769e-01
1.617886751539462376e-01
2.448521079875662643e-01
2.039545959452588320e-01
1.832252719757407056e-01
1.735259211007004476e-01
2.130867670042691231e-01
1.879068427204978187e-01
2.059775744410810849e-01
2.023762450902954479e-01
2.097156538613946242e-01
2.230938559556852607e-01
2.324889673578078020e-01
2.295763114837709729e-01
2.379029469090119253e-01
1.817724446035614283e-01
1.646752018339665002e-01
1.808692868159842149e-01
1.653153852314419303e-01
1.370212515507147621e-01
1.648948593251749473e-01
1.892543094649785651e-01
2.008127915104133410e-01
1.573917365135639457e-01
1.882209862230261044e-01
1.514298731861878633e-01
7.509924156003663920e-02
1.009948228738779541e-01
1.491584699525136115e-01
7.767337417815922684e-02
8.694391460894027035e-02
7.620373615148720581e-02
1.105469216703688917e-01
1.188403843186512376e-01
5.530391145272520875e-02
1.241025710262261550e-01
9.660070633086353942e-02
5.153309937969008381e-02
8.727206000001175301e-02
5.836660308159988264e-02
5.294442668424397674e-02
3.310239218929399846e-02
6.571066086618999880e-02
5.391299003226250608e-02
4.890502167236866760e-02
4.828867348739820237e-02
5.462151976915883417e-02
3.711306947002815382e-02
-2.082888181119815080e-02
3.310992234294847514e-02
1.404385858217754857e-03
6.014162630253088587e-02
3.538311059651037815e-02
4.846177577049888552e-02
-1.222620746357039323e-03
3.842295715124000727e-02
-2.529996272426005693e-02
4.435309299528726601e-03
-2.539419844202440643e-02
1.679850902003210411e-02
4.769401760090936221e-02
3.810159056309762871e-03
-5.416316668456552103e-02
-3.209739890251102346e-02
7.759659918061498352e-02
8.164268753325015782e-03
-4.175663067730968347e-02
7.016140097035508671e-03
-1.877227907435083040e-02
5.451326409551523339e-02
-2.382694486436671630e-02
-3.516584117779674584e-02
-3.112149514397506006e-02
-4.195983645958088759e-02
-5.300663351052289918e-02
-6.642017837158425975e-02
-4.809225756656136663e-02
-1.155608521494887186e-02
-4.314358114200490119e-02
-5.345274625778081296e-02
-7.653157844051683423e-02
-1.611633871297424997e-02
1.064411296200462598e-02
-6.333791052643705788e-02
-5.718951087030474389e-02
-6.574958809677053373e-02
-1.347626469559625589e-02
-6.577398726936106721e-03
-3.290741762537786885e-02
-7.269954785337563730e-02
-2.474335974311829556e-02
-2.868195837588270736e-02
-2.481938424002250870e-02
-6.513229475609522146e-02
-6.597098445052457238e-02
-7.996587271140870312e-02
4.825435963514410065e-03
7.462703958232078105e-03
-7.477537027113329016e-02
-4.812876169378661750e-02
-4.577082664520236432e-02
7.677447023550720839e-03
-1.443163240825304228e-02
3.199051504654913669e-02
-2.008620933993601060e-02
-4.843046699486397433e-02
-2.704106849085773090e-02
-2.879956741679345206e-02
3.367656004385669727e-02
6.358235674540754778e-02
2.453559523765783124e-02
-7.027647543642150108e-03
2.576212259172186436e-02
-2.660238934962681073e-02
2.071594224456532740e-02
-1.902458968307881026e-02
5.012227670325176965e-02
3.524065990772792811e-02
6.938106494899898280e-02
7.158655552060225191e-02
3.718165424868027924e-02
8.872617285047951219e-02
2.712720906381645147e-02
1.459507986817967229e-01
3.079334197620173935e-02
9.731397065167507465e-02
1.160225980058310069e-01
8.767150712481996955e-02
5.459532620521664881e-02
6.542884748129064454e-02
6.078360536984173113e-02
9.380743880469663565e-02
1.199286213614738639e-01
1.125822646529328896e-01
1.013335942016118651e-01
5.906126894596608334e-02
1.529964786230337548e-01
9.744488412947004130e-02
9.179400893197429967e-02
1.104356721377416084e-01
5.396793828473708809e-02
1.021471058454013481e-01
9.787588165651051053e-02
9.948742573350996543e-02
1.421185579993931580e-01
6.949309504235565149e-02
1.081936819157309215e-01
9.438073141864589122e-02
1.113999189763279218e-01
1.497071421070734765e-01
1.300664144361668995e-01
1.376045773565077734e-01
9.049328965549177650e-02
2.033335227267830669e-01
1.540883105935397790e-01
2.162404063193910098e-01
2.372156017514019943e-01
2.322631333457168823e-01
3.480732068207559315e-01
3.798747993222875707e-01
4.618152711948728673e-01
5.215218479927168360e-01
5.867277710987888195e-01
6.500756587732162695e-01
7.187252893405520204e-01
8.028980313830361704e-01
8.551813227432876197e-01
9.193173954378263124e-01
9.730032992850203843e-01
1.045918956125523547e+00
1.107363372897741005e+00
1.152000349096667708e+00
1.168011441155392793e+00
1.262727095846896574e+00
1.259436875767606878e+00
1.191640362680786325e+00
1.206950339236551928e+00
1.234980093509093768e+00
1.128601164324045447e+00
1.076666985004503641e+00
1.143804635505706768e+00
9.913263432346255399e-01
8.818896194488629048e-01
8.501871361909987268e-01
7.918688221112711867e-01
7.579258362207020872e-01
6.641251421670406607e-01
5.521759747819801056e-01
4.407620796304212996e-01
4.819546762770525739e-01
4.121711116289706323e-01
3.947856285603900117e-01
2.932070022196618941e-01
2.633962971694929767e-01
2.200393152494877214e-01
1.878502404079574473e-01
1.927274718477599569e-01
1.470622709067990197e-01
9.396848211489580716e-02
1.712761045493869372e-01
1.291449205785213383e-01
1.357129361263982315e-01
1.510701557875891998e-01
1.032571217898846372e-01
1.028060911107587794e-01
7.726215150529364140e-02
1.371427291915750801e-01
6.743349923281671821e-02
1.233039425382667087e-01
1.366893480891520907e-01
8.559521332351727185e-02
1.665100950934707003e-01
7.458479146888175038e-02
9.895899983120401422e-02
1.424681505077343424e-01
1.695656707413700504e-01
1.117850072814225160e-01
1.791095823891199201e-01
1.864242577883640783e-01
1.544162752715010634e-01
1.744446230090201944e-01
2.096575489357955790e-01
2.243528909056850540e-01
1.668502753091077317e-01
1.609198409688215037e-01
1.845006368871045521e-01
1.600219981151724535e-01
2.329409866649780059e-01
2.127880573639500394e-01
2.004818451109695587e-01
2.363837216987784151e-01
2.280206688922495895e-01
2.357761873839763489e-01
2.246542850337931718e-01
2.516562224235221468e-01
1.689999009330638291e-01
2.264301695784086133e-01
2.582672585286487354e-01
2.017015475588418705e-01
1.938821168523400806e-01
1.995063276395229734e-01
2.099061050664872974e-01
2.412676448975917542e-01
2.077495638780605114e-01
2.400168229918049345e-01
2.187488991597551502e-01
2.303272793015298525e-01
2.014004089056886382e-01
1.901328562005115963e-01
1.548173457807080211e-01
1.187859262027727847e-01
1.767839467670022924e-01
1.094058164991835169e-01
1.788313777664717052e-01
1.977678023055639833e-01
1.747567705427325035e-01
8.522067705374489210e-02
1.531052892713655189e-01
1.771815822636845783e-01
1.946019003977449147e-01
1.676761253512127903e-01
1.472302155645435484e-01
1.567605934511827892e-01
1.932582398758843356e-01
1.339565628556680099e-01
8.370373054128980861e-02
1.093888678112645840e-01
9.620527239086021365e-02
7.881373458921464570e-02
8.750072413378912062e-02
1.867929910448782871e-01
6.853530007591950024e-02
7.926456938597589708e-02
1.733719157309771275e-01
1.020166917702683279e-01
9.050380432687790688e-02
9.171759336278456631e-02
7.680660034011338455e-02
5.276480676467677072e-02
7.211365614378810462e-02
7.475767721869122640e-02
3.491985514519829054e-03
3.653839493704091890e-02
-4.537246028107923962e-03
1.568139322606759006e-02
5.473276037504384156e-02
2.268323156943817184e-02
2.506197345194630111e-02
-5.266293243295407100e-02
-1.461228731786631124e-02
-1.194268767573581497e-02
-3.140480614471501120e-02
2.308166037493297046e-02
1.729045682700733333e-02
3.755236451760472771e-02
4.928338285586736367e-02
5.013552619880713712e-02
1.746459135997346923e-02
1.057758447751031353e-02
1.145505935522229610e-02
-2.915748765264932624e-02
7.760196139388761405e-03
-1.733572849132936772e-02
-4.018373507829597208e-02
-5.853441937058784239e-02
-7.849065652023701212e-02
-1.456077179926653503e-02
-2.829423894174398768e-02
-3.125897461011886702e-02
-4.417839341916948021e-02
-2.702675006280970404e-02
-4.362572024892561601e-02
-8.364705883593292340e-03
1.063767784569712854e-02
-2.635921506537017983e-02
2.083209855669759455e-02
-3.513776466902238105e-02
-6.964346485751279903e-02
2.935408310233002249e-02
-7.251913778940852207e-02
-2.751693243814139211e-02
1.338654850328982113e-02
2.777880708643635718e-02
-1.340910940754121150e-02
-2.473944259871926205e-02
5.660314856648922255e-02
2.247744138130621308e-02
2.862853111100621684e-02
1.218962673828219781e-02
1.785113174257324520e-02
9.391962977375226118e-03
-1.724310232953177313e-04
-4.954158900386377434e-02
-3.166206486230650763e-02
3.149313428270603121e-02
5.005164038800489351e-02
2.241253554519326979e-02
-1.286279046655474517e-02
2.959968252735668479e-02
3.844159370107117640e-02
-2.635389294332564011e-02
7.972537506980231781e-02
6.456630816943190188e-02
1.101387752231837783e-02
4.464475911782467971e-02
4.161400368658636773e-02
9.478478141213242392e-02
4.368828172961657097e-02
2.948288232398900421e-02
6.658915059352525645e-02
4.354167643387873987e-02
1.085966885829784678e-01
8.157035013957991687e-02
5.341897143038046303e-02
7.168254679995689216e-02
8.420806472027947409e-02
9.309933005231894876e-02
5.748756092593394762e-02
7.588231554661548084e-02
1.228100437442750104e-01
1.568196354102614209e-01
1.063764624587964502e-01
1.278925801781058968e-01
1.980697250735646564e-01
1.379533995765635235e-01
7.462171290898808595e-02
1.520054192446746999e-01
1.433585404480372250e-01
1.252846976853972671e-01
1.054886360323819550e-01
1.650065946959899110e-01
5.956682751336625503e-02
1.287279219228452121e-01
1.312269680223108748e-01
1.211132482286201434e-01
1.395718921687605363e-01
1.061368399256248513e-01
1.613379036042620618e-01
2.341465411299658572e-01
1.221406219745189009e-01
1.656333040234757026e-01
1.634885444873618587e-01
1.724118419013401515e-01
1.620680811902705798e-01
1.889612699786803462e-01
2.109161958120686631e-01
2.482629714628128981e-01
2.700156801850624455e-01
3.151186430281170958e-01
2.880694928374972763e-01
3.544596108346074748e-01
3.885309259040209406e-01
4.684894440654192027e-01
4.507365472589377475e-01
5.901814161402153536e-01
6.307533011765152908e-01
7.244809952303429279e-01
7.594072155356982323e-01
8.231254941473608033e-01
8.789106185062860455e-01
9.547556593547866788e-01
9.707295427081337191e-01
1.086117355353170444e+00
1.127725047857931484e+00
1.190626644372434040e+00
1.201517094814911424e+00
1.257231056841055850e+00
1.255493215721511957e+00
1.205749116683761057e+00
1.251321284759446817e+00
1.252437450828379983e+00
1.221730000745368416e+00
1.125383635856225473e+00
1.055589828860342472e+00
1.075072598825285608e+00
9.907283845298177072e-01
8.812841008978807844e-01
8.150759607018840391e-01
7.700821689426183836e-01
7.248014256902264307e-01
6.208856615118474309e-01
5.213158453976132201e-01
4.480778777033128657e-01
4.247390491991954176e-01
3.734404694747745501e-01
3.196493396025966161e-01
3.558457726256500919e-01
2.321610850817367455e-01
2.278884547130670957e-01
2.903652636118291830e-01
1.823117116866026233e-01
1.903867251499601343e-01
2.213461571463238575e-01
1.666301106079515759e-01
1.757198974238187161e-01
1.402897990586646493e-01
1.324634900650143998e-01
1.099960475293216278e-01
1.528771006038172342e-01
1.726944888013350055e-01
2.223499519717477557e-01
1.514734222815184717e-01
2.074867103499790366e-01
2.039488705404099989e-01
1.582353651587094234e-01
1.859797161576886293e-01
1.910932471064233362e-01
1.530662871456872631e-01
1.918848631251400538e-01
1.789169067467183405e-01
2.019344561883254785e-01
2.085518528128312288e-01
2.163567177758956572e-01
2.041191117995561355e-01
1.945972866580859273e-01
1.773382136450389890e-01
2.621729432131360005e-01
2.385365000635694954e-01
2.720060013829975198e-01
2.398500726384423520e-01
2.469566725471916413e-01
2.420919687838315182e-01
2.417877288718477957e-01
2.622160474674158359e-01
2.480312204266165721e-01
2.877733901685634033e-01
3.020400460026565481e-01
3.007360756568670523e-01
3.089773756059982501e-01
2.290015993778378722e-01
2.998514266402126927e-01
2.665997548337906697e-01
2.668604409234440755e-01
2.418265930367971550e-01
2.514065069331807289e-01
1.955957280633877082e-01
2.772073107736832132e-01
2.528967330239834110e-01
2.417196724770930838e-01
2.953290476176264612e-01
2.533212585591830268e-01
2.228222998725048476e-01
2.473072477592784812e-01
2.962983322517662721e-01
2.378668021139986877e-01
2.626820635020226113e-01
2.133060917308093329e-01
2.460954751467442359e-01
2.335910137591907243e-01
2.234573804668157915e-01
2.046209736653775424e-01
2.065275543092361943e-01
1.540560628567136103e-01
1.577363074427088341e-01
1.548730915564774102e-01
1.511969520876893791e-01
1.837267740877193134e-01
1.723665394376769355e-01
1.510363151356491074e-01
2.138837054397731974e-01
1.648738469137470131e-01
1.948641285539119972e-01
1.190703927056720179e-01
1.711286842485429116e-01
1.832939455707983945e-01
1.609753842228025533e-01
1.309774265763777867e-01
1.311730694418541676e-01
1.453391508578047997e-01
1.323950328807726451e-01
1.590559999298594707e-01
9.374010125748745426e-02
1.466323828333349344e-01
1.225067921913592650e-01
1.156062090456448921e-01
1.003064096107693787e-01
1.338034407131935555e-01
7.168583780396785288e-02
6.021664961169606589e-02
9.203843930734958989e-02
6.728219437412875925e-02
9.356363341105752851e-02
1.386399405374491856e-01
8.108369760046620078e-02
8.190670627974977469e-02
1.206850102590378698e-01
8.218652376126310555e-02
9.999953647350685870e-02
5.775829804510532184e-02
6.197875223432862402e-02
4.150903616058927020e-02
7.326271310958849814e-02
7.219041705262704833e-02
7.742885213455329152e-02
6.728740544794589717e-02
4.870286555753131075e-02
6.801866987356097738e-02
9.446617240653459868e-02
5.295330746528658511e-02
8.152554584154207001e-03
1.748211158611274671e-02
5.346678588526657117e-02
1.962846996676287023e-02
2.980567246090680411e-02
2.842025459742367199e-02
5.576066394596362191e-02
9.112754547912375880e-02
-1.392511365485547131e-03
7.388871243193007032e-02
7.256391437885273410e-02
5.126530170708482048e-02
3.724187309886646535e-02
6.665215358106793553e-02
4.596730307035146179e-02
4.000236453327942615e-02
-8.737471233175614360e-03
6.017418133129785740e-02
8.923204173867232969e-02
6.619897219073814232e-03
2.322331856944198289e-02
3.710204833825919007e-02
4.440488175747942662e-02
3.301671490607933912e-02
9.448262260782244737e-02
1.183903615764764772e-01
6.742970854428545491e-02
4.332585109635309073e-02
7.067769124768595590e-02
3.501136556965100260e-02
6.528061131765784675e-02
9.118109335864067744e-02
9.774847996520874549e-02
9.835269024484151468e-02
7.121627143700487439e-02
9.307555226097524725e-02
8.257765994470164794e-02
1.235972760838477957e-01
1.140135191857737235e-01
1.556277715408927176e-01
1.202110069539176207e-01
8.928128359286142957e-02
8.325563954699269353e-02
1.290145825505523702e-01
5.901501417845963354e-02
1.214473310684975604e-01
1.207702970176694618e-01
1.188431160205131731e-01
1.516604170403922369e-01
1.208399745778854228e-01
1.088450487457803262e-01
1.751245196272548099e-01
1.534392644144533246e-01
1.783012641302343382e-01
1.770876131046218716e-01
1.911236731768850561e-01
1.847255022342181863e-01
1.986187723740150401e-01
2.345184660151654610e-01
1.958833037184769810e-01
2.046308186104783822e-01
1.928048904403363850e-01
1.340033078772960573e-01
1.877559811199382145e-01
2.329053986767178896e-01
2.077105192158348879e-01
1.790281768958313924e-01
2.049583670694426762e-01
1.607457390065324399e-01
2.152271959042220684e-01
1.806122970177901632e-01
2.014541636704011429e-01
1.676072120125487175e-01
2.073965456461148715e-01
1.328730725052030270e-01
1.975938779387196031e-01
1.952182177071317415e-01
2.063330110387527616e-01
1.379138539014456988e-01
2.367188991939667697e-01
2.853508357188357936e-01
2.751215848903055816e-01
3.449338668658111784e-01
3.922122886654254570e-01
4.135623259892894921e-01
4.612078179196809624e-01
5.080021624453678886e-01
5.718416052112291759e-01
5.954904296012973886e-01
6.542158594810754124e-01
7.225277542030227318e-01
8.372768161535028009e-01
8.622002147227846303e-01
9.485095551226099264e-01
1.012141478659422278e+00
1.094061169876846984e+00
1.165807234967835226e+00
1.217073107691386324e+00
1.187454759245010427e+00
1.284489364370587694e+00
1.294994766869705272e+00
1.312449893662148481e+00
1.296238730947756990e+00
1.269712320699602603e+00
1.298732519637348481e+00
1.228956792636637596e+00
1.227380368179712633e+00
1.137139449529021018e+00
1.078336361033372492e+00
9.928386009335282703e-01
9.445944218273368831e-01
9.022049997936252286e-01
7.995976224755876327e-01
7.396561214759174163e-01
7.144409970716655289e-01
5.652446090319385164e-01
5.130034712324387236e-01
4.947780509398512216e-01
3.842479905955016317e-01
4.064046927936917353e-01
3.279878712049537626e-01
3.048272191695273192e-01
3.153645508961232524e-01
2.286726692779689485e-01
1.874424389171256977e-01
1.685490227912363193e-01
2.290127803343710577e-01
2.372346125681739637e-01
1.739519213459458369e-01
2.344326231546044470e-01
1.987605689727867109e-01
2.016358425867474935e-01
2.291675398627361360e-01
1.499319162039760012e-01
2.255139566383881355e-01
1.541151125486748263e-01
1.643525447594254563e-01
1.732211084219259511e-01
2.389271820957034331e-01
2.451650673202579456e-01
2.561409186560790752e-01
2.329695861527934786e-01
2.273570305028582150e-01
2.581324043236189469e-01
2.430785526970058730e-01
2.580062916637563264e-01
2.537872593804677557e-01
2.584048455667836697e-01
3.250317241293949611e-01
2.949564492585779463e-01
2.858196804466869856e-01
2.633796070568799608e-01
2.799260284512074537e-01
3.105337797350297135e-01
2.893464466113781497e-01
2.743783241083133650e-01
2.387187149685389143e-01
2.797148675644776650e-01
3.130845153828452632e-01
2.562771007535071255e-01
3.392835329942633926e-01
3.037241847721494636e-01
3.390992162793016185e-01
2.950738563995199959e-01
2.315691247005746412e-01
2.855113350425942942e-01
2.769638254469405370e-01
2.704201329584575708e-01
3.095066732058091574e-01
2.666096701922885392e-01
2.490733001445004091e-01
2.714881556604905044e-01
3.133484357067978232e-01
2.780886266844728727e-01
2.563071941831990830e-01
2.684504654082919828e-01
3.103650246122968692e-01
2.889395339998834800e-01
2.869605881941979519e-01
2.815244026992483328e-01
2.140113806751061110e-01
2.559192747676291568e-01
2.856636933835842163e-01
1.855456959156500940e-01
1.884381677898480101e-01
2.098750237967461074e-01
2.151379345710326962e-01
2.340078626757686464e-01
1.890964583532337984e-01
2.381861222122855226e-01
2.851269822534805432e-01
1.960598474203055219e-01
1.658715140613946093e-01
1.902424709212764964e-01
2.143507773922464499e-01
1.975556098421174800e-01
2.100798993618461508e-01
1.745815924433108679e-01
1.877712490339322748e-01
2.499664723183164239e-01
1.560915364881864664e-01
1.629240143495086501e-01
1.719842670851771116e-01
2.287046177316417739e-01
1.748295893419137548e-01
1.477530237952210390e-01
1.263339153758528677e-01
1.762166835120163866e-01
1.289860967048486184e-01
1.731787909870521058e-01
1.155373973862215964e-01
1.016029801765632734e-01
7.201033160924873167e-02
1.274323233175925496e-01
5.412546141729893817e-02
1.426385018985522612e-01
5.861403012749840519e-02
4.389201583168838433e-02
9.411332478093861753e-02
1.212033706327007021e-01
8.617855866849327695e-02
1.099546180826853625e-01
9.403933830205085664e-02
1.024983120331832837e-01
1.269273759291371095e-01
5.625210681770782123e-02
7.992268197266200191e-02
1.469288046999343150e-02
1.123851695500221598e-01
5.931276034456858803e-02
6.946830900580056034e-02
5.645056213064508777e-02
4.425958308728791812e-02
8.580723678848112268e-02
7.883539139245407390e-02
4.391224536111330845e-02
1.113082620595489125e-01
8.380379748323221745e-02
1.054274488971666535e-01
8.167253557746917414e-05
3.629282419392548115e-02
8.343305261577055321e-02
1.675090304590694940e-02
4.030314096715709171e-02
2.114902763057435048e-02
6.335265107982197830e-02
4.054188157404745724e-02
1.988475332847279911e-02
1.017287881112502596e-01
6.875864249373414561e-02
6.766361386850971993e-02
5.429638116893800714e-02
7.362778991381743743e-02
6.423962832709531612e-02
-7.307550131777897084e-03
1.056186675600483404e-01
1.003497402689678408e-01
3.385462393742034309e-02
-2.603412715257873156e-03
1.444923657908378511e-02
1.517878119950649002e-02
5.563378261712222800e-02
3.422288106650329953e-02
2.803306793524296125e-02
6.496457779865538740e-02
4.271260246339329825e-02
7.464731225836525319e-02
4.425586907916807811e-02
9.656316060116051925e-02
1.129205336337188170e-01
5.269057630498898137e-02
3.591401048955916026e-02
4.333731580788319215e-02
