1.303671715332970438e+00
1.343049515449737497e+00
1.282484760138745683e+00
1.209670360737517436e+00
1.241841383522680475e+00
1.169147747203073795e+00
1.098726712696673991e+00
1.016085389994631827e+00
1.015904274358047754e+00
9.591700913095712044e-01
8.173818676008282047e-01
7.757883080265953746e-01
7.109223798309013409e-01
5.791109655543653645e-01
5.675255409991083466e-01
4.585355058537197714e-01
4.572157469062204105e-01
4.780320255176692679e-01
3.245670509297339246e-01
3.877171902907581291e-01
3.534220844273794349e-01
2.736906404542937543e-01
2.676970544939270558e-01
2.263588502297688154e-01
2.078474233004665439e-01
2.170876903217692222e-01
1.803448204387765874e-01
2.128280025545521426e-01
1.969823548476778985e-01
1.625189919424209761e-01
2.160124799255844774e-01
2.180968974083042911e-01
2.318938381365036050e-01
1.866726428987466324e-01
2.353100357219851668e-01
2.732046204818723845e-01
2.131306250300673555e-01
2.200223722225679579e-01
2.411573680763270389e-01
1.602184391031580557e-01
1.886063058042460328e-01
2.174397123119596320e-01
2.280422872432996406e-01
2.458650221319558238e-01
2.546342503138891433e-01
2.094157193927915772e-01
2.890175910624629418e-01
2.681277747770410835e-01
2.634381229815657699e-01
2.796830660188320827e-01
2.496306824106566402e-01
2.638492527093049267e-01
2.412184605102419277e-01
2.100434151631171975e-01
2.712989016197825953e-01
3.321093533387519670e-01
2.650384070278710147e-01
2.368664742827956138e-01
3.017125647599478988e-01
2.713439337424007891e-01
2.994878117875578449e-01
3.065770066816251305e-01
2.716646445451215697e-01
2.991341289229785816e-01
2.851781039890712854e-01
2.264793991970950049e-01
2.687760163961395721e-01
2.583458580037129027e-01
2.364495943239677822e-01
2.544663262823236294e-01
2.979528953856319662e-01
2.759156827226064146e-01
2.172548186708573303e-01
2.367937108756769382e-01
2.675393374617293096e-01
2.637372260644074151e-01
2.507444694452444778e-01
2.792891231139957298e-01
2.638974161570140642e-01
2.316471400408290360e-01
2.243228465876928590e-01
2.341732562351537261e-01
1.732095299397806154e-01
2.398421745845211728e-01
1.886305722168057641e-01
2.577515674850950900e-01
1.651546672712407848e-01
2.225704571116761121e-01
1.466468469316317136e-01
1.818612934604697806e-01
2.079006014334403019e-01
2.183310316477430069e-01
2.115766916933903841e-01
2.009349357188994212e-01
1.990182592454309285e-01
1.963245060692676014e-01
1.476576799205327750e-01
1.478226156989836115e-01
1.744370319724592444e-01
1.818930044749635377e-01
1.392023889164472061e-01
1.226361215787805103e-01
1.167757501130395337e-01
1.041310673925360253e-01
1.383611413928003686e-01
1.536786517031625832e-01
1.297476036061985250e-01
1.102762451379376146e-01
1.640917863887363659e-01
1.026211299519211584e-01
1.402311062640079764e-01
6.229014022417314611e-02
9.770155566614588394e-02
5.808958847345500887e-02
5.640386213926470993e-02
5.637712081274252884e-02
7.932976914986261674e-02
6.039950228397390763e-02
9.140898782120345650e-03
5.525919173026675596e-02
4.675294040624290715e-02
1.037179591054678690e-02
7.385247340093313573e-02
7.777181343402542191e-02
7.397839528765705330e-02
1.043465932971119198e-01
1.747176663557191770e-02
1.620211989311763287e-02
4.618951561799561345e-02
4.185117373843041944e-02
4.773324532952390176e-02
6.720726134245938455e-02
3.295406723538582550e-02
7.021140600900013795e-02
1.477773202241363694e-02
2.149268179773190443e-02
2.246935947612691692e-03
-6.779517641693133534e-02
-1.889436086614964400e-02
5.961069527081701291e-02
6.508312010700793848e-02
-7.029897975653294495e-03
5.871725404902429502e-02
-4.255309488535877205e-02
-1.022578403634139682e-03
1.561713382230776360e-02
6.108101473937214976e-02
8.359254049049623381e-02
1.554557247298344810e-02
2.753933552362977655e-02
6.108386773834886124e-02
9.768929227335244880e-02
6.641270427142179078e-02
-4.878587120445223441e-03
5.849138253957340827e-02
1.376481864589330570e-02
7.625381568106240349e-02
5.444561484897252751e-02
6.159815703007758686e-03
7.155105335403641464e-02
5.598270917093489674e-02
5.395416119923435172e-02
4.496154577979492861e-02
3.058755503393656774e-02
6.722771510930952710e-02
1.173445037964587351e-01
1.113068463803662533e-01
5.146579819115897070e-02
-3.012889814294018864e-03
4.694841964964237974e-02
7.118852449276777405e-02
7.894330995468226697e-02
1.010608456972726388e-01
9.974191655885081276e-02
1.041512879017208043e-01
6.698782132206793083e-02
7.445193584127854369e-02
6.191822733302458637e-02
1.064268772598480350e-01
1.288765090802412028e-01
1.392895119858949537e-01
3.624903345669104604e-02
1.298475997321706654e-01
8.863859752510636070e-02
1.416801552966333311e-01
9.646943977400790349e-02
1.537760782765541234e-01
1.159601938691236234e-01
1.200443656916565238e-01
1.661669798776473084e-01
1.285053606347293931e-01
1.765501981011521893e-01
1.724999701365284577e-01
1.490689922062520545e-01
1.406646764384349990e-01
1.941104781396759682e-01
1.819679633351767578e-01
2.072847376242058504e-01
1.063798783546148208e-01
1.503796113717720817e-01
1.455545378033550885e-01
1.745700627870065691e-01
1.306182659403586355e-01
1.347223743090454340e-01
1.601791733877599710e-01
1.029187589725457930e-01
9.951542466685711630e-02
1.577384991751890064e-01
2.430603552276492385e-01
1.703017873847820496e-01
1.606197970550940768e-01
1.918247595411316508e-01
2.055734577658715478e-01
1.965411184970460579e-01
1.955659895728830977e-01
1.880382055060627611e-01
2.855827433423238082e-01
2.725737954738174373e-01
3.340628167936373072e-01
3.899450646723019998e-01
3.928506623291920796e-01
4.072870103352854154e-01
4.988233279341633408e-01
5.600901207084746369e-01
6.428898665166231652e-01
6.774559822003755061e-01
7.447317643389862463e-01
8.216269485471109357e-01
9.136578289242933693e-01
9.967831871907614216e-01
1.103415047284619588e+00
1.149620829923333920e+00
1.139210598966860166e+00
1.164792007917741623e+00
1.201200069442535545e+00
1.203468958812493828e+00
1.258211291272903987e+00
1.224719919074620966e+00
1.209468276038444090e+00
1.188322575055001940e+00
1.212387039185908844e+00
1.139722335116921892e+00
1.049309117079545439e+00
1.057580433006257703e+00
1.002372813230568260e+00
8.845123253958712128e-01
8.042821159433984901e-01
7.304922005356228043e-01
6.943406913137991632e-01
6.455900182151692590e-01
5.583973435179013789e-01
4.521909196462565173e-01
4.684911113156458029e-01
3.841719758829553744e-01
3.344771042543224215e-01
3.136698960505818201e-01
2.977010951248229009e-01
2.030981524889074463e-01
1.727412370807697717e-01
1.917544691588754235e-01
1.763501893685605337e-01
1.923266359935928149e-01
1.942360379431609108e-01
1.347360075696694137e-01
1.555736566814484578e-01
1.572959446806344308e-01
1.595618640788548648e-01
9.482766457634557444e-02
1.607233201874525008e-01
1.225270079392449113e-01
1.676321610539323603e-01
1.192330882182182084e-01
1.594874391149798121e-01
1.524683314811741131e-01
2.298278757114713966e-01
1.433010287143905714e-01
1.453512017628845465e-01
2.227269832847916797e-01
2.084855109693512509e-01
1.943717468854765373e-01
1.757415678453687624e-01
1.595229962206747287e-01
1.849252149344323970e-01
1.854427329954963788e-01
1.839934446730421835e-01
1.929930001476893031e-01
1.947475571101139336e-01
2.434085932820227727e-01
1.754564019286738163e-01
2.315826228155789257e-01
2.301240445979712834e-01
2.221560892763789208e-01
2.459464387976532662e-01
2.403563381471544858e-01
2.317890197159011012e-01
2.628850114141441652e-01
1.568554452757016660e-01
2.967418772471520638e-01
2.664197100327433398e-01
2.829318360946009858e-01
2.046323263239455403e-01
2.324782603661444680e-01
2.388208372219381426e-01
2.171934357052648090e-01
2.322967832952650691e-01
2.331008708395369555e-01
1.872748427629702672e-01
2.432966804877490230e-01
2.383363247817949226e-01
1.955471379489528705e-01
1.739427743461451070e-01
2.136127168092666340e-01
1.817544281507823545e-01
2.115422262763940742e-01
1.758742025113151641e-01
2.406175129474129870e-01
1.709098221475929824e-01
1.603984764043680789e-01
1.834683663560522926e-01
1.301872115672585428e-01
1.474451017760680382e-01
1.188990907461981855e-01
1.700146207394586939e-01
1.864555877969540088e-01
1.406406981378882926e-01
1.860069696574726539e-01
1.176696270401826616e-01
1.239470629296058612e-01
1.595238373886306016e-01
1.488901352684360302e-01
1.358263893244561760e-01
1.501732199835346948e-01
1.100920640691779029e-01
1.155180734811822041e-01
8.082869518615257154e-02
1.539307074040341672e-01
7.759149971721596151e-02
7.971884688939102903e-02
8.748466220973824536e-02
9.638290394439046060e-02
9.133506195963805863e-02
-1.429049543241464257e-02
1.154513196543458797e-01
1.062974936357066746e-01
9.124505848374291073e-02
5.385444150846778466e-02
8.279076416181499476e-02
4.924258969020788024e-02
4.501046274946869652e-02
5.473311833606078758e-02
4.647965171248536614e-02
5.741213867889084776e-02
-4.121966422341712122e-02
1.743462983196240185e-02
-1.963993213436980578e-02
4.193173351334281151e-02
-1.622579956013379260e-02
-8.590365897428314801e-05
3.387102573589519106e-02
4.253217199527915826e-02
2.738745493665428743e-02
2.122345481618813021e-02
-3.914103597637395848e-02
-3.608084259309050912e-02
-4.771410287831893970e-02
-4.101137927622702795e-02
-6.310901094025000296e-03
1.748667494805550976e-02
1.585667372842278905e-02
-7.117202856161020108e-02
-1.804240826275438359e-02
-2.640412852841700700e-02
-8.883743187264950270e-02
4.532810661029673671e-03
2.745999823246692007e-03
-4.040177152538185212e-02
-3.222123402123566738e-02
-1.924157410372197979e-02
-1.176906526799096492e-02
-4.412474979296343580e-02
-5.081867346311128020e-02
-5.790657225485427995e-02
1.915551958716979475e-02
1.099847373124195754e-02
-5.832810919343851125e-02
-5.228592725973820604e-02
-5.696906901916440336e-02
-6.931902786972493624e-02
3.427008008894100871e-02
-4.565387385711130314e-02
-6.284237312773055528e-05
-3.209312793474835418e-02
-2.745928755497118248e-02
-2.833028949601778049e-02
-7.268269768288052046e-03
-2.230905749588435114e-02
7.293996982355152592e-03
2.146052335397436589e-02
-2.977672905227465167e-02
-2.828642253147599372e-03
-5.557496279852718740e-02
-1.965981416153062683e-02
-7.062563489993178845e-04
-4.303027326903317851e-03
1.495248304537913353e-03
2.352411836047323124e-02
3.321331124023282899e-02
-4.874423144432164096e-02
2.425570359558686800e-02
1.318997635143426272e-02
1.217283091673430212e-02
7.260859106285882936e-02
-1.777379031159564277e-02
3.761100000419582284e-02
8.671380042740124694e-02
5.007971534197500074e-02
2.381864307401403147e-02
5.021388662111860024e-02
1.142011485695585138e-01
1.005347056338020406e-01
5.406799830198877332e-02
1.197830124477775038e-01
9.685374087387071951e-02
5.311391673563731208e-03
8.206314051732280235e-02
1.434669331718114171e-01
8.724708945879484923e-02
1.405582997609222118e-01
5.462833226495290850e-02
6.083901566414062767e-02
1.362294861113524935e-01
1.296580912259469309e-01
1.048453013566193609e-01
1.329228759732163645e-01
9.000841136732043446e-02
7.465179002757604820e-02
1.204490949342531536e-01
1.004434872589281547e-01
1.216105420751024957e-01
1.152986457324004788e-01
9.908701908652389756e-02
1.658744667941949857e-01
7.875601852242862522e-02
1.155478325248738419e-01
1.099946145153643529e-01
1.248916896982432134e-01
1.213157911880793360e-01
1.582816901008426425e-01
1.433769000598876242e-01
1.251565689798119219e-01
1.275877306086127538e-01
1.525390894891890670e-01
1.724359024180815991e-01
2.428352636864005709e-01
2.504678633877597260e-01
3.004186429176475270e-01
2.881815127770412932e-01
3.664026734889624382e-01
4.420578212221496495e-01
5.154703287645416854e-01
5.009357067123690888e-01
6.575545587630799993e-01
7.216151543291551285e-01
7.784780755870883695e-01
8.558176187940851332e-01
8.752681983983603420e-01
9.287084443381642407e-01
1.016821022305849365e+00
1.078935029822480018e+00
1.099237856545844494e+00
1.174844758925707389e+00
1.228552806382045448e+00
1.231271739911494967e+00
1.212450927231716991e+00
1.132708431420146544e+00
1.143133868632026484e+00
1.158573283455244018e+00
1.142546904934574226e+00
1.033319928176300806e+00
1.023705061197299315e+00
9.806666079255522694e-01
8.911415701099865139e-01
8.051252150719127032e-01
7.084872206286262353e-01
7.054009732025738888e-01
5.932965168566113334e-01
5.956802069871784955e-01
4.886235095843984855e-01
4.358556353762776947e-01
3.962348235366814908e-01
3.121620908018045704e-01
2.945484770537188379e-01
2.239435524832059654e-01
1.874915995376982281e-01
1.574302808861596514e-01
1.480636914107076041e-01
2.067462038932632584e-01
1.039655348295422110e-01
1.389543925470076435e-01
1.061187683419115013e-01
7.373092875617370812e-02
1.285360913846776421e-01
8.841014738390598482e-02
9.026453201347367505e-02
1.374275287246449484e-01
9.925941182880643199e-02
1.167308063521262929e-01
1.126090725683096677e-01
1.144518609366782652e-01
8.179600821047648684e-02
1.514350615830158120e-01
1.367914545575368845e-01
1.590442586776190936e-01
1.426055401479335016e-01
1.753222691352869789e-01
1.526244848023589062e-01
1.935986631251070400e-01
1.295189469539541616e-01
1.370958414038994655e-01
2.184141244724122077e-01
1.934446383887138687e-01
2.282613370363409111e-01
1.941594419082659229e-01
1.707117718206997425e-01
2.381491159679784697e-01
1.304335913843314154e-01
2.116184313446312359e-01
1.138227625681156596e-01
2.373621761065793367e-01
1.632505723379505391e-01
1.865424941010220272e-01
1.681051748223722497e-01
2.159996626137454245e-01
1.935412417003785357e-01
2.411246138030442299e-01
1.801918043180215090e-01
1.645628076999995359e-01
1.856108742806644729e-01
2.483473047888806184e-01
2.296997693604740653e-01
2.320390468685468721e-01
1.794648778871664185e-01
1.548043989497706885e-01
2.351829912501675335e-01
1.490969502336853270e-01
1.882487672523443789e-01
1.655173394629569639e-01
1.849103882924859610e-01
1.283291354752698898e-01
2.018729684699998028e-01
2.140138220130954894e-01
2.005973080042544321e-01
1.320527362649759617e-01
1.744752859781565635e-01
1.521671785871098193e-01
1.530017673707617099e-01
1.983882650732809450e-01
1.310204201843356009e-01
1.598186097471233358e-01
8.235848859826042090e-02
1.320623650920765280e-01
1.529580754024737477e-01
1.155951486569930381e-01
1.335772871930704375e-01
8.581768847176546311e-02
9.113214316881915189e-02
9.605776900585195899e-02
7.880757608755939447e-02
1.170345523956445588e-01
1.179047323987764684e-01
9.960547498965960367e-02
-6.610149778107782259e-04
6.091040553229189192e-02
9.094668748031270455e-02
5.607857291218883156e-02
4.968749267470697756e-02
7.989177616287880535e-02
7.699222051405987810e-02
6.101133578598327833e-02
-5.835430304365729626e-03
1.118103966087267975e-03
4.246779054277235316e-02
-3.563949888771310998e-02
7.217615899482254793e-02
2.340323167047729525e-02
-5.343318898769655600e-03
-3.584670379398670337e-03
4.528138275700402393e-02
-3.188409012076708765e-02
-5.482408248946931545e-02
-2.984535743408566616e-02
6.024422551926561509e-03
4.256112231287928482e-02
2.847725834235438624e-02
-2.355045765805902774e-02
-4.264388993382835225e-03
-4.498515616448463261e-03
-1.035146552771108730e-02
-7.803038405242847253e-02
-3.019917431727170073e-02
1.193498676857689123e-03
3.184095389085062761e-02
-1.371000981800242491e-02
5.737039140706536033e-03
-1.872822884396947718e-03
-4.096141239822236740e-02
-7.074063779775757732e-02
2.266219462297276721e-03
2.297277379873766123e-02
-4.609112202861756491e-02
1.595215624534240817e-03
-3.027468409222070986e-02
-7.672260457866925121e-02
-3.437194212121816306e-02
-5.318169366797283193e-02
-2.310727365925385746e-02
-2.457188584184954658e-02
-5.596887841460664037e-02
-7.582040312911469959e-02
-5.018304803668103414e-02
1.030235766676253911e-02
-7.104725597953749638e-02
-1.362194644502914831e-02
-1.681299976159008475e-02
-5.060625416827051887e-02
-5.850134235670128441e-02
-1.441768148394851831e-02
-3.196237290142655424e-02
-4.496645838408060147e-02
-1.430986253438695788e-02
2.188210280396543639e-02
1.200988038297460397e-02
-1.944307493310831747e-02
-1.226561438727265529e-01
-2.619248324242540518e-02
-4.674563773331008587e-02
-2.016846505495748648e-02
-2.179183161775335303e-02
-1.786314920859292249e-02
2.700868217088386175e-02
-8.837536346933551334e-03
-6.692127681411801088e-03
1.936005918586767433e-02
-2.288479333378162089e-02
2.639128827562960133e-03
-2.426242243877705512e-02
3.973187990014968168e-02
3.232220528837213835e-02
9.186544001737527443e-02
-1.468744125174878401e-02
6.801339174431481061e-02
-9.053850090515395965e-03
1.834399795235696490e-02
-1.147548410434636595e-02
5.962846150262966771e-02
7.036121702875103301e-02
5.707418167806888737e-02
5.659840256285172955e-03
5.959021474425901105e-02
8.365767065491165611e-02
5.639356062304208550e-02
8.684484425116573147e-02
1.237602379553497389e-01
7.753393624008747542e-02
6.529274916367541759e-02
9.836130997040209989e-02
1.578479964939221714e-01
1.208271627755212324e-01
6.238037920793225444e-02
1.500172695194506300e-01
9.829089434142325443e-02
1.047881010600101026e-01
7.395446086084600523e-02
1.176604675438990971e-01
5.499686645892826187e-02
8.012424424241221255e-02
1.324398201366957517e-01
1.183760742317394865e-01
9.257489185234496487e-02
1.103964275282668661e-01
1.387919906640487921e-01
1.319058940992970941e-01
1.440075661023860754e-01
9.374950211540533651e-02
1.153136045209306182e-01
2.040784961815861887e-01
1.463684623677679042e-01
1.599803346009008864e-01
1.966742321824503370e-01
2.230200806391381962e-01
2.145051767568080525e-01
2.027536056918395058e-01
3.060301499117771273e-01
3.587456746355179860e-01
3.552841828262339741e-01
4.706069830399331466e-01
5.317434964182271573e-01
6.141522720211044506e-01
6.187337904627369101e-01
7.317408015810928923e-01
8.074366963601796732e-01
9.050842898800688374e-01
9.543241780565213661e-01
1.025000389264331790e+00
1.057317221897462023e+00
1.091920662863907987e+00
1.188119049551538353e+00
1.147038119763251762e+00
1.255465822593063274e+00
1.246787250167873840e+00
1.214622854064909996e+00
1.166987501516285608e+00
1.191092129741271544e+00
1.141901390828586438e+00
1.071393712557582090e+00
1.051020155733477068e+00
1.037352030817035864e+00
9.464180029358512103e-01
8.719284780019616043e-01
7.622127078036359249e-01
7.331021461747081469e-01
7.157960271322503232e-01
6.017326179694822974e-01
5.249031879857367633e-01
4.973642012772688248e-01
4.568012055366623692e-01
4.093513871569225970e-01
3.328217920653044337e-01
2.333131613359002154e-01
2.778623752015502713e-01
2.070850840668662374e-01
1.787338288915564510e-01
1.455002271738944364e-01
1.752683025599658939e-01
1.756168885515557165e-01
1.179545000430593099e-01
1.510812740974235013e-01
1.608993674059590040e-01
1.369595918725634021e-01
1.256431082519492148e-01
1.219939429830297212e-01
1.088488449907116101e-01
1.541497085389273991e-01
1.689052003360005383e-01
1.425459755241435533e-01
1.294783996786061653e-01
1.620431137185744941e-01
1.248256247633904858e-01
1.943658605213982593e-01
1.956470488992074763e-01
1.810764762998965105e-01
1.580449640305023051e-01
1.697996527319943216e-01
1.279049536217339023e-01
1.615776422734830631e-01
2.109210577270058673e-01
1.698483538048470298e-01
2.686603121155808349e-01
1.859834831688959578e-01
1.766841721401257170e-01
2.180658019157523109e-01
2.226357533632292163e-01
2.551389717531825641e-01
2.092671362583893302e-01
1.928352172232729311e-01
2.042815822677540305e-01
2.599062090521049306e-01
2.748127335128531801e-01
2.091977383814699054e-01
2.238311852352719844e-01
2.707846818069146178e-01
2.520476170017554862e-01
2.127467646296787585e-01
1.949310861001546658e-01
2.101033423462546901e-01
2.546787974009525057e-01
1.837178964360594025e-01
2.336301158892869212e-01
2.153356244794794594e-01
2.028593622145782038e-01
2.084706225961827641e-01
2.473371092698215534e-01
2.348265267596497119e-01
2.474308073702654875e-01
1.892813754662840964e-01
1.604146944472716885e-01
2.131686915960768203e-01
2.039367880244963016e-01
1.861263511907844947e-01
1.377645411387285190e-01
2.191713401356065460e-01
1.008060140060885318e-01
2.065495976303500236e-01
2.009350143141878930e-01
1.946997284186993971e-01
1.701386114353885814e-01
9.933524494671513994e-02
1.147602296794876658e-01
1.331802301325696047e-01
2.089631954151606741e-01
1.773866169228112133e-01
1.384725841952136050e-01
1.207099313087862530e-01
1.382790676869395941e-01
1.548975331169588909e-01
1.337400586591418195e-01
7.824584423522888688e-02
1.583183427746799044e-01
1.250439927343925672e-01
9.082370703722070227e-02
1.120552182242754019e-01
1.334394953863052014e-01
1.041983047865760459e-01
1.015855278249416516e-01
1.301527585431684619e-01
6.135177649814289869e-02
4.737851283474854569e-02
5.897030984126311326e-02
9.455905470649463018e-02
9.437209137304103379e-02
6.693644376040797095e-02
3.326347978207380013e-02
1.087856884235174904e-01
1.737190852538264205e-02
3.542278795444538109e-02
2.511609014923694636e-02
7.528480069450452228e-02
3.546366061978254575e-02
8.758796985358598131e-02
5.982787068790366286e-02
5.576549507154626543e-03
2.181461287651302594e-02
1.323797067074946633e-02
6.882433745201783915e-02
5.085771548335330655e-02
-2.383208188253485571e-02
3.789525019949176177e-02
1.875651196894889336e-02
-1.901470760911477820e-02
-6.852849870778802630e-03
1.028117001713758395e-02
-5.073080447880212035e-02
2.131732056689977783e-02
1.632958282186808968e-02
5.353536018091681684e-03
1.335400771530470022e-02
4.878402863900953811e-03
-2.258535276244117915e-02
-8.514113750853638182e-03
-1.294663509532959465e-02
2.901248748600557953e-02
-2.199906831185796316e-02
-6.670073656499762860e-03
1.074315101121995318e-02
-3.564056467993734906e-02
-3.350882405607266863e-03
1.135070585295615969e-02
1.574265307716962020e-02
2.181082800211702616e-02
-1.085035409191093848e-02
-2.000544534701611046e-02
-3.201175854987622915e-04
2.059318685220855316e-02
7.237835826120404478e-03
-1.622830787434647801e-02
8.518728000646959286e-02
-3.350635584388432422e-03
-1.765449991040753466e-02
3.249370705213578195e-03
5.238674943725238342e-02
4.583342253875885564e-02
8.470829083653437508e-02
3.439546463734672113e-03
2.750041434927541148e-02
6.992189065997610198e-02
1.118409487973827214e-02
8.076314810268939159e-02
5.050273479770586715e-02
2.915796177993225727e-02
5.449895082161065885e-03
7.657030803256613394e-02
1.093103032035165206e-01
7.947751539559097522e-02
8.555463185524224412e-02
8.605793660455769711e-02
1.104075363459351700e-01
1.242011352978220351e-01
5.599008362551576370e-03
8.730491201520318434e-02
8.313961796048073560e-02
1.121371678595056015e-01
9.934041272558510882e-02
1.292966992654570879e-01
1.305873717316307359e-01
6.761656188187617489e-02
6.420257311114851984e-02
1.564374253619305044e-01
1.128863785741973935e-01
1.932484426483301876e-01
1.709030832925201304e-01
9.510149006019114060e-02
1.279423429972871840e-01
1.619041544440965597e-01
1.438814942183775369e-01
1.543223779079022084e-01
1.282195518886254382e-01
1.734563319582477781e-01
1.650133478919094676e-01
1.881466809355049341e-01
1.648258718656070154e-01
1.480006211799632654e-01
1.714092271841019255e-01
1.785458507173511844e-01
1.681038461173683385e-01
2.054311117912144269e-01
1.368660169370830015e-01
1.980530756192388497e-01
1.363066194924832664e-01
1.955822159966430773e-01
1.187736614821345849e-01
1.775682660200821328e-01
2.233538065716577092e-01
1.930296395097113038e-01
2.160485573253451419e-01
2.442339249004284174e-01
1.873135668716583158e-01
2.913735929912230072e-01
2.840509676593490074e-01
3.762242869291128611e-01
3.855181066464813955e-01
4.426600761986609900e-01
4.501643513786124928e-01
5.661969059452303110e-01
6.023201636656797531e-01
6.228246308246310203e-01
7.205854841354800699e-01
8.256986560660983798e-01
8.798347901059867526e-01
9.663594098292703771e-01
1.000860118459651060e+00
1.110582066204493179e+00
1.173214420249077961e+00
1.127604762650590953e+00
1.238413159291406052e+00
1.296704167731989710e+00
1.285339068714359545e+00
1.277950142170076298e+00
1.235916232780360335e+00
1.251206635064523898e+00
1.218901847091463653e+00
1.223875654002140267e+00
1.181284325548873415e+00
1.092342294146999127e+00
1.008252383141825526e+00
9.073905107258074532e-01
9.201151489808305772e-01
8.471418087360225169e-01
6.988556439001822884e-01
7.078862513660932887e-01
6.517469161191524751e-01
4.798752255375998699e-01
4.734230978576171034e-01
5.244944571787670817e-01
4.036734868483715655e-01
4.274032583342193825e-01
3.283451081989691156e-01
3.226929996029990200e-01
2.535113589058510808e-01
2.204371678808113022e-01
1.746548987283992604e-01
2.247989339792794417e-01
1.725171012551963978e-01
1.616173974215760201e-01
1.385267981956709582e-01
1.834314952134643573e-01
2.041278547853326852e-01
1.744276171720120783e-01
1.732381706473667959e-01
2.312884698568793140e-01
1.400732150684517174e-01
2.464364199718094284e-01
1.557097527070396836e-01
1.969817304664467916e-01
2.161888195252935629e-01
2.391921084022733679e-01
1.665656003246312744e-01
2.242663351185637810e-01
2.055861884945982265e-01
2.585434674116295906e-01
2.144800738696573394e-01
1.796564677274477551e-01
2.531392702731248279e-01
2.454550051927839038e-01
3.037177741167709222e-01
2.832192368117764092e-01
2.317158341104048613e-01
2.907750332069128363e-01
2.678108945397056351e-01
2.893880031982111745e-01
2.481206405134296911e-01
2.621167375681587863e-01
2.953839279657260453e-01
2.999093328722239882e-01
2.166678539832860850e-01
2.988602363244205473e-01
2.574934266839360442e-01
2.909444284275066184e-01
2.350774175556065715e-01
3.117145588414185209e-01
3.057271355478680674e-01
2.606570779422094919e-01
2.971525867485463879e-01
2.833998120391086895e-01
3.017830133535106540e-01
2.409830481697381177e-01
2.447198805509904485e-01
2.574757456725073612e-01
2.759722009917248142e-01
3.242967681246855527e-01
2.781063470237683521e-01
2.986580125433488941e-01
2.411423605410337456e-01
2.471861357246893931e-01
2.408006354870561028e-01
2.516577404383847916e-01
2.739495704186947767e-01
2.400586061060022702e-01
2.370621432013375052e-01
2.594401893950893379e-01
2.225546609107718621e-01
2.101445268555650614e-01
2.188161414412067851e-01
2.790440649413687413e-01
2.460427860860673888e-01
2.718171762211499809e-01
1.710171813961569032e-01
2.169493093051094168e-01
1.891989791363082041e-01
1.860992482996741970e-01
1.443519383092754516e-01
2.246750948091305322e-01
1.321129615934976687e-01
2.026001599819834686e-01
1.592582005567962922e-01
1.389565793935668425e-01
1.328946403310352076e-01
1.583811852562501399e-01
1.412803887542544989e-01
1.478744531506463455e-01
8.371950171473371838e-02
7.698502839975718270e-02
8.004657123405789498e-02
1.545760551427498020e-01
1.698955124315777998e-01
1.145905705542412528e-01
1.409863928696205582e-01
1.253440021379590430e-01
1.464083017083841198e-01
1.440181266264509985e-01
6.741538933094001762e-02
1.070429428364356172e-01
1.238514037043132177e-01
1.209816541373661125e-01
1.153003820491789178e-01
8.856913909079128233e-02
1.072252776188373780e-01
4.181370437144212027e-02
4.090416817281896517e-02
1.250466566718863581e-01
1.102965093609357961e-01
1.230934074150727697e-01
6.908145282233679740e-02
4.255618158309100452e-02
6.457816733707172352e-02
1.267317204643292339e-01
4.194599618474575270e-02
6.050934205955330047e-02
1.009547745192851675e-01
6.564593461910661620e-02
5.050135933708069236e-02
8.380188204593988499e-02
4.591836019387662143e-02
7.373162065166030676e-02
-1.373873954868753966e-02
5.513033811554310382e-03
5.050115331830041382e-02
9.708761039641689017e-02
5.178485266678221205e-02
5.486992870566899383e-02
6.375431993263039332e-02
4.383442518114948061e-02
7.932350595608886334e-03
7.698923798308232591e-02
6.453044908411867397e-02
6.717301488819427124e-02
2.390424097604636894e-02
1.036944766805031615e-01
4.569580959108245077e-02
1.023028369992173142e-01
-2.962168675580988120e-03
4.860786633278574992e-02
1.083011956605303416e-01
5.970315379218138485e-02
-8.179569673961883947e-03
3.835294127711180723e-02
7.738679001556930670e-02
1.140366053949940506e-01
6.449827028345193891e-02
1.083212948286147448e-01
8.981225529384409545e-02
6.828893015046065551e-02
1.071112032387554480e-01
1.153454199588983542e-01
8.111290905546243712e-02
7.152614335115875521e-02
4.813439516547753094e-02
1.128796010703216196e-01
8.690631380285170071e-02
1.238568579408309278e-01
1.210927075100801664e-01
1.271151865608673159e-01
1.159675290462312547e-01
8.706105970783671599e-02
1.440125039128857809e-01
1.595214974493182059e-01
2.087178834534778871e-01
1.257375679090561305e-01
1.167134705244289306e-01
1.176476552696328060e-01
1.556456783325280702e-01
1.856150822670880884e-01
1.925301400640449800e-01
2.170030771471889719e-01
1.854672325373760700e-01
1.416970149635507492e-01
1.884413547812496537e-01
1.216023500953152814e-01
1.772602317408755457e-01
1.777131310713338241e-01
2.067628583146962906e-01
2.083631111886723730e-01
1.748866512278126062e-01
1.773663807297344852e-01
2.018745373812456945e-01
2.152234550045730999e-01
2.237187804738935692e-01
1.875586412392656055e-01
2.009497246450621111e-01
1.713442506209642002e-01
1.718759415657122869e-01
1.449592189743809656e-01
1.844080997761114171e-01
2.425823005382582720e-01
2.481556092688078086e-01
2.249529148629879904e-01
2.415273173142841179e-01
2.405679995705731211e-01
2.282379086682978508e-01
1.589944531487001156e-01
3.118094374201406671e-01
2.525821841557498448e-01
2.710589689022668280e-01
3.440152799365203129e-01
3.323174270163412047e-01
4.353396526222257368e-01
3.723565376561417395e-01
4.712548485822830036e-01
4.810782112469031979e-01
5.449597878608515300e-01
5.739115351041751412e-01
6.441257711328428615e-01
7.679117572129950942e-01
8.134025526014195817e-01
8.804836537622751091e-01
8.885914380925240552e-01
9.575390710946953821e-01
1.042793694149430683e+00
1.118465667108725192e+00
1.180598052409289389e+00
1.238479967507394308e+00
1.295633465342837187e+00
1.334638580857381962e+00
1.310746283966483183e+00
1.282286591029085709e+00
1.320566291853186858e+00
1.283751566684683487e+00
1.260897641132040059e+00
1.241794664024907791e+00
1.143937155951445073e+00
1.141832869649618276e+00
9.921736331158126365e-01
9.893512147289257319e-01
8.780139734700267429e-01
8.333693464719489352e-01
7.661275020883178133e-01
6.772431945620436267e-01
6.030446753655966940e-01
5.352600489271721607e-01
5.124754229930333915e-01
4.711652744029849460e-01
4.604571412139928932e-01
3.573941694688629322e-01
2.836987915068238664e-01
3.138804959839829323e-01
2.224211050592588002e-01
3.021147182857728541e-01
2.603970986147430278e-01
1.946758309848217738e-01
1.678703302133753017e-01
1.828354451601464370e-01
2.202488957478846432e-01
1.788333425151886202e-01
2.234310783386181110e-01
2.298097799818832609e-01
1.861154055414566133e-01
2.321963359142047156e-01
2.449958898128631046e-01
2.292815886736734310e-01
2.325769692435637470e-01
2.035116086156235626e-01
2.856313577871191223e-01
1.996845775710197890e-01
2.203326925163520689e-01
2.662421143756765751e-01
2.312384543601214149e-01
2.378889081154272611e-01
2.103340292728666794e-01
2.412566808962547382e-01
3.318020370482653303e-01
2.524597597573129959e-01
3.053417391947914061e-01
2.555390271730899610e-01
2.418948387259758359e-01
2.536375858918815673e-01
3.017149473718478969e-01
2.171986189041327231e-01
3.362969589344863564e-01
3.017177186455771709e-01
2.781841966933211174e-01
2.673356472063783684e-01
2.769720890957363402e-01
3.283564865058578031e-01
2.474483782792917252e-01
2.937989464362450454e-01
3.297180936486205916e-01
2.351831208441153009e-01
2.769523621809612535e-01
2.499561310427712291e-01
2.559770969577345734e-01
3.001438180151613788e-01
3.118580019336791298e-01
2.785499769257850367e-01
2.440672083037804252e-01
2.610182729533696566e-01
2.965894626678018398e-01
2.810586824001423678e-01
2.439284928251590490e-01
2.616798405608499745e-01
2.964743212949136342e-01
2.756579536833803079e-01
2.346234100734881090e-01
2.698116082514117609e-01
2.412818038769050932e-01
2.345847541335584485e-01
2.535954937809961063e-01
2.122216003933356243e-01
2.273571384304914067e-01
2.672641505641069060e-01
3.051263060176408470e-01
1.747326052740675872e-01
1.948101008976862725e-01
2.500098889545849801e-01
1.733358895126795030e-01
2.020285728425190164e-01
2.546094540856597699e-01
1.736762232877943068e-01
1.827873828797590972e-01
1.465184234494191773e-01
2.005743619210133555e-01
1.211850162479687909e-01
1.490169818629649146e-01
1.257789262676051456e-01
1.500760277667090581e-01
2.104540746187203992e-01
1.615115683631178634e-01
1.523139483392388915e-01
1.493316198588294785e-01
1.351738344355273846e-01
1.698809158398864316e-01
1.501789301249742414e-01
8.363948440844654053e-02
1.477398237025214778e-01
1.214871301734122555e-01
1.241276117576542437e-01
4.637756892857219926e-02
1.029650754635335758e-01
9.518811829429806026e-02
7.510391150688687512e-02
1.247486131197350079e-01
4.026742410123170662e-02
1.770576175724359602e-01
4.974707376874524384e-02
9.453560637914781850e-02
8.413529618994468329e-02
1.101462465344329178e-01
1.227439323905535895e-01
5.717911294600550726e-02
7.324847477176481270e-02
5.301026368338662004e-02
3.477964713915820960e-02
6.287755584112922347e-02
5.921303076660389131e-02
5.863814001877769300e-02
4.533209907100078928e-02
6.536615461196669530e-02
7.718511205518097107e-02
1.622158824713217443e-02
6.966999832683659633e-02
9.686428040685227114e-02
1.069591270953093240e-02
5.264876682560801213e-02
6.077093486625831376e-02
6.985940836610732285e-02
7.256786946034105013e-02
8.120977233817287810e-02
4.865599209776583223e-02
1.425293703306322254e-02
3.312529725466059616e-02
8.695679754409478546e-02
1.716062963316976678e-02
5.911765524934101124e-02
6.901627638451919566e-02
6.224912543124944131e-02
7.211082187512668495e-02
4.374123220343460738e-02
4.224384039247101180e-02
1.004903143088381468e-01
1.060492710716383902e-01
9.127547033936692089e-02
6.551462665202553715e-02
3.306708499656493827e-02
5.591258354045305218e-02
4.956617578722075090e-02
8.826444243045365734e-02
6.892105712066923240e-02
7.686226476600535595e-02
6.066536728894558750e-02
-1.068071425170499453e-02
1.061941053531520462e-01
6.773138526432974371e-02
1.017222887023533362e-01
6.571528674333074194e-02
1.278736339062985505e-01
6.666332763541217565e-02
8.422775550658997967e-02
9.062607546947465398e-02
4.881132761158863548e-02
1.104003572322053151e-01
1.270331045661703961e-01
1.190062693298899743e-01
1.802044139703113390e-01
8.825693769047288084e-02
6.757930157912403479e-02
8.791081929393368410e-02
1.304749714685233819e-01
1.681730674676643056e-01
1.416231061275943504e-01
1.256712693935062020e-01
1.893386213865357881e-01
1.447603592659281735e-01
1.106491570067721780e-01
1.852553481219292586e-01
1.778549318924070033e-01
1.685942200420705306e-01
2.128138442988975476e-01
1.634571315356347088e-01
1.771094657218183765e-01
1.412623429988408841e-01
1.509298057783435287e-01
1.590315250169812011e-01
1.949412521202078807e-01
1.544825798067744893e-01
1.722290953781332457e-01
1.685825928298249621e-01
1.736739609355062164e-01
1.522238460056282161e-01
1.688557087174222537e-01
1.405407974099542601e-01
1.742709063813982773e-01
1.754415738753994647e-01
1.799997548595821117e-01
1.971185521379000549e-01
2.384141390560882423e-01
1.398225549999947415e-01
1.859435964021993182e-01
1.796384954382552468e-01
2.292716872856298549e-01
2.574567936055662254e-01
2.199982896938809107e-01
2.904543268386043375e-01
3.361268703367506494e-01
3.572485870461330482e-01
3.740128778007116295e-01
4.494778226810396404e-01
4.719538063467025868e-01
5.622776034939354073e-01
6.058449325977937061e-01
6.537430833026541821e-01
6.888526664598817462e-01
7.962632998196861323e-01
8.334120095890402702e-01
9.019528948549455638e-01
9.907369525479858829e-01
1.061483978242642623e+00
1.084863673655359628e+00
1.165452086268740306e+00
1.204357122118683288e+00
1.224729823216740288e+00
1.255469607299503298e+00
1.291528175222801167e+00
1.257857008433752588e+00
1.272568649049592215e+00
1.227126029427912490e+00
1.223965684997613046e+00
1.172201946334238354e+00
1.087749711797946217e+00
1.013283841197733404e+00
9.827465244943779377e-01
8.834966635578569427e-01
7.814343677037611791e-01
7.794673274488777004e-01
6.691387879578954978e-01
5.579101063163683927e-01
5.536886071087677719e-01
5.243204015936143714e-01
4.237098194058857570e-01
3.814228234805758233e-01
3.627843296424715369e-01
2.956521963172297207e-01
2.730504901339632640e-01
2.750126203984518680e-01
2.452672905387925095e-01
2.128896741640657342e-01
1.411850335270274925e-01
1.972865433217586839e-01
1.594977086995514604e-01
1.802162508633792515e-01
1.163773718926812972e-01
1.881823435423053692e-01
1.344895492116202351e-01
1.734855198699069012e-01
1.903542697731430700e-01
1.766260975847182280e-01
1.796043963127008369e-01
1.742088381402799868e-01
1.388188145887687963e-01
2.192387949287828708e-01
2.165408713022880793e-01
1.764726836546123834e-01
8.941190592558517780e-02
2.267344000514357749e-01
1.461443016469745892e-01
2.208875922253814572e-01
1.871211891782701697e-01
2.273214580399815221e-01
1.864906945486849710e-01
2.205188130120596945e-01
1.726349304982632560e-01
2.275732889828908090e-01
2.300798827647896061e-01
2.546436426002568476e-01
2.214291273097576396e-01
2.467184866396504028e-01
2.285483306766390166e-01
2.560250830408450362e-01
2.558749406954031191e-01
2.719978246736789451e-01
2.116323664955077066e-01
2.450082351333119912e-01
2.569320893815838502e-01
3.033915821352938247e-01
3.084090282943572903e-01
2.079855784732040913e-01
2.298845587951349190e-01
1.726513312070066808e-01
3.125122769384787169e-01
2.548892973789514960e-01
2.612475800942112292e-01
2.325452956733811694e-01
2.398562987035355587e-01
2.715377659048435199e-01
2.037117519080572370e-01
1.984253398367388233e-01
2.220436668901191180e-01
2.263066717780570503e-01
2.392014208513306983e-01
2.194566386639786038e-01
1.896537118767883112e-01
1.995308602445878265e-01
2.120439065656690714e-01
2.221765027236572709e-01
2.278181564210832732e-01
1.849420379640018819e-01
1.671785041399226901e-01
1.565728031825871225e-01
2.135386597399949460e-01
1.603817890164588866e-01
1.454247219789347179e-01
1.681577666384095338e-01
2.063344509418637562e-01
1.249041084207609259e-01
1.650801531780696219e-01
1.283922312683171141e-01
1.400753882112825977e-01
1.557916168387255273e-01
1.626747568119110421e-01
1.050786673160247486e-01
1.382937104562115549e-01
1.177732258311121605e-01
1.176619321213224628e-01
1.376460577777153249e-01
7.433383625367090408e-02
1.140561394652076926e-01
9.076528014095049113e-02
1.169192092470135447e-01
8.915263567729919680e-02
6.786949385837448556e-02
9.420213700692531278e-02
4.680653175912147246e-02
4.772273199936503257e-02
3.321246418217889407e-02
3.307754482048957945e-02
-3.391702071184368728e-02
2.919849708877801653e-02
3.882024886764098848e-02
6.046686820955660818e-02
6.785557736987727143e-03
1.627960763095038371e-02
2.300907207226202816e-02
4.839010671746529768e-02
2.807316411755851615e-02
3.127761941045927030e-02
4.399389752799250097e-02
3.021940034987091392e-02
-5.233982807510743906e-03
6.199123551385907205e-02
-4.843743628701353832e-02
3.361413617532311993e-02
1.801798328019900072e-02
4.039982508509468856e-02
-5.564418637018814229e-03
-1.500169864315182601e-02
-3.461793329437343192e-02
-3.481167425390498116e-02
-9.171639258068950418e-03
-3.058468705310483579e-02
-2.773216063959554195e-02
-3.917082930910083943e-02
2.277176562397329601e-02
-3.071306057440979093e-02
2.320048498359563588e-03
-1.411854318592029728e-02
-4.288231605897169230e-04
-1.911754270194093025e-02
1.168987966870480011e-02
6.643243248256252426e-03
2.441790503449338054e-02
-3.168143189574784691e-02
-3.713758817385005850e-02
-2.316090539988342051e-02
-7.732500210299936977e-03
5.158701996967413050e-03
-2.883438639292346117e-02
-3.280633020433409985e-03
-1.386193619939825317e-02
-1.532443811163257397e-02
-6.406181853924837466e-03
4.023739144966144432e-02
2.043942094434099410e-02
2.987412151700786014e-02
1.112551272241413258e-02
5.510997108618770346e-02
3.116934872823331690e-02
-3.591544789270882665e-02
3.122940791938923211e-02
2.228418657547632034e-02
3.370189005875974531e-02
-2.688558623284800775e-02
-2.255226922808553636e-02
2.191358769114162483e-02
-2.434931391250749061e-02
5.313128709737810484e-02
4.030631890937960010e-02
9.826589499978310993e-02
5.513819840397378436e-02
6.887790624595854783e-02
6.966568510203738351e-02
5.894076598313149201e-02
6.443794296045786407e-02
6.355322697560787659e-02
-2.024644339686507144e-03
1.075309029748135886e-01
1.120634325152980171e-01
1.081618973009709772e-01
8.895125547309018499e-02
8.614177568855461986e-02
5.990586950510928127e-02
5.993660946273188239e-02
8.303204240083113252e-02
1.100701969288498394e-01
1.180459771648490197e-01
9.398995797420567344e-02
7.264518888389231988e-02
9.377211889205358530e-02
1.118996434571960658e-01
7.002807004456368389e-02
1.234625789436231830e-01
1.671386843356430507e-01
9.520742509932025865e-02
1.831746592102908022e-01
9.855797422193071644e-02
1.129787923025740437e-01
1.340922971904217886e-01
1.182016565387526419e-01
6.893128305984981552e-02
1.278732389536034464e-01
1.238506937350964954e-01
1.156113312328003739e-01
1.287392358700666650e-01
1.443911370802397065e-01
1.108730079693457382e-01
1.621348331324425074e-01
1.390355545592460440e-01
2.177753767319597078e-01
2.209409512912327567e-01
1.819481722762183729e-01
2.753794984948175206e-01
2.822420143196761044e-01
3.226603138046871821e-01
3.434224693009902962e-01
3.860989665522748804e-01
4.410543648715606335e-01
4.782855701352261568e-01
5.128342534195131641e-01
6.155128536849712173e-01
6.836573831487817721e-01
7.399332110635812310e-01
8.598031003811065220e-01
9.178761262075522120e-01
9.578781128025931624e-01
1.026651502816542605e+00
1.096667578752020589e+00
1.114280036103583615e+00
1.096369251597679506e+00
1.235501280322464757e+00
1.211669091907754625e+00
1.227113350106288525e+00
1.216328920358032750e+00
1.148524211101857873e+00
1.140898616239451435e+00
1.120735922749150459e+00
1.065882368449881490e+00
9.810186964642121366e-01
9.625367570948407669e-01
9.021804092881021697e-01
8.038073649167091217e-01
7.743129466783011949e-01
6.896204450056916402e-01
6.163620264141571603e-01
5.238144828135860021e-01
4.715963817051254114e-01
4.441692242408072366e-01
3.232822860266615916e-01
2.782344398670276719e-01
2.660656121177299993e-01
2.417017578800121358e-01
2.086792155525400982e-01
2.015513293993838606e-01
1.720340432284845067e-01
1.484948083809659314e-01
1.256282934883510283e-01
1.492687501668693573e-01
1.536822243351432249e-01
1.041072804068690211e-01
1.219962622748800296e-01
1.015759783747057221e-01
7.335904136166007672e-02
6.106099514509524817e-02
1.486366758430089363e-01
1.402961424014300962e-01
1.318277125264228911e-01
1.535243579800082414e-01
1.036379472179039529e-01
1.586489780265020189e-01
1.467573180816129919e-01
1.278023863781879710e-01
7.603189535782341191e-02
1.066661239584958260e-01
2.054941876246336174e-01
2.087180412774329308e-01
1.197618294406022355e-01
1.064152465926760105e-01
2.092813600752193026e-01
1.714747382138794574e-01
1.558307309315147826e-01
1.437799941757656186e-01
1.466909317094171605e-01
2.260333140959951415e-01
1.971023163900797459e-01
1.383519442236446906e-01
1.733206019225695671e-01
2.438777087579315495e-01
2.072097871168180339e-01
1.577625761647082625e-01
1.814244211732517487e-01
1.986065449623512225e-01
2.310814272646808942e-01
2.000734991208470426e-01
2.445029161654955485e-01
2.109399291635566942e-01
1.339206837645688930e-01
2.180405727147392003e-01
1.955771997505533211e-01
1.846662281324750743e-01
2.101812490911873499e-01
1.891447646241282143e-01
2.006414379293096351e-01
1.766515432299611832e-01
1.729675088107285041e-01
2.203430297106295510e-01
1.875948145007605705e-01
1.932803779244735010e-01
1.602786296151671452e-01
2.059533839570999170e-01
1.764380700584363693e-01
1.561833057022444793e-01
2.002092224785889663e-01
1.478047284728400967e-01
1.589715861507975947e-01
1.129497611687895198e-01
1.256164718134173963e-01
1.629404952630938985e-01
1.332957294356035827e-01
1.326680451304562969e-01
1.222359255133018685e-01
1.184417308006749381e-01
9.863964637998506868e-02
9.563945269388141046e-02
9.583826892948135723e-02
9.085210447607575124e-02
1.083240400752719657e-01
1.022481114721278117e-01
1.238575542251900419e-01
1.000953000105431340e-01
4.777516297471652573e-02
4.935573153153127723e-02
9.252873061567951085e-02
7.965172837279266282e-02
8.633929675512796997e-02
5.044870250875087281e-02
3.827225333816941522e-02
5.193888777122778605e-02
-3.859404891023085482e-03
2.724476633094141675e-02
8.787613203352566404e-02
1.523667883455380456e-02
2.082977607677706511e-02
1.148221923509141346e-02
5.906407972741852669e-02
-2.503178561582684175e-02
2.739878204270497497e-02
-8.051767047499755470e-03
-1.865280741524292379e-02
-5.240413850013486002e-02
4.646436179823538321e-02
1.401474293930371484e-02
-5.009173383013112990e-02
-5.053737069906106411e-02
-3.448956533506452454e-02
-2.375551895924858659e-03
-2.332480901504738538e-02
-4.887734881518739083e-02
-2.580034853411983936e-02
1.287444992625354223e-02
-8.989750357091694233e-03
-8.260510764549078289e-02
-6.144111343300786426e-02
-3.517497097839341474e-02
-2.849694925864926578e-02
5.583402240912416215e-03
-3.506353114977555502e-02
-1.956208862442328916e-02
-1.022382036690811513e-01
-4.933919170843550916e-02
-1.714379579771340562e-02
1.794099234523077735e-02
-7.941349599970423667e-02
-4.478900080861920180e-02
-9.280879894533314300e-02
-4.629895083300997194e-02
-9.056215300449879657e-03
-1.263479106307226901e-02
-4.170911481215604927e-02
-4.780847152063882888e-02
3.827026197133442942e-02
-4.587251737530555901e-02
-5.532795163994079501e-02
-5.505358658124989701e-02
-8.141126320350344781e-02
-2.328092162550056410e-02
-1.592758230619006204e-02
-1.577365134329420521e-02
-9.586333004847902295e-03
-4.918953885047974706e-02
-3.457857274974669715e-02
6.749055115206077649e-03
-3.990365632792921419e-02
-4.047686421108324939e-02
8.578282553636240593e-03
-4.261978374921552432e-02
-5.036037608215365030e-02
-4.463461596048828861e-02
7.099404424384089807e-02
2.336057103972857818e-02
1.522329700066238356e-02
-2.801457933514309856e-02
1.885019708590274234e-02
5.861265146668548365e-02
2.264597235945492448e-02
-1.720482665830278673e-02
3.627402405977261934e-02
1.981430905067068510e-02
3.319170523441949266e-02
4.625986814884353038e-03
1.531729381980423410e-02
2.858547136739313099e-02
2.403055085600200314e-02
5.017799508315460427e-02
3.596759761411086331e-02
1.100506562889660561e-01
8.006565620833386299e-02
9.231088068381960998e-02
6.949776264182502827e-02
1.744442634418010007e-02
1.065195433653180479e-01
8.157050494167192300e-02
1.006332582559246736e-01
8.901797789754356538e-02
2.709918007360822417e-02
8.343754086345303578e-02
7.370679141771351028e-02
1.065687565120603808e-01
1.156208500412297807e-01
1.677479658362645565e-01
1.180579478912373026e-01
8.793399018391820365e-02
9.252810153692857253e-02
1.209916285166772604e-01
1.310807786341546266e-01
6.857851213576955651e-02
9.887222358152882029e-02
1.022657093501775361e-01
5.952187107423831391e-02
1.313549658222335492e-01
1.192137327725695251e-01
1.105343494387813208e-01
1.293006127683057893e-01
1.491648161819271179e-01
1.975773367908300604e-01
1.720753743938294722e-01
1.343106011898809182e-01
2.733245302008946442e-01
1.794020207678734269e-01
2.538174525097806611e-01
2.700193879964336574e-01
3.120641903435676379e-01
3.717968903283503379e-01
4.242428424910446583e-01
5.073128226352453529e-01
5.061727503912254456e-01
6.019871965302694417e-01
6.754883057876081009e-01
7.972089113664245774e-01
8.117572131414511061e-01
8.317778277580426538e-01
9.748262375984061423e-01
9.837607042264098212e-01
1.029208405536068849e+00
1.145768510374109983e+00
1.152396533828959235e+00
1.175162751947574247e+00
1.253746730459409431e+00
1.198444010775341129e+00
1.197175943438872237e+00
1.214935385004458412e+00
1.108288023117678600e+00
1.146198653185997340e+00
1.099536150944386170e+00
1.019007068797536553e+00
9.847212138384191515e-01
9.283572257905442493e-01
8.509878589657496883e-01
8.064928786522239657e-01
7.193868253073262276e-01
6.365024908873404552e-01
5.951991237841320892e-01
5.181354481538437140e-01
5.402650995982767324e-01
4.259094024242773280e-01
3.295830222944978183e-01
2.496301042542258819e-01
2.421413563133588687e-01
1.678925413641414177e-01
2.209491084674215511e-01
1.689393131297325934e-01
1.357044664795596378e-01
1.617855033728677616e-01
1.213727075704175151e-01
1.359553193832266638e-01
1.104592699406360956e-01
1.172885839604263514e-01
1.520790135105389573e-01
1.407250451688785153e-01
1.574019953671912941e-01
1.268571612117876946e-01
6.511802083105411310e-02
1.023475932350820516e-01
7.832763911998844031e-02
1.585806827258542939e-01
1.359398824365979364e-01
1.778627924575129637e-01
1.758987366146478604e-01
1.457012147852685957e-01
2.065519838097599759e-01
1.876143257321636615e-01
1.658624514791872673e-01
1.809512282610614142e-01
2.146917819438250163e-01
1.899347819321380304e-01
1.606074165186648361e-01
1.492070625510684423e-01
1.803001540947413994e-01
1.713593663183217153e-01
2.012484272856667755e-01
1.827930637618927490e-01
1.896458232607268202e-01
2.402005843336875723e-01
2.559305584140870726e-01
1.851110263526432043e-01
1.995858253491268886e-01
2.051297649534372658e-01
2.228400726652070285e-01
2.248795870163976529e-01
2.001873819160589485e-01
2.312922227432812894e-01
2.024506994340254384e-01
2.051336900023717491e-01
1.888153826464735174e-01
2.466311576226521418e-01
2.420405106823336205e-01
2.241125592012512546e-01
2.322699949925834395e-01
2.440489551200730745e-01
2.315111588286216382e-01
2.286952185053372222e-01
1.916621488556417285e-01
1.568695583032188590e-01
1.754650536177647657e-01
2.620283209278914671e-01
1.858544506051989231e-01
2.375990668100023129e-01
2.022439036146985170e-01
1.813485793106140442e-01
1.512692173428453191e-01
1.531832226702880551e-01
1.661373792873367949e-01
1.617380567675766878e-01
1.777450192675634200e-01
1.364842257808671355e-01
1.329768942469738702e-01
1.737300511727320473e-01
1.997823839239805666e-01
1.406101527948675767e-01
1.465365839171077211e-01
1.239970038116238599e-01
1.216284547876139432e-01
1.123589785155584414e-01
1.033889821936577746e-01
1.257257107380548578e-01
1.228095268796376982e-01
9.225153829690854734e-02
7.766193536453017132e-02
7.595307846188170675e-02
1.052715842014120273e-01
5.717433367648780407e-02
4.635523712625948256e-02
8.102593221013579261e-02
6.634507317057132536e-02
6.007719462250064868e-02
8.525075520440819621e-02
5.481155939998225146e-02
3.294695724250585461e-02
5.405494206767583187e-02
2.582946634443821290e-02
6.853400655238520156e-02
3.936071502149550427e-02
4.657964697894253353e-03
3.714131663248505799e-02
5.704526667868175388e-03
5.758717718407251052e-02
2.113060351651696936e-02
4.043938580551684203e-02
5.854665979860770864e-04
1.102862318021600313e-02
2.709065227164853332e-02
7.872746991582940668e-03
-1.610449316612873327e-02
3.035757633591081028e-02
1.557874508410295872e-02
-2.675708131738312873e-02
-6.884677487737958165e-03
-2.199329337335847664e-02
-1.325874004159594520e-02
-1.342267503659816744e-02
-8.081490869502439001e-03
-4.452218825266265889e-02
-1.531681627313774899e-02
2.526157836534364404e-02
4.737867388210321995e-02
-3.917101012394198778e-02
2.688485333466697838e-02
6.117754712027954900e-02
-1.212005283978628487e-02
8.850312057997595377e-03
2.382351610683419718e-02
-1.974448525193337606e-02
2.189357892401237737e-02
-1.220879569348754835e-02
2.250605137436110029e-02
3.962670166655270915e-02
3.234132322384160318e-02
-1.425173290450052616e-02
1.380765335716074502e-02
-1.739529316920382720e-02
-3.659365690828252082e-02
-7.967870395529656063e-03
2.440538848467922045e-02
-6.947757317488421555e-03
4.637834050658764390e-02
6.674869460675612182e-03
-2.596314239749988179e-02
-1.182208720639822686e-04
-8.964950918549643641e-03
5.204622187937813643e-02
3.014270350308859842e-02
1.577421045112926967e-02
4.278931581716403920e-02
2.556722706880520252e-04
-7.452878934146539222e-03
-7.730269063698136725e-03
-2.136836377096407169e-02
5.329815085051835266e-03
5.794708419947733335e-02
6.692461909730307301e-02
2.311771821397498594e-02
-6.820436984175904868e-03
4.570730909032719863e-02
7.735606111744337821e-02
9.198170655814198737e-02
7.895744793635106618e-02
4.620164629865679967e-02
1.030146492978200878e-01
9.779951250674830121e-02
1.129327488602622082e-01
6.877071419883905301e-02
1.155915005281283880e-01
1.308540236603465134e-01
6.878082418107903107e-02
9.521051011343278914e-02
7.226097423665409081e-02
9.755637159027520655e-02
1.226432698616164718e-01
8.592034383121864571e-02
1.660591514161496030e-01
1.695696532421311353e-01
1.346492781862140553e-01
1.213512662522716751e-01
1.419265328756274258e-01
1.888942415320395696e-01
1.654355645963316856e-01
9.399098768804139969e-02
8.135691979469474033e-02
1.225475433090496419e-01
1.489911361469921647e-01
9.963320941523101659e-02
1.448918768510297495e-01
1.012033431666311545e-01
1.523418758806024953e-01
1.595883281274460275e-01
2.057029314165446654e-01
1.529236657965932777e-01
1.496208961091018141e-01
2.050775931011773190e-01
1.912311460664075646e-01
1.816637884319130813e-01
1.826304437005941972e-01
2.572466717800636071e-01
2.022866506315332547e-01
2.020002235665515899e-01
2.671151943667087192e-01
2.947883269834437603e-01
3.770236950983907875e-01
3.874718540289064928e-01
4.576101797488110190e-01
4.059853629047651680e-01
5.303869521990680624e-01
6.467471358636370793e-01
6.358623146216559885e-01
7.283304544054584051e-01
8.318978880890829375e-01
8.617825752407219930e-01
9.692658272420445753e-01
9.936022776363588882e-01
1.071960745329426423e+00
1.148375498136380291e+00
1.142945328787843717e+00
1.189658846263612624e+00
1.269700967224398402e+00
1.235789582181573421e+00
1.268804767183514093e+00
1.288075145113806386e+00
1.243911385444042672e+00
1.220589504221729404e+00
1.219969550838301497e+00
1.194537357417792878e+00
1.073946552032647439e+00
9.953216364076069578e-01
9.666787196352436551e-01
8.491137857255147692e-01
8.412610559226116891e-01
7.151306668072442418e-01
6.501195771564501902e-01
5.660930518818693136e-01
5.092159102245833457e-01
5.124424436663738147e-01
4.347044848331293454e-01
3.756399726083731738e-01
3.970404705355975450e-01
3.028795423138826437e-01
2.679131910919586024e-01
2.091934651007814616e-01
1.970947911215465975e-01
1.763220833459517578e-01
1.706239701982918411e-01
1.672793292296824441e-01
1.657577159241145626e-01
1.907377229948644115e-01
1.664924904795539728e-01
2.200831872814298373e-01
1.859225872299964111e-01
1.475039403824661421e-01
1.848282386579272463e-01
1.790454401025199094e-01
2.201663323730327637e-01
2.070555503572160949e-01
1.888710709657671072e-01
2.439020882751036789e-01
2.128835617257063551e-01
2.189763598740383232e-01
2.508205699111532572e-01
2.361874344181501550e-01
2.216598661162304251e-01
2.174553819542472399e-01
1.637247585891830337e-01
1.733018826957370973e-01
2.293827508276061189e-01
2.203190512060033968e-01
2.414394234698443165e-01
2.750980960477067416e-01
2.249213741419789914e-01
2.041129068579959349e-01
2.155130402768035414e-01
2.278170427713255564e-01
2.257551808064217069e-01
2.636276666675518854e-01
3.106210408735602946e-01
2.847561104145884814e-01
2.885709735534784381e-01
2.758087706598659761e-01
2.331258651565255857e-01
3.382885911520034372e-01
2.620321963668706400e-01
2.950733362335294374e-01
2.046030900380040873e-01
2.687390850184341873e-01
2.656469843545898879e-01
2.619107397158703665e-01
2.267316791573397161e-01
2.733136251601860356e-01
3.022879318763419532e-01
3.267623301113030676e-01
3.110627557523591991e-01
2.971272606818492479e-01
3.078166436439055409e-01
3.084721058637437396e-01
2.229115167804925357e-01
2.549002740078900042e-01
2.055974328684845032e-01
2.564108729040469603e-01
2.290630057191392899e-01
2.278464253457901934e-01
2.201715761175194741e-01
1.492763375661017022e-01
1.625261207797423502e-01
2.410104480796381732e-01
1.905711621637102837e-01
2.368428602612304146e-01
1.966226184134040322e-01
1.491246906478653489e-01
1.498992549292299525e-01
1.669452039897031392e-01
1.544237760901241985e-01
1.747542818050459301e-01
1.801289230502429173e-01
1.779434755080470942e-01
1.697859860728378467e-01
1.846975865444897003e-01
1.835407476358140721e-01
1.209084638057383310e-01
8.825286395380317617e-02
1.193091145063008424e-01
1.377149868098870578e-01
1.150824629629179086e-01
1.455611649008585751e-01
8.242760362063811241e-02
1.657260995925270153e-01
1.378760564459952376e-01
9.892830243093561626e-02
8.383082124633894905e-02
9.855088967320693727e-02
1.340316079628691981e-01
8.423441078886872990e-02
7.549486980571862293e-02
8.964907691069716467e-02
4.911571010603648507e-02
1.161488110937575341e-01
9.975023468658533732e-02
1.056305898846617297e-01
1.174971303727839061e-01
4.980619003218864083e-02
7.170397305546791222e-02
6.623193885229203270e-02
1.145475981280174582e-01
5.264908160813484839e-02
9.550569154898963520e-03
4.773836358930368118e-02
8.651199457800731740e-02
7.441952964422296479e-02
5.422465914690037525e-02
4.433047397439015408e-02
6.476581063986941444e-02
7.042203259550436356e-02
5.894338000515761400e-02
4.105463833665772000e-02
4.977610968532969471e-02
3.357567784680411116e-02
8.036613315535504065e-02
4.485695070501537901e-02
2.030706827977495077e-02
1.157791304102359642e-01
2.587732797467361123e-02
2.075870617735618012e-02
1.137042322415963980e-02
2.688027547968807607e-02
6.999754406652558547e-02
3.979421890005011009e-04
5.298532262310413216e-02
3.109933739422439739e-02
2.478654340717836510e-02
-2.373428563302477923e-03
4.925014215658261862e-02
7.911283860336654206e-05
4.411224848696777834e-02
6.395206519861079686e-02
-1.273795705822593216e-02
7.731538515124442013e-02
-1.199913783507963738e-03
1.143745057713596164e-01
5.600947501574878029e-02
3.805100995313415169e-02
7.236116747656420878e-02
4.162737328546106674e-02
-1.594614732788338096e-03
1.082298871398243989e-01
6.663077269202000164e-02
8.246829526322946302e-02
7.855768974625630674e-02
6.209081069937355535e-02
5.714902301223381137e-02
1.163534109012711038e-01
1.137996446985305027e-01
1.012290943217641070e-01
1.374087887568431199e-01
1.088686293484006085e-01
1.490741638531610513e-01
1.643506381225575130e-01
1.571425961240082714e-01
1.416203448062450243e-01
1.036815744528059857e-01
1.519449605027992645e-01
1.290698689233444607e-01
1.695008122244956450e-01
2.008911390435697275e-01
1.541695811520339965e-01
1.276050401811903434e-01
1.864154700503354301e-01
1.691305287122551460e-01
2.192828748122378768e-01
1.784096073810824967e-01
1.780307349778367798e-01
1.861098074860013940e-01
1.952898929616709855e-01
1.291224647181153373e-01
1.664441588589113119e-01
2.259138683561303929e-01
1.747418269239133237e-01
1.947273301182501637e-01
1.897333758239087842e-01
1.767450333791071859e-01
1.930337107510092520e-01
1.675561593257708926e-01
1.540172607086268963e-01
2.048548729240204924e-01
2.473610756541074207e-01
2.220131272954379009e-01
2.236670912685379542e-01
2.339393571667658100e-01
2.110734996128772467e-01
2.094311500901421819e-01
1.883224508781639883e-01
2.450716745833596277e-01
2.394397598219686341e-01
2.230098112501678886e-01
2.500386901582534183e-01
2.452997619130892482e-01
3.186989862071050172e-01
3.777894124137656240e-01
3.310730451292551169e-01
4.350962890911133085e-01
4.842057039517940753e-01
4.626084374401314703e-01
4.902097603231619360e-01
6.136220054551598801e-01
6.701615527009406881e-01
7.356914787719364135e-01
8.452437651546311770e-01
8.709848291805872833e-01
1.023745623788550496e+00
9.726763224669582319e-01
1.056646976856770559e+00
1.115103751528955911e+00
1.187387387298177943e+00
1.279004599657998620e+00
1.236673221366814346e+00
1.266249172368571374e+00
1.286173698460641779e+00
1.302693603852694837e+00
1.298702569582933508e+00
1.259249291428783835e+00
1.198701464906367198e+00
1.191153513185536861e+00
1.185315340264071926e+00
1.110983853031143109e+00
1.005572184928576362e+00
9.533708127829336743e-01
8.959803793796685678e-01
8.367251466833717233e-01
7.862417541992290371e-01
6.804407941406582783e-01
5.726271520385263214e-01
5.014367331630132929e-01
5.097738460586569431e-01
3.978307908810528315e-01
4.207638907333057232e-01
3.389646106149450944e-01
2.863854454721898035e-01
3.094215200480395778e-01
2.393841969578301976e-01
2.647570639455076869e-01
2.406244945483096698e-01
1.662287934239433385e-01
2.570000072151051862e-01
2.472481544216860172e-01
2.331720663035049823e-01
2.318871844356003575e-01
1.804675550825904085e-01
2.379873605339087039e-01
2.278379777882033053e-01
1.450049918194397935e-01
1.820796396326359035e-01
1.920315671548963321e-01
2.631638070545503916e-01
1.941465497382399430e-01
2.099635788735243758e-01
1.935697344908026973e-01
2.223248902471340327e-01
2.722339312236168873e-01
2.030088610473891331e-01
2.643001494356639336e-01
2.281742836830931431e-01
3.152094997339600635e-01
2.662338775140847824e-01
2.641962290662903112e-01
2.530556098274927002e-01
2.805155893880388884e-01
2.333309346277303020e-01
2.835668424576074931e-01
2.660147259762251082e-01
2.674625914469440091e-01
3.506719035668381945e-01
3.332698839323903206e-01
3.369819404475652425e-01
3.204484304929736682e-01
3.086853378731927444e-01
3.417141325799759599e-01
3.084901925342065088e-01
3.178863708996187976e-01
3.413565114089260888e-01
3.243709086921217066e-01
3.130462416755872002e-01
3.231909513319620175e-01
3.019526810561189989e-01
3.128847550263347821e-01
3.145255998998965352e-01
2.578551056781678841e-01
2.710228258757043096e-01
3.129168078674283704e-01
2.927499933056680881e-01
2.857380592952912246e-01
2.923120496417823677e-01
2.210356119493744054e-01
2.722287297000450801e-01
2.690736440364201454e-01
2.756891789340801258e-01
2.921424554685744801e-01
2.515681023756059509e-01
2.987221950734910147e-01
2.249076198311465713e-01
2.705041074102143561e-01
2.295742226279912090e-01
2.755225606551047202e-01
2.423558373086315276e-01
1.947018948540774341e-01
2.290628856133243851e-01
2.330011367204589956e-01
2.227159054485036149e-01
2.207511583279221368e-01
1.990454092700552347e-01
1.839124365491260904e-01
1.462618590154233789e-01
2.079694944012193958e-01
2.006319146320898750e-01
2.376542340107284934e-01
1.741008112098748895e-01
1.787100999889194020e-01
1.700122477351390382e-01
1.866386985600818060e-01
1.404538028582260900e-01
1.557222404076721578e-01
1.474264758175157231e-01
1.644156137954911889e-01
2.043592547821360683e-01
1.433368949507780044e-01
8.587464645124670559e-02
8.997280305525652555e-02
1.528258180974367275e-01
6.740577586358872941e-02
1.230879135867429808e-01
8.806548421532733872e-02
1.874378451561205250e-01
6.676639754517138536e-02
8.003425017608997716e-02
1.202137869011546956e-01
8.682260141784034491e-02
6.932477508354402407e-02
5.917935135585222772e-02
6.579919636359796153e-02
5.579725507799059014e-02
8.019605570458468446e-02
1.360338238775595510e-01
1.379683925561169811e-01
1.353697892483168574e-01
6.813009095216986111e-02
9.163424233270558994e-02
7.218809591949627846e-02
4.207573615979792736e-02
1.097136678999281745e-02
1.072637728427085907e-02
6.681728356542852854e-02
1.991151372213733478e-02
