1.306723405557916884e+00
1.273365906490300015e+00
1.329306351261072772e+00
1.260928020053727394e+00
1.204228300763400261e+00
1.146858093356571073e+00
1.168859516409676003e+00
1.045290581101771643e+00
9.779380746760760745e-01
9.433725136460605620e-01
8.877261392624523628e-01
7.547877193606821189e-01
7.195096879391301714e-01
6.527633248903509378e-01
5.659102554208650382e-01
5.012968578522305485e-01
4.412414581824092852e-01
4.427923085330711661e-01
3.768461494719675953e-01
3.348316019768560192e-01
2.795529346908617874e-01
3.057631713327045309e-01
2.623151306749300637e-01
2.092382860807748823e-01
2.112110140797940627e-01
2.341031886412613394e-01
1.509843890816756073e-01
1.977501427319329486e-01
2.209428121615960583e-01
2.020812832556706795e-01
2.169495884783773643e-01
1.334763330619690436e-01
1.592312619944241114e-01
2.279849662977972702e-01
2.165640361602524933e-01
2.002562150566249977e-01
2.205711586195096274e-01
2.345907632901289841e-01
2.062399836351124505e-01
2.044221083199991018e-01
1.895914906299471514e-01
2.776238487354343309e-01
2.404786155955412064e-01
2.881770753762066817e-01
2.064399752882246364e-01
2.545182333455872636e-01
2.187589948627044478e-01
3.109058671642929150e-01
3.433940956772435493e-01
3.025820788898168079e-01
2.345176928609546685e-01
2.363165625729910513e-01
2.707906792693041131e-01
2.803417381293147326e-01
2.939840718042779910e-01
2.946098942131233356e-01
2.826236474384884456e-01
2.767370031059149249e-01
2.601416236488675038e-01
3.060430466715440834e-01
2.150006105019059421e-01
2.897388818541696831e-01
2.936837546528187071e-01
2.800433654714287734e-01
3.106731052238667634e-01
3.150632814139617821e-01
2.906450230517234612e-01
3.526465306926702681e-01
2.608186717183769154e-01
2.659901858821771548e-01
2.653509304924929202e-01
3.093663323378735286e-01
2.838288155544535507e-01
2.124387850427522650e-01
2.572103723021656463e-01
2.458437681597340774e-01
3.111420325295879419e-01
2.324335481261965430e-01
2.523358344759389915e-01
2.015571517040532501e-01
2.493069266623253455e-01
2.966819141900251533e-01
2.107261613911573794e-01
2.590331393818485761e-01
2.201467858689991619e-01
2.208782886439910331e-01
2.351250530715718323e-01
1.737907916689940824e-01
1.833793729450063914e-01
1.740554058997927922e-01
2.467615983426966753e-01
2.224395744667837793e-01
2.151998802023345758e-01
2.106265625656228158e-01
1.993359825013653885e-01
1.211521545692734181e-01
1.467464330967712671e-01
1.529563424002613470e-01
1.583116049868348307e-01
1.187671596463384383e-01
1.027115817159692385e-01
1.077406254989193568e-01
1.117314706796895818e-01
1.186799041912647568e-01
1.378151883041638381e-01
1.158287918609785666e-01
1.525229693620116789e-01
1.302231058116733453e-01
9.799383496135755101e-02
1.166536304134208335e-01
9.604015671911626806e-02
7.754451965849633310e-02
9.318917150580136033e-02
1.002090103363981743e-01
1.143115386344297074e-01
1.469402902825061863e-01
1.156688087673695686e-01
4.436643742421569891e-02
2.337079209671123411e-02
1.071125278713500190e-01
6.176099466520485609e-02
4.166137541546193618e-02
1.091535176337931762e-01
5.210062329373536805e-02
5.206539767145434983e-02
3.397224299861263674e-02
-1.002352311958781134e-02
2.128444362168742041e-02
2.794992305652189632e-02
-4.000922107848244730e-03
4.584607568819783208e-02
4.981713340507351595e-02
6.754911007779589027e-02
1.608910147292022183e-02
-1.876567059034499677e-02
2.627994861224913770e-02
-2.641824337150332908e-03
3.295578519838443521e-02
5.871210736143704645e-02
1.578090625718465978e-02
2.862390530926620796e-02
-3.153976504680390536e-02
1.748876932273002796e-02
7.659187267725411918e-02
4.456932413347785421e-02
3.830460027707611320e-03
-6.889897576627893733e-03
2.560620011694888717e-02
4.129879624857231424e-02
2.747709164417754674e-03
1.977012527571296585e-02
-3.243663334898834461e-02
4.985467975964034265e-02
-1.421694819668424536e-04
4.473036404680030831e-02
3.643053533864597238e-02
4.020786873812407652e-02
1.905672020222487495e-02
7.676016937765325898e-02
8.584292511761865835e-03
7.875298508654655916e-02
3.751145628689640799e-02
3.470506643654509837e-02
2.531458903456366288e-02
3.698025999428709854e-02
3.544638203484582611e-02
8.913299733337576303e-02
2.273966724879757442e-03
3.489323022975467092e-02
1.451858406502429602e-02
2.801091681855297222e-02
4.832543618799489682e-02
9.564770993586185766e-02
6.785983322288477448e-02
2.772781502552072730e-02
5.082675392053326302e-02
9.757369442210198085e-02
4.898282146477538762e-02
7.423623355726942374e-02
8.624295359955991280e-02
7.131478666359389318e-02
5.453482164033293667e-02
9.358598534810941283e-02
1.593879184542206506e-01
8.050635753648585635e-02
8.271116335132100428e-02
1.253286343323428975e-01
1.788817279151217465e-01
8.614464836950069815e-02
8.040466891020221774e-02
1.438873910109857712e-01
1.486072099043409533e-01
9.864371980120428818e-02
1.227546721241488115e-01
1.004898539370225052e-01
1.275921045943723409e-01
1.330743892095743452e-01
1.731591894772676055e-01
1.839581213613548372e-01
1.466864709180603354e-01
1.966739474134251708e-01
1.821123568792121783e-01
1.151615728642474412e-01
1.898460388310865554e-01
1.809501529554977950e-01
2.148771852884490130e-01
1.655119918172531512e-01
2.107849267473680677e-01
1.055436836031978104e-01
1.441119999401962171e-01
9.788169725459533455e-02
1.481594483023997433e-01
1.627974082417406043e-01
1.579956840398791251e-01
1.883989914015369860e-01
2.375721560784312680e-01
1.565760111870855842e-01
2.113580769366170953e-01
2.025120265020101396e-01
2.029352468555470357e-01
2.310567558881643502e-01
2.122702327742892747e-01
2.753290098047252998e-01
2.259289052076755844e-01
3.043842034993869961e-01
3.260312805588701512e-01
4.508161608593200809e-01
3.902498567423959286e-01
4.890874575321887407e-01
5.690020321628792566e-01
5.755903681772579494e-01
6.587167424663685766e-01
7.103954903973526136e-01
7.823624220578127009e-01
9.161685610225653864e-01
8.779208651649063055e-01
1.009092228979564965e+00
1.000134382791998844e+00
1.147170175657106439e+00
1.155382826019419440e+00
1.154520490221639273e+00
1.231133437209618320e+00
1.217587777221884382e+00
1.290298218337603053e+00
1.286606976445204609e+00
1.204339029630766555e+00
1.227027904760630506e+00
1.152981531109851021e+00
1.116113024371267359e+00
1.129077452958196837e+00
9.961330500140186395e-01
9.846666786085521705e-01
9.239291149301791517e-01
7.901330542584282801e-01
7.368608694276049809e-01
6.443697973266070411e-01
5.918491035992893279e-01
5.475938725723209499e-01
4.662196408244880241e-01
4.264723145345068467e-01
3.451689913268292109e-01
2.959557703918685445e-01
2.742262146167487868e-01
2.572954558761476607e-01
2.646004960809980600e-01
1.979543315471037346e-01
1.976557410194581532e-01
1.428368441149335255e-01
1.859946307975451907e-01
1.406149822288230711e-01
1.402364413856843628e-01
1.454454546527601255e-01
1.257721735673070218e-01
1.086691687629041114e-01
1.566813430964290044e-01
1.722047300976719819e-01
1.076151208156678196e-01
1.583281549785746367e-01
1.614895797155506962e-01
1.475436781931717678e-01
1.515038503450043261e-01
1.987840985146837047e-01
2.360173839837668430e-01
2.142441095347770441e-01
1.957719446123354912e-01
2.192086165412813759e-01
2.020715651920598210e-01
1.713357869504168185e-01
2.067216380339088055e-01
1.592449222743493042e-01
1.808568831410949929e-01
2.347985292183774608e-01
2.041161393214377950e-01
1.879872787363126019e-01
1.975883928324980721e-01
1.816471734943030936e-01
2.303741882080804493e-01
2.100211668569297585e-01
2.173729681733055086e-01
2.388241290699144870e-01
2.380304549673479542e-01
1.933786862942672713e-01
1.952715939417311586e-01
2.283577001187961086e-01
2.503197764024569505e-01
2.108198679556123056e-01
2.147962406357245557e-01
2.344344741198838011e-01
2.331472822151963997e-01
2.268877734944499958e-01
2.386531719425503406e-01
1.983600065796340961e-01
2.691516961256730234e-01
2.126458727186855135e-01
2.697185829992906902e-01
1.514179853244333185e-01
1.630651082546770714e-01
2.083424274546208654e-01
2.375838179948359108e-01
2.110734882967664205e-01
1.971512406321631328e-01
2.050601620585927598e-01
1.918166688248617857e-01
2.470983170811829333e-01
1.684019862506066778e-01
2.175568604775051929e-01
1.524615992309087953e-01
1.610744697317300911e-01
1.358917007891090323e-01
1.856320381999716773e-01
1.913835827382914245e-01
1.446642195449608370e-01
1.610716770018522093e-01
1.433297376655008337e-01
1.520757105188378921e-01
1.644669486222143095e-01
8.943801085835134668e-02
8.677401125487818612e-02
9.667891991556537556e-02
9.478134565194067107e-02
1.091000762851677131e-01
9.800414025203199597e-02
8.656749239655986417e-02
8.533190917812283338e-02
8.925916347982973398e-02
5.472301435098139710e-02
9.439632819564534177e-03
4.107639111556121714e-02
9.690173229658108345e-02
-1.852939360766325816e-02
8.878645393700923538e-02
3.347552939380296633e-02
7.187287907433055623e-02
1.164666324603593622e-02
-3.684920535152377136e-02
8.800571280336608182e-03
2.692232094351559857e-02
3.893627491579825656e-02
-1.851170091599076833e-02
3.190681578385444472e-02
1.823416970149460692e-02
-4.161002867292911550e-03
1.492568839879209602e-02
1.129463501112987212e-02
2.172006264526524927e-02
9.370216147276053120e-03
4.048391696351467950e-03
5.788092568918850461e-02
-6.204856771643939978e-02
-4.490024250856855526e-02
2.487074774103633507e-02
-5.373448376303226193e-02
1.534009683909672711e-02
-3.687367350042540515e-03
-5.411728766291767911e-02
1.328999860131414856e-02
1.778986464606800016e-02
-1.827766215809035685e-02
-2.344935287302804885e-02
1.725640526585994761e-02
-7.373025698182092413e-02
-2.956795287843053122e-03
-6.800598955662215395e-02
-8.215469120232465894e-03
-3.030923336833436788e-02
-2.818661817103158135e-02
2.157388011999411548e-02
-7.537928316974885912e-02
-7.355059079201045624e-03
-3.149170333774151120e-02
-2.672093455743422899e-02
-4.255210481740143158e-03
-5.985122696813924975e-03
-1.165713673305458775e-02
-5.650626853910199754e-02
-1.181932249310915090e-02
-7.399014473128330549e-03
-1.490577858912908032e-02
-1.071766085977160499e-02
-2.635183169356208194e-02
-6.357533282025798482e-02
-4.021403492483997810e-02
-4.130695176607923624e-02
-2.554278069706145474e-02
-3.732947284979840769e-02
2.995017875440766919e-02
-9.274424931012065915e-03
-2.322258624348906217e-02
-1.138495599573608602e-02
-5.374277277444113043e-03
4.891265576497010048e-02
-5.528612500667884344e-04
-2.390057815792225732e-02
-4.012242691495965241e-02
6.526907277255855622e-05
5.752613927587221787e-02
-5.741760494350461874e-03
-2.595983647994301591e-02
3.510621991534853409e-02
1.239327608751254056e-02
-3.657097299573142807e-02
2.238371890874210624e-02
5.421654974443738256e-02
-3.900975411741813836e-02
4.966484893678244084e-02
-5.212313122452717773e-03
3.051333501350626809e-02
2.675964155740871708e-02
7.871709512279027876e-02
7.973216078485977076e-02
1.358557635401342473e-02
-1.125389240057166063e-03
1.750026743606164503e-02
7.995688182604490657e-02
2.888826511817696452e-03
5.607258930120912616e-02
1.071920939784048454e-01
1.009544936386823633e-01
3.560108889598922327e-02
9.573372875551550143e-02
6.410559774124605092e-02
7.623842461301710838e-02
8.094849753760416378e-02
8.668057568611357844e-02
9.963443012877959415e-02
8.170432177718156552e-02
8.418640580807665308e-02
1.328680435942031779e-01
1.069321003195602970e-01
7.453706808684709695e-02
1.105418786758295691e-01
6.299779952214287770e-02
1.110462719768497419e-01
1.244651957304908491e-01
1.320638456756494938e-01
1.210284003311304368e-01
7.691578921617872600e-02
9.415451515653616710e-02
1.480689807142266112e-01
1.085289562464730045e-01
1.211323527740038597e-01
1.519117517119047966e-01
1.871914940429739160e-01
1.530317243595444299e-01
1.604315958610184334e-01
2.497446306368464597e-01
2.770470183680398546e-01
2.491238177853168645e-01
2.836546119113224629e-01
3.507337989597769656e-01
3.825190044195796446e-01
4.214729258955793312e-01
4.990966335140813448e-01
5.185218270127227580e-01
6.362326418837187525e-01
6.906442191554260646e-01
7.541239592179689311e-01
8.076242156818331797e-01
8.616229802240735758e-01
8.941762139940399035e-01
9.569546781100976007e-01
1.016557948199094286e+00
1.152944893904324974e+00
1.137279281693144961e+00
1.151484924007609933e+00
1.204916104496093876e+00
1.187458114320162572e+00
1.200743511772240257e+00
1.214042755732259282e+00
1.161096343503584372e+00
1.124240224994079052e+00
1.087183368564904828e+00
9.914486399671427197e-01
9.810750018762353086e-01
9.491957825428692930e-01
8.260829794793522751e-01
7.689899912890140188e-01
6.697388040102355555e-01
6.032705371952340467e-01
5.870011318474889217e-01
4.984479879259592350e-01
4.539955097981676069e-01
3.875935491247234910e-01
3.256895634360705838e-01
3.231270533076714413e-01
1.950628056942492472e-01
1.916667150922167773e-01
1.769453585407810281e-01
1.669027207682637348e-01
1.381735303429461048e-01
1.388808187456775090e-01
1.626339943933137466e-01
7.897469537541490503e-02
1.537346509558624452e-01
9.817355058011421887e-02
1.089930590132962562e-01
1.038588543933447739e-01
1.126337787562318310e-01
1.424293642431951612e-01
7.468933580760896140e-02
9.096049844159140307e-02
1.351188352961863459e-01
9.634987371385064781e-02
6.863186500734011486e-02
1.485145600885804384e-01
1.105119127919049343e-01
1.645676374475193715e-01
1.292313696607634843e-01
1.813718948946529408e-01
1.591720279645800762e-01
1.348735833554106645e-01
1.232346057462903460e-01
1.570306817905666730e-01
1.695542979406071959e-01
1.523405920948190939e-01
1.363184458273327126e-01
1.715657320169836075e-01
2.276498691380893225e-01
1.919009561917270623e-01
1.677220383863242403e-01
1.939849871205071852e-01
2.106817632327120937e-01
1.659624941609252891e-01
1.877345108359438075e-01
1.924835651743279641e-01
1.860234784147307141e-01
1.619858200964225947e-01
2.194487293110657100e-01
1.367886359278844000e-01
1.802682569703796256e-01
1.780544348697875590e-01
1.826069280324022492e-01
2.424310480955002844e-01
1.883480865302255558e-01
2.283020022239077851e-01
1.987902514032725554e-01
2.064064390192065224e-01
1.820418164898392754e-01
2.103051471209628209e-01
1.675894111349934823e-01
1.699427826155048282e-01
1.646928888261573465e-01
1.457175463949573202e-01
1.730390325508384952e-01
1.961159313423576633e-01
1.561507573825351158e-01
1.383877787595410025e-01
2.167449295982114277e-01
1.423032532169395126e-01
1.715554630129402236e-01
1.452605240095680150e-01
1.727904136009655034e-01
1.342653494138367765e-01
1.295762683524135650e-01
1.244552310342127710e-01
1.136284344842405647e-01
1.181928354585817936e-01
8.824868959279635883e-02
1.212265023159943972e-01
1.827432885169074650e-01
6.830998407629083891e-02
1.008477017493978056e-01
8.688594255492429475e-02
4.751971313189540247e-02
1.000307518213023744e-01
5.846879259262141582e-02
4.637591097343646968e-02
1.033453828360235693e-01
4.746872831965469330e-02
8.819883436840351976e-02
6.494857866480319153e-02
4.725161801592536043e-02
5.925524876909224470e-02
5.961583893305716364e-02
2.675875696431259665e-02
1.706731129438162492e-02
5.005339987610439578e-02
1.040095173300351061e-01
-3.152255647938807803e-02
-1.975447738722770769e-02
-1.849696695788697817e-02
-2.505350452880340806e-03
-2.505910606975537275e-02
1.962707840663539122e-02
-4.496695022488263888e-02
-1.702544144483433136e-02
-2.161530488440886744e-02
2.065419564899530908e-02
-1.295524520033303900e-02
-5.385358468271276428e-02
-6.869160352735020902e-03
-4.552134065019457915e-02
-5.536395464914832532e-02
1.192230532179153896e-02
-3.592055604443124966e-02
-9.814942326520741112e-03
-4.026790559959651794e-02
-1.993521371763186043e-02
1.337469936403503507e-02
-2.410522370049655860e-02
-4.165753938971885478e-02
-7.136808737664071534e-02
-6.065241710027952093e-03
-1.915554194597719057e-02
-2.459648261238330663e-02
-3.741690461962237507e-02
-1.911591580867726126e-03
-4.928790884706907294e-02
-2.007087363087666637e-02
1.753679749363916407e-02
-3.487531683226888224e-02
-4.763934686036384175e-02
-5.434306649370278242e-02
-5.481865887487893940e-02
-3.668933554997786534e-02
1.191266748405840625e-02
-2.459128025241237581e-02
-3.122030305101895081e-02
-3.267474068342172966e-02
-8.315246164381878691e-02
-3.903551452180003406e-02
-6.332551455049198474e-02
1.031973157029154875e-02
-6.019664409578662917e-02
-7.315492591799865885e-02
-8.373560397142559841e-02
-5.413943304650882526e-02
-1.167508967561552702e-01
-2.259374957276456819e-02
-1.957067175671915044e-02
-5.758248709414703903e-02
2.845093066194834264e-03
-2.603280399259702907e-02
-2.341770746805484429e-02
9.560296175264729190e-03
1.999807848246824837e-02
-4.177928122266916927e-02
-5.153167363644926835e-02
-1.672622279114399646e-02
4.438244940638240432e-02
-2.194124765901706020e-02
3.387020995292433501e-02
-2.068184890022089703e-02
7.798190636378793394e-03
-8.180345714333958629e-04
3.293943255521523256e-02
2.930559751546058661e-02
2.419333973107368196e-03
1.925769048060350236e-02
6.333296818474110079e-03
4.985820138598311135e-02
1.712670290082236174e-02
5.521050131804968591e-02
6.896823001200211301e-02
8.152298305125726952e-02
8.656470488645526262e-02
8.100849180742500377e-02
4.294264036544089003e-02
5.372344469760498287e-02
5.778414183556451755e-02
8.600225283840977342e-02
1.245061047274544086e-01
7.446176499042665708e-02
8.947655034742868496e-02
1.378594716990778346e-01
6.355737281722152743e-02
1.528276384458248371e-01
1.280877227130804152e-01
9.033128638991295978e-02
1.027223597024375101e-01
1.651906970588825074e-01
1.002869953979963202e-01
1.375635707272495067e-01
1.778122335351242922e-01
1.157541803067684005e-01
1.170362988169759422e-01
1.839437516651077353e-01
8.543832408560395053e-02
1.182800992928088046e-01
1.328410763513580006e-01
7.569488500043139445e-02
9.002062951387161671e-02
1.119275259321597105e-01
1.471191243228696099e-01
1.281830187642279406e-01
1.504208933112542168e-01
1.897209369127655088e-01
2.009570698521772059e-01
1.419402431917717311e-01
2.337598530786452744e-01
2.743560557757182550e-01
2.901517733869576898e-01
3.483942630593386824e-01
4.011833036431861621e-01
4.386883099139221032e-01
4.820671778947549502e-01
5.531976381062138071e-01
5.405640178095640902e-01
7.205705367825498975e-01
7.878296754744696928e-01
8.563203720134351382e-01
8.924839093325326322e-01
9.733449809982568368e-01
1.023996190290152652e+00
1.087455352420547916e+00
1.169621314769609732e+00
1.117665034751400333e+00
1.216302350747613614e+00
1.199662335920430589e+00
1.200191428821969719e+00
1.229252685680688018e+00
1.182054719521456354e+00
1.157242417472026608e+00
1.109687161301885272e+00
1.100159443208762466e+00
1.077386449041154659e+00
1.026208358994364911e+00
9.955968501596437203e-01
8.553770799737392405e-01
8.208087531238168477e-01
7.312923332827400147e-01
6.605219010909797461e-01
5.996750489812875395e-01
5.483933983698379144e-01
4.788738955907279604e-01
3.977317402861849649e-01
3.775360072678696222e-01
2.970360413504499197e-01
2.949862995845963232e-01
2.477399501345732280e-01
1.602475160272255061e-01
1.890382189360148013e-01
2.024497809202282783e-01
1.559846225251035889e-01
1.554458362197724541e-01
1.260711716764891244e-01
1.266879887269298788e-01
1.600521480507416661e-01
1.171943021479233266e-01
9.562914379664914921e-02
6.600200942332748455e-02
1.107817622652594314e-01
1.036451302884843634e-01
9.558044487242389753e-02
1.119565214374678985e-01
1.187565747469470495e-01
1.212641049593828207e-01
1.991675389181259970e-01
1.129186243174662985e-01
1.845306076366369230e-01
1.880232227731408190e-01
1.951275840023475316e-01
1.798905324958203211e-01
2.238301907904305665e-01
1.903075778052865097e-01
1.882454383059900815e-01
2.336937599338089755e-01
1.974632597222551189e-01
1.587349357639902259e-01
2.250807048166416913e-01
2.459850589844211899e-01
2.254002975607539150e-01
2.086976439758271296e-01
2.301148747952062312e-01
2.452340278185445865e-01
1.959979672296794373e-01
1.677126936212362807e-01
2.265333040828413358e-01
2.632104601830022039e-01
1.991656518496768558e-01
1.957415359609955552e-01
2.408487293520752970e-01
2.281511098009267602e-01
2.144080988549317557e-01
2.698746648731464859e-01
2.143501214355965634e-01
2.444971034324426029e-01
2.578934495267345972e-01
2.251825308588004670e-01
2.551151559578254124e-01
2.480976902312579391e-01
2.315024523479243812e-01
2.124621906215249934e-01
2.641178025796154238e-01
2.456425917458489039e-01
2.376194077510146996e-01
2.140194758597055436e-01
1.927500109488146651e-01
1.473422072265269667e-01
2.173855607932217160e-01
1.878013785566756966e-01
2.004174023857944464e-01
2.636377275055704628e-01
2.228656125152023160e-01
1.943892633831877659e-01
1.734547556496252030e-01
1.953375086017751228e-01
1.944385587589109177e-01
1.509641444964731349e-01
1.499948518867092184e-01
1.601106680848714270e-01
1.255767789256508615e-01
1.228740179295516877e-01
1.048438511154943936e-01
1.861383115124596033e-01
8.865355494278905069e-02
8.501522109524349557e-02
5.121124826501115973e-02
1.336001911465746206e-01
8.205387001703398631e-02
1.286788502314518967e-01
1.000550964756806993e-01
1.353485289484362142e-01
6.740253885171122727e-02
9.050816753469824449e-02
1.180178132440110189e-01
1.171680677553297717e-01
1.094602777628247842e-01
8.976416394988742664e-02
6.874689643147122164e-02
8.353834457439218708e-02
2.334476086209844037e-02
4.805245685306001185e-02
9.855204329517172623e-02
8.090982059665786930e-02
1.375008086344637649e-02
5.814263009124966131e-02
1.788854035789952390e-02
3.388578519229415442e-02
8.448012116493948398e-02
-1.683254205142720866e-02
-2.728389488950192301e-03
3.809126165525129892e-02
4.571734518808464459e-02
2.077668371019348453e-02
6.285935713548630732e-02
1.963697754284612212e-02
3.314194727653025502e-02
2.533534865379230561e-02
1.464373129236419546e-02
4.349609198796764581e-02
-4.246998298531159954e-03
5.774242071782980518e-02
4.696554864499814796e-02
4.657756928836424143e-02
8.483938229795227881e-02
2.833436413781170726e-02
1.879777741624900911e-02
2.857895180881712266e-02
1.742626769947999178e-03
1.110740565219515627e-02
-1.159618867109244583e-02
5.388389189495701448e-02
-1.723945801381865373e-02
-1.170725421374028963e-02
6.418807853828470064e-03
-2.025332122846517854e-02
-6.585305931358685985e-03
2.484648459462726437e-03
3.726873697970827654e-02
-2.966668786584956280e-02
-1.457671928858372823e-03
2.370670547761508790e-02
3.033587373646919744e-02
9.385289806600088935e-02
6.073109854290571763e-02
6.731949463084201113e-02
-2.727549348413200320e-02
2.997491144079664216e-02
4.006032038251320510e-02
-1.409367109081258000e-02
1.703542981527364150e-02
5.013100692052575164e-02
5.366829028913316230e-02
6.783543578140927011e-02
3.564450156269222819e-02
1.775075291392094398e-02
5.462267833561175456e-02
4.510631996231997953e-02
5.588515577463231548e-02
-1.106739040958925994e-02
4.807829295143062343e-02
6.400053990752641031e-02
5.480237277241081090e-02
5.436021203756165321e-02
5.811305839241540094e-02
3.975891638530430761e-02
9.598458611030095955e-02
6.552643748457667727e-02
3.360946361639702631e-03
6.483988335927978741e-02
6.480875446389984529e-02
8.263349418377435862e-02
7.768340334725944152e-02
9.857751225251881744e-02
1.125808546011725919e-01
8.769430005288718355e-02
1.177678745504507074e-01
1.408643689781525765e-01
1.148886706515549749e-01
1.499243648913828886e-01
1.742758806589121690e-01
1.105858026409719946e-01
1.518478660936034008e-01
2.079729511233260608e-01
1.578211079431756647e-01
1.292805845335019410e-01
1.719323504328281738e-01
1.551559828626067616e-01
1.248432825466285340e-01
1.600687696943448590e-01
1.328049909126278738e-01
1.196016510430318314e-01
1.963198514667442440e-01
1.012092635430533738e-01
2.141772373250469541e-01
1.899643399393433352e-01
2.182095973535957967e-01
2.236993172472788727e-01
2.078188948566617733e-01
1.617342829196263265e-01
1.567232837735081374e-01
1.799265958622516814e-01
2.082053581719447710e-01
2.379817481384008115e-01
1.550939884165389859e-01
2.152047845250680269e-01
1.996677061614383075e-01
2.097526039620558058e-01
2.408750999818789484e-01
1.603515212810548707e-01
2.584853794723582232e-01
2.448518182832597478e-01
3.330166203138257286e-01
3.544324946143588839e-01
4.352417453270085446e-01
4.740860741441549342e-01
4.613654980020499008e-01
5.431302418174427382e-01
6.433891043119547293e-01
6.736947168227117588e-01
7.485731002257468569e-01
8.461717560414979689e-01
9.120517214638035330e-01
9.439431210971201969e-01
1.038362627564004992e+00
1.097565444288837400e+00
1.180138159734655190e+00
1.184411740319091244e+00
1.262743228922251992e+00
1.246474018465064670e+00
1.295754020308656163e+00
1.320277821783895300e+00
1.314037053529660160e+00
1.290807055076813592e+00
1.257298021531170207e+00
1.245524822656724817e+00
1.195816279779368552e+00
1.131348266631980737e+00
1.089095735816998811e+00
9.592053375361613288e-01
9.484284571471344183e-01
8.139553713622365017e-01
7.675316900878235149e-01
7.337748439875849682e-01
6.543545704647959482e-01
5.404830121439269108e-01
4.740943025299466096e-01
4.647136374154591798e-01
3.699929980236047466e-01
3.383340697364412564e-01
3.222969966845579126e-01
3.322123478587237777e-01
2.421472243900066323e-01
1.886139071890720886e-01
2.742065418796618137e-01
2.441884135336017947e-01
2.177202853944202599e-01
1.972430463250141042e-01
2.551632687119013698e-01
1.984425886549575635e-01
1.896278250486348183e-01
1.815612846780130796e-01
2.010279714456814359e-01
1.680995463319537309e-01
2.262917973798109772e-01
2.354196644394899174e-01
2.384381668891922268e-01
2.030595998083784826e-01
2.201997261941431860e-01
1.737517080198765773e-01
1.805922463661746025e-01
2.460355323872650546e-01
2.550853479861864836e-01
1.800000363778105350e-01
1.983617975818765533e-01
2.134482506704609983e-01
2.561461632904404873e-01
2.370836750163957396e-01
2.191772596604345813e-01
2.485910707500814110e-01
2.518565163773902604e-01
2.925477220431881298e-01
2.606621032708385521e-01
3.156169275139007468e-01
2.133439366855929276e-01
2.910611142232005233e-01
3.427615491793144509e-01
2.778869801118341032e-01
2.755053861239905033e-01
2.656508033932224455e-01
2.432545804246089571e-01
3.198009106938008439e-01
2.652110768769931348e-01
3.166545327535540966e-01
3.015073012348326031e-01
3.095067258951318956e-01
2.611688147838997498e-01
2.992464359222221648e-01
2.882888107091626795e-01
2.927844406243877984e-01
2.103047170997469628e-01
2.998572751454652296e-01
3.492077882146399359e-01
2.418146209877788944e-01
3.061186376431893619e-01
2.680600570424631068e-01
2.411942642364038603e-01
2.481755929763579949e-01
3.097719063151089802e-01
2.712410615759126564e-01
2.551601946026570977e-01
2.079281217317942021e-01
2.676679850793454163e-01
2.794390598872644738e-01
2.518521732608798303e-01
2.041578567568962388e-01
2.497288154973345276e-01
2.851444172719747594e-01
2.198835811779474014e-01
2.509936172588294045e-01
2.084462739418332378e-01
2.048828219315124988e-01
2.115180733500109100e-01
1.896151039858334497e-01
1.818000340613009080e-01
1.911397425841871445e-01
2.146316935673988624e-01
1.832480312856583637e-01
1.748055619102316660e-01
1.769628242415266783e-01
2.138476104551147450e-01
1.320259886934661564e-01
1.770343596871681302e-01
1.775689052672009272e-01
1.428865626875958361e-01
1.802691123706357534e-01
1.672494216499280928e-01
1.599520683234267882e-01
9.259023149966198740e-02
1.106621414754079130e-01
1.028034973230560478e-01
1.407572354558345173e-01
1.424325442301676570e-01
1.042545641375401261e-01
1.009174980666696364e-01
1.717395397422054881e-01
1.079527488939416580e-01
1.126302304661263853e-01
8.892054416245118165e-02
1.331040238184420799e-01
1.028414145022641391e-01
9.333750547968985845e-02
9.214895244538781616e-02
7.072317086017254617e-02
5.256308734623042767e-02
7.898607420227762854e-02
1.233905433893891790e-01
6.623918977642645478e-02
1.047425777081391757e-01
5.966962286232869311e-02
1.354708987937035258e-02
5.265139371135243995e-02
1.824017279850217305e-02
8.809163485968399265e-02
9.417021382675333507e-03
6.577381485786602811e-02
3.973235442170577891e-02
4.260805556102869457e-02
8.642500741316233581e-02
5.605814504383038743e-02
5.796919108587338110e-02
5.540691261082941743e-02
4.576697768225738983e-02
3.319483076189725518e-02
6.645553396944531288e-03
6.776381261313102478e-02
6.499688273498520352e-02
9.006947301769055447e-02
6.767104012996016937e-02
4.200300147227398889e-02
5.068706058313084822e-02
7.272974748661793776e-02
8.872366577826412692e-02
4.388213754523907772e-02
8.945564399560468338e-02
5.439893422137015433e-02
3.728425993085138918e-02
3.858011190281349784e-02
4.988353435582032480e-02
5.888474789034412599e-02
9.466241246118062280e-02
1.178565776315077251e-01
5.598618746775550770e-02
2.223441239901635669e-02
4.739210448130029563e-02
5.769688873889572411e-02
7.682340725637655521e-02
1.647948524373980816e-02
1.040919569600115141e-01
4.762886332498702385e-02
8.618285501912301139e-02
7.583966029660843544e-02
6.219213696269736136e-02
1.253535102386609534e-01
7.468586315597247616e-02
6.275519849935501382e-02
1.107707622170749640e-01
1.247413784542910076e-01
9.611699608588672450e-02
1.114099862137349628e-01
1.387523812216688579e-01
1.077116457633369995e-01
1.108617428367278390e-01
1.461901239767162131e-01
1.225440965333566140e-01
1.082954650733036206e-01
1.359068641172335723e-01
1.117055262063213067e-01
1.431089060057463558e-01
1.787010911945811908e-01
1.176046117132855118e-01
1.572575486924665533e-01
1.808131763072198250e-01
1.653593017185590597e-01
2.130065708901378863e-01
1.768313401336034651e-01
1.905459360310409744e-01
2.238774780816861487e-01
2.010894189186583358e-01
1.880891002476120233e-01
1.783848853755251873e-01
1.891664673753646331e-01
2.061669547021477422e-01
1.745277924834143235e-01
2.386863074179930155e-01
2.694539294354235115e-01
2.015984969095748203e-01
1.506058325539698095e-01
2.256608365222437518e-01
2.058111648090227008e-01
2.227575174085480447e-01
2.018593988805181816e-01
2.315495705709025853e-01
1.819715132809982816e-01
2.169346156540879478e-01
2.155025963623183327e-01
2.204350976936569895e-01
2.354838351945766350e-01
2.447460667558704062e-01
1.901842468074158854e-01
2.575500794438153052e-01
2.513953005581279210e-01
2.555575100865523086e-01
2.891455081176841913e-01
3.113154888941923604e-01
3.352018146001908283e-01
3.125901881650920977e-01
4.080394244704684259e-01
4.417352199418473901e-01
5.073484324357646624e-01
5.498710981242347362e-01
6.746050044955109737e-01
6.683844906062449409e-01
6.954938906594647641e-01
8.075741348192289060e-01
8.674784362236240831e-01
9.570215747366046521e-01
1.005337262501002193e+00
1.102337267468942894e+00
1.142200488722197482e+00
1.205720187630533680e+00
1.283500732743188211e+00
1.276000153099390744e+00
1.258043856877604449e+00
1.296388808804082693e+00
1.270466365470342529e+00
1.283333560549896779e+00
1.173352455929967952e+00
1.270899763760706458e+00
1.158303401072190875e+00
1.172956703171557091e+00
1.073370483167813028e+00
1.020174702755880736e+00
1.008810654687497310e+00
8.800240744478557975e-01
7.889036278347587583e-01
7.324680424101396303e-01
6.416409293867328945e-01
6.391115915238768652e-01
5.688692118614356863e-01
4.868411535922287370e-01
4.676200715874435643e-01
4.167370637024668256e-01
3.502801571083682952e-01
3.311118207194835295e-01
2.871327816069254579e-01
2.498670157150686966e-01
1.729804299934221135e-01
2.249610041255432624e-01
2.207801060842676522e-01
1.699564685531488872e-01
2.305195696506899261e-01
1.943291207618399463e-01
2.114193167373201176e-01
2.063533576146967530e-01
1.954350435519947027e-01
1.831301852122936558e-01
1.814022284468360113e-01
1.549650368300251047e-01
2.533032193720850533e-01
2.230629694767871374e-01
1.883010258340169774e-01
2.386467579701682939e-01
1.912868179782137301e-01
2.485726280105783059e-01
2.478950705439100788e-01
2.198381727142125208e-01
1.961271726316621833e-01
2.328325948686082725e-01
2.549839434962204443e-01
2.088870746600769990e-01
2.388571490638461969e-01
3.025063408048577207e-01
2.646552240323852279e-01
3.494578020144461505e-01
2.863156842085715081e-01
2.703057049785647648e-01
2.517517205697967220e-01
2.468182056662741874e-01
2.878576256566067193e-01
2.708069812635932050e-01
2.772778956332930256e-01
2.939484537621872007e-01
2.690328903515926129e-01
3.162374746302100692e-01
2.993462808696440436e-01
2.736552653003606062e-01
2.984086123820166025e-01
2.225754017554407160e-01
3.024258441702267763e-01
3.011287152323062766e-01
2.273110674654532648e-01
2.319985301168218106e-01
2.767549237135020213e-01
2.652209186679224118e-01
2.804914766819777694e-01
2.814499422267353057e-01
3.231479005992369813e-01
2.636022621014892930e-01
2.895222601456516887e-01
2.538467528041016275e-01
2.761257958487098874e-01
2.483065923124977981e-01
2.173395898818904770e-01
2.343423080193245966e-01
2.599290207174561607e-01
2.093626239055800808e-01
2.419795532823824091e-01
2.445877858917389069e-01
2.403086344213061221e-01
2.475407483150543486e-01
2.813811151218335027e-01
1.771274096258589059e-01
1.988413353963460473e-01
2.033859850630211075e-01
1.848048110427752411e-01
2.298066391003793785e-01
2.268565521202827451e-01
2.514580780316681974e-01
1.748637838051410320e-01
1.394407610897313854e-01
1.618804764869151425e-01
1.346469344912197830e-01
1.834995063124308379e-01
1.762157077878103717e-01
1.717865473944044374e-01
2.064775800219078583e-01
1.394674791460415730e-01
1.150406460501550432e-01
1.283750582387896411e-01
9.607686802192474951e-02
1.000925447590670647e-01
1.168913840032741180e-01
1.271138253933388196e-01
8.321656678296279752e-02
6.486246555967409289e-02
1.218113134750238025e-01
7.039589008567810613e-02
9.756524525088618172e-02
1.239225322321486356e-01
1.105642084879712300e-01
1.008121955058573493e-01
1.125814098447736888e-01
8.409061813246475336e-02
4.087878322872420117e-02
1.451485080548554907e-01
8.201535837510712246e-02
8.046079650470311373e-02
6.906393308466539371e-02
1.045782161850246014e-02
3.317592395896511170e-02
1.064466158653054884e-01
-2.470328533263666665e-03
4.989786108137825305e-02
5.974912769493014031e-02
3.946212357669550558e-02
1.090908536530824230e-01
7.654145909054485553e-04
2.367568093910753929e-02
5.383236349686264244e-02
5.482976650827666582e-02
4.477732736196317342e-02
4.879010665693027382e-02
2.051936175337101126e-02
2.852319054718591151e-02
6.358107265421384519e-03
4.901911523145158212e-02
-1.474378971596780954e-02
-5.302015181085979745e-03
6.143261896481047590e-02
1.685943546031540632e-02
1.065105237095836793e-01
1.987430081624438558e-02
1.975199069883763758e-02
7.282274999220200717e-02
6.254655240511725056e-02
2.727405672362364503e-02
3.041894735193623883e-02
6.346169317554492539e-02
3.959578426169466092e-02
2.383655776648950161e-02
2.876248168850815273e-02
9.399951455366220565e-02
2.611863293126284041e-02
2.679688493398368898e-02
3.591791399222765691e-02
3.998882578159035361e-02
1.710791188807628607e-02
8.855365600826074768e-02
3.114426155477448277e-02
5.881300737451743837e-02
9.486039375179391997e-02
3.754557009114906085e-02
6.173291207969035244e-02
1.523432986360212862e-02
3.124292796935172409e-02
6.142320376464214388e-02
4.809060913947074689e-02
8.567359732694300456e-02
5.079676968828329697e-02
6.170219669224515091e-02
5.426507867620865289e-02
1.099152451375517842e-01
7.439543946964471965e-02
6.478580925788653133e-02
6.202534684067605164e-02
5.954216718793302332e-02
1.170095473907623584e-01
9.810438343135619021e-02
1.930588648926564177e-01
9.272970143329883896e-02
6.684449006234632895e-02
1.112878374974559381e-01
1.898010087754789521e-01
1.366291485397482797e-01
1.277458158567372493e-01
1.182059610247277875e-01
1.282186151086143477e-01
1.775485844726096274e-01
1.199591658159441382e-01
1.491998708664762918e-01
1.557432054745145622e-01
1.544285940810296576e-01
1.473622969346024547e-01
1.153449116017762760e-01
1.672715474895016263e-01
1.541814151031796198e-01
2.006787364793798933e-01
1.596064353102915612e-01
1.638543568837717290e-01
1.705835092164172950e-01
1.803035495009503164e-01
1.121173515946857213e-01
1.753685618360256160e-01
1.150054859076639902e-01
1.547685133037551009e-01
1.852690991707627022e-01
2.286934869851378616e-01
1.380377655828345373e-01
1.449676112714571308e-01
1.225966303415502862e-01
1.561358087054163790e-01
2.531897803344365094e-01
1.456815870151759174e-01
1.116972022847891599e-01
2.463226099922653511e-01
2.642053072714409812e-01
2.626416188955315589e-01
2.923699493507678215e-01
3.444130894280394428e-01
3.825880832922577968e-01
3.707085854355849364e-01
4.122561801727467334e-01
4.732587454259860049e-01
5.388512624011052576e-01
6.465650222009051706e-01
7.228390242082166628e-01
7.497345610189944942e-01
8.385510067602037765e-01
8.971870895556717240e-01
9.431013444510666366e-01
1.006575962794380441e+00
1.094791532668451417e+00
1.168764913341768796e+00
1.203470556846547357e+00
1.220912069881581630e+00
1.294011236333751924e+00
1.313091242124950764e+00
1.223211723690257990e+00
1.223427212689118804e+00
1.194522797736532693e+00
1.233145115778375267e+00
1.155753496125301316e+00
1.115249772065128209e+00
1.073522271648716053e+00
9.912028829753001258e-01
9.041956765388331485e-01
8.199794076844040269e-01
7.743421808227386460e-01
7.345090990754258309e-01
5.907607304414735916e-01
5.608509547761251213e-01
4.554828139555094357e-01
4.838488581648718867e-01
3.541315311251331810e-01
3.092246816505272444e-01
3.413665992443175035e-01
2.613807555459535248e-01
1.958933739352229086e-01
2.409149182525504584e-01
2.076410003739722343e-01
2.458103003825088673e-01
1.379256279533769836e-01
1.352186565938239271e-01
1.356803717296713452e-01
1.828438876620504250e-01
9.142315378945869986e-02
1.388049764683881027e-01
1.573756350930857750e-01
1.865285635862918012e-01
1.271410052946320701e-01
1.644630329726124163e-01
1.402308694287573987e-01
1.258417021480004727e-01
1.633888105629709708e-01
1.624684649176086904e-01
1.902531674446819310e-01
2.385660795182636129e-01
1.968582197872808248e-01
1.878346714864666533e-01
2.085682280860851057e-01
1.739421832395497136e-01
2.237768585779620900e-01
1.841320230965357574e-01
2.173183456140365954e-01
2.044048386028947673e-01
2.064112786094909890e-01
2.653797260476658537e-01
1.937323498612442685e-01
2.378061034275584240e-01
2.129527036434074039e-01
2.551543160439156410e-01
1.906872308205041777e-01
2.220455959192685624e-01
2.060410786786956716e-01
2.822210347566013744e-01
2.747611817643719201e-01
2.156227347853542087e-01
2.028627299137908679e-01
2.242736288514115828e-01
2.618441757696047256e-01
2.461292944817649597e-01
2.254015781524201234e-01
2.703495765980991616e-01
2.456986939248450019e-01
2.083445147693555877e-01
1.700759667506880346e-01
2.922914867266232508e-01
2.197569996100155187e-01
1.546363258060803880e-01
2.324284903329695839e-01
1.702924389327483967e-01
2.558145333196756854e-01
2.506277057278493703e-01
2.035194549440563494e-01
1.735135720262373504e-01
2.174021866557587779e-01
2.350599259752158277e-01
1.913658609991347181e-01
1.786662995078070193e-01
1.629612761797091247e-01
1.702795289677316026e-01
1.711666308253514956e-01
1.561191312925556962e-01
1.368586300386844257e-01
2.104523503739609280e-01
1.484462864723344599e-01
1.346028014344388124e-01
1.511517321905102018e-01
1.472006603891132526e-01
1.328392709262522231e-01
9.528140742069193814e-02
1.239143624383913372e-01
1.232853389448719528e-01
1.233495427922965959e-01
1.164521621479132213e-01
1.089508200095758578e-01
6.610985436764156564e-02
1.695048333578683952e-01
1.019441593216855596e-01
1.062434589266789964e-01
9.702522324178264324e-02
7.041557410579235565e-02
3.942534670787494616e-02
5.837118183316676590e-02
3.184176021506127108e-02
1.066921884251258862e-02
1.147874898319359432e-01
7.253880323370298644e-02
4.724550551185204006e-02
4.245252551552620990e-02
5.506155215975573614e-02
2.941118241061791913e-02
1.119871833181903739e-02
6.720704562903012658e-02
-4.346279555034828629e-03
5.563114739522601049e-02
1.790215203881453249e-02
2.192053252540800481e-02
1.067700711503399152e-03
-2.546492094004476972e-02
-1.554787318042054681e-02
1.326545235068731995e-02
-2.413877832249347599e-02
-2.585943233037643271e-02
1.945173075643052626e-02
8.097547479926754666e-03
-4.491736137437025989e-02
2.782058811960690450e-02
2.885561163079439218e-02
-1.847153752738178722e-02
-6.349355333919394495e-02
-5.560175050582648326e-02
-3.167881955485927353e-02
1.985878085008881827e-02
-1.243121773475103914e-02
-5.460502654739998046e-02
2.497387231701898511e-02
-2.115125200354888574e-02
3.655037664507324036e-03
-3.072369111101742184e-02
-7.950166983106535246e-02
-7.526444689142969269e-02
-4.809194413384247635e-02
-1.418973426514994265e-02
-1.078251865371652324e-02
3.187602133343003796e-02
-2.477904655564389103e-02
-2.718864584393968636e-02
-5.346572760637643973e-02
3.223132736715456081e-03
1.941475537488444175e-02
-4.269262970830379339e-02
-2.712071029514046341e-02
-1.260281846904494352e-02
-4.677360755153337629e-02
-7.518146461842256656e-02
-1.683790622761378863e-02
-2.958138338701989112e-03
-4.712649311560273419e-02
-1.845109713828289519e-02
4.527683150795045602e-02
1.794483118385956782e-02
1.595640308773065008e-03
-2.784355443315533751e-02
9.140485423513304564e-03
-5.681657450363695322e-02
-8.402028256364307141e-03
-1.863563255841592728e-02
2.221968940088357020e-02
-6.285894843633579865e-02
8.080815911463790080e-02
-4.605409209991730146e-03
6.038907703894054457e-02
3.724879960243395599e-02
2.879648232936418001e-02
3.000399246958016658e-02
2.905012360823679141e-02
1.626957811806820781e-02
4.758298207796648333e-02
3.308668188487339651e-02
5.985622398418369988e-02
6.011946301287120903e-02
4.014598584542827114e-02
4.143204123590591564e-02
6.894294566334116525e-02
7.790362286577036388e-02
5.472789513737000983e-02
4.350312003178315179e-02
8.545751270439592984e-02
9.240486200265515815e-02
8.906610723449104317e-02
8.635684093723991483e-02
1.164067819451243962e-01
6.656812415131804772e-02
7.352426743510273588e-02
8.411128452605597106e-02
1.001607986807439288e-01
8.666407158256714260e-02
8.904990517369991421e-02
1.361062187760279651e-01
1.075744736373408228e-01
1.349577977360025272e-01
1.116107481528521017e-01
9.043637118877528858e-02
1.451661352833917284e-01
9.985359016311431968e-02
1.221061103506388967e-01
1.340412010902801709e-01
1.065721588527912267e-01
1.052888946041276308e-01
9.058857780001002002e-02
1.192718773258435172e-01
9.631160523405560281e-02
1.156081611121155261e-01
1.195810832820417002e-01
1.219784933074926636e-01
1.583303999990446631e-01
1.991740773607655612e-01
2.064634141908609222e-01
1.471260671948412257e-01
2.334863480006648118e-01
3.306076186325666577e-01
3.038274836480444607e-01
3.335608878377324671e-01
4.296875197273066216e-01
4.437092247709314430e-01
5.376883355052107794e-01
5.600262695237647748e-01
6.436273935948324532e-01
6.807921612663552224e-01
7.999031325114477342e-01
8.386241993520606730e-01
9.126338111823671939e-01
1.002256339155692455e+00
1.048721816782063110e+00
1.084093502246717966e+00
1.093922924302172639e+00
1.169402998911505343e+00
1.188754850695638909e+00
1.215582180068611295e+00
1.212702836347507196e+00
1.248730697047782501e+00
1.207761835246076609e+00
1.150812429519086022e+00
1.141508358074745377e+00
1.114357592648969941e+00
9.950183117634975316e-01
9.441734715184636473e-01
8.632361038132299047e-01
8.243629941558594521e-01
8.046016485055070833e-01
7.066339655499723760e-01
5.924430667743368906e-01
5.549360187010080603e-01
5.103472869134985102e-01
3.667876553497201875e-01
3.330392624794220602e-01
3.437464830756371548e-01
2.299864737258453529e-01
2.402054562321589426e-01
2.290155106586106437e-01
1.910952811497553250e-01
1.574581145843368113e-01
1.845887901208250192e-01
1.551550211557579662e-01
1.863617879026628898e-01
7.950921680594358332e-02
9.262878491242024226e-02
1.038077108293043727e-01
1.438392836226244920e-01
1.274461271337201662e-01
9.447308825457848003e-02
7.960688399469265097e-02
7.929151862350064528e-02
1.677606341420762592e-01
1.186120247503728159e-01
1.294393327930250526e-01
9.795258411818894007e-02
1.331413278415647383e-01
1.109886197599320445e-01
1.451217884313906192e-01
1.356489080269156766e-01
1.285873267260811970e-01
1.902622034415961672e-01
1.969102778811188392e-01
1.774777858773724792e-01
1.126706925084045574e-01
1.385948297516637895e-01
1.434484561535519231e-01
2.337074363601514548e-01
2.122933289317587846e-01
2.242704253297143069e-01
1.638293861423714137e-01
1.428202372790779717e-01
2.216511532757179381e-01
1.252027561713219828e-01
1.974703472814582916e-01
2.147274565568645932e-01
1.643022309743362996e-01
2.442271266342238289e-01
1.911520912684248341e-01
2.099793600968335727e-01
2.163815125447458576e-01
2.060223469096136850e-01
1.831216941313554003e-01
1.750296055197273493e-01
2.099109773903018172e-01
2.161460028810756051e-01
2.252326828884889387e-01
1.897571369077364900e-01
1.946473160387306167e-01
1.635843268466845579e-01
2.183000816380587239e-01
1.595516921294169999e-01
1.997368996439967126e-01
2.093451090808160497e-01
2.055124383429511870e-01
1.312260532934313717e-01
1.220416329045426046e-01
1.369085061896436195e-01
1.286833589659602262e-01
2.195795030446943963e-01
1.629859317119690398e-01
1.094481572081513476e-01
1.129693132139856226e-01
1.850973909278593732e-01
1.722085729229740347e-01
8.879058767828137966e-02
1.468561805727942871e-01
1.091951246995920971e-01
1.075254611205529731e-01
6.796051536713629271e-02
9.174220530427038001e-02
6.744487034943916215e-02
1.314370994683190519e-01
5.939625164756799636e-02
1.182276719937097043e-01
6.687896658994234300e-02
1.595540543903645192e-02
4.892455832684438483e-02
2.580785956888898003e-02
7.225131116111198348e-02
1.786991719904552911e-02
3.480192701508055819e-02
5.341818859579331585e-02
3.268145492259094675e-03
7.668474794352198032e-02
3.692175306112698702e-02
2.940115207739808778e-02
-2.234175946625544668e-02
3.452398322319624735e-03
7.060754106983049838e-03
-2.513961889108572156e-02
3.413570020527461474e-02
5.826053344787106292e-03
-2.436523457833579542e-02
-1.184529184502224053e-02
-3.410113250918223038e-03
5.242777449170279297e-02
1.906214751357056258e-03
-3.695924591457012964e-02
-3.508279500338268991e-02
-2.963717073523866596e-02
-2.394468171399613543e-03
-9.973030902326478209e-03
-9.594533939620800145e-03
-2.863160762526103728e-02
-7.415539874254103991e-02
-1.288995697524786960e-02
-5.394667798376037715e-02
-1.598110331596556272e-02
-7.052880482933027162e-02
-3.521241045865746572e-02
-1.378587071800480013e-02
2.258667781491904836e-02
-5.403298836001153849e-02
4.797307460810182334e-03
-8.586951958547216213e-03
-5.103840448472302116e-02
-4.053985062048370142e-02
-5.782449239104608951e-02
-6.377085194312133443e-02
-8.596741149220077371e-02
-7.244357810340279480e-02
-1.190920920979737785e-01
-3.904181072595711011e-02
2.221697218181925559e-03
-3.567982348359685640e-02
-4.145953361475532978e-02
-6.110710526778925095e-02
1.449152454911789567e-02
-1.105082910400461554e-02
-8.000952379277032067e-02
2.130060163154030850e-02
5.079802981096184777e-03
-7.164208483678767558e-02
-1.582678172463263672e-02
-4.406603669769214304e-02
-9.661846964809074623e-02
-6.389024276503475763e-02
-1.245592572607299997e-02
-1.493444126238941544e-02
5.027517372222770758e-02
-2.548964021961185739e-02
-8.350914322772043374e-02
-5.681878483644334232e-02
-3.882389709326355270e-02
-3.218167086449520709e-02
-3.090551935614737483e-02
-8.899879080243547347e-03
2.899251869186088987e-02
-1.202492226775202233e-03
-6.785339365978149129e-02
4.130622048735967111e-03
-5.759826041599583335e-02
-1.970993272741276489e-02
5.600298064153751143e-02
-5.365504573347524425e-02
7.012862966754979110e-02
3.120972707208061886e-02
2.954947047424531098e-02
-1.658090898645713657e-02
3.079854985798591294e-02
1.791277407544502459e-02
1.138956877498674414e-02
3.822477578203838794e-02
1.173703498770336806e-01
7.497111049730317833e-02
4.938466339627061580e-02
7.176980173408259445e-02
5.218229414914987707e-02
9.064510857650043274e-02
3.684515214621919554e-02
1.035142635282773338e-01
3.589072868379240833e-02
7.686929069377106127e-02
1.222294209445126123e-01
1.466974008189969592e-01
2.769375839703955289e-02
6.228856966876959028e-02
1.008224105807278836e-01
1.242099394878034002e-01
8.607334285512907579e-02
1.050930365154708890e-01
1.081760043550903660e-01
1.060047718468891120e-01
1.082646044066036817e-01
1.107797061282472517e-01
1.597394569929151964e-01
1.049753530779330007e-01
1.496042426511438872e-01
1.107956595813627404e-01
9.197667870325454409e-02
1.065795519418821224e-01
6.517022653990361958e-02
8.745065887473574273e-02
1.029107079440765571e-01
1.354156342908365007e-01
1.894630371010554704e-01
1.408046111341396400e-01
1.347320000213503843e-01
2.092881496399669472e-01
2.116924951511349184e-01
2.675280925894492068e-01
2.933272404691979474e-01
3.176973605826474700e-01
3.534761512045491716e-01
4.194983524460655921e-01
4.701217319347825163e-01
5.292340030849592702e-01
5.908659977372867633e-01
6.269818158139653930e-01
6.735066369058572144e-01
7.689208047352613651e-01
8.264812822327317621e-01
8.799783111397880830e-01
1.021945071341139544e+00
1.035344071771244767e+00
1.059630003811298682e+00
1.179047823316494270e+00
1.180954133640103487e+00
1.235761887545762994e+00
1.212164341092184072e+00
1.246765724758922333e+00
1.241993702661988719e+00
1.208222725804461772e+00
1.157423310215452306e+00
1.149210366868314237e+00
1.107012611924535372e+00
9.970404613847150266e-01
1.043596770872339263e+00
9.530988251733006900e-01
8.389545404773816051e-01
7.891814885528695145e-01
6.922985343350426257e-01
6.046766846718797384e-01
5.857605044805799244e-01
4.701408873057198456e-01
4.476558769231331336e-01
3.637426142930133000e-01
3.107782589814850338e-01
2.982751134726558395e-01
2.886335776495830285e-01
2.340155029930997277e-01
2.019531937385719289e-01
1.247363855518401482e-01
1.553978726353358319e-01
1.057070197703358500e-01
1.397215792420716252e-01
1.306856927031713467e-01
1.244202750951802355e-01
1.226237333300591870e-01
1.377249453823435887e-01
1.401449369769791897e-01
1.349067672664945317e-01
1.563474620155834161e-01
5.800332403807481607e-02
1.040994410157528166e-01
1.514923529543291680e-01
1.428294718379597428e-01
1.213779743478393264e-01
1.649881570092230909e-01
1.787067018275589891e-01
1.386993801239720103e-01
1.467974704840455391e-01
1.217300349882562416e-01
1.724173909842152408e-01
1.785131979795651913e-01
1.524458216231053820e-01
1.728016399716632567e-01
1.909622685396179520e-01
2.239590264160067068e-01
1.885578340445886736e-01
1.764624363438880850e-01
2.513030219067840521e-01
2.307346401927573565e-01
1.737974168741263092e-01
2.367855618458143407e-01
2.020013676794897295e-01
2.506149028719941163e-01
2.092442638708030267e-01
1.694264951163873545e-01
2.075175900577273802e-01
1.993075351049709565e-01
2.064942633058622079e-01
1.580973703216280724e-01
2.236170496566096122e-01
1.660589054049129154e-01
2.229972190955708533e-01
1.538109111749773605e-01
1.924304624156847054e-01
2.406347339013249487e-01
2.437350607813984771e-01
1.972580744988320089e-01
2.355699347498887986e-01
1.622419334006552916e-01
2.439181389312373160e-01
2.473435016498902184e-01
2.028282200590120488e-01
1.928807782323181397e-01
1.324225236581133558e-01
1.975886466302626543e-01
2.155654756015060181e-01
2.028717287261014579e-01
1.925557744491039891e-01
1.409855413363194643e-01
1.836579012985880555e-01
1.495554197844778943e-01
2.135939538174031205e-01
1.845343892436378808e-01
1.698566649242097826e-01
1.584031861430540422e-01
1.239937612056159766e-01
1.232069770781085982e-01
2.003039467242785643e-01
1.112527708937162824e-01
1.337867629909108846e-01
1.314690004966574677e-01
1.237352128440920712e-01
1.242676621835739903e-01
1.702581234393765464e-01
1.137979765163166096e-01
1.197683328962987626e-01
9.117620647338688100e-02
8.997602850809185981e-02
1.054418552546192156e-01
1.292079325604227058e-01
1.215177455933096479e-01
-1.610269818322377505e-02
2.434503900068042681e-02
1.330407948415265329e-01
5.096568102614470325e-02
5.172822598172433645e-02
4.221691791460568943e-02
1.703292619504187533e-02
2.966274917295037145e-02
3.335559199032299416e-02
3.150277930783924873e-02
1.420298648004641485e-02
6.824147009309647349e-02
3.524946921019331270e-02
3.985076212124607359e-02
3.565398889573032082e-02
1.488831392263656288e-02
7.143361511985985707e-03
-1.822941828824474475e-02
4.592545968499878867e-02
1.790368412790254576e-02
5.734336241258252559e-02
3.019637044636161449e-02
6.472578475196860692e-02
4.373319480948605238e-03
-1.468853022205961548e-02
6.902887583586185538e-02
4.664903070072239089e-02
-4.488136741612756830e-02
2.372210709891699534e-02
3.025708927943493443e-02
1.529953090749229007e-03
-3.106320676654539259e-02
1.250333755499571931e-03
1.203837408060444772e-02
-1.535210015356824539e-02
2.689527586556853672e-02
-4.329483523600918815e-02
9.916344020468779996e-03
6.261082240913350139e-02
2.219779031828797086e-02
4.755011941575135875e-02
8.709999556744639493e-05
1.047566975180501056e-02
-8.603455469350616835e-03
-7.373688189158910528e-03
2.013104716492489926e-02
-2.284697476480506209e-02
3.075106772728036092e-02
2.094917777461085401e-02
-2.948954084564381350e-02
3.679666399024279083e-02
7.177443825684737266e-02
3.619097082712316449e-02
-4.755833263322034599e-02
8.306334145865316987e-02
-5.332719710134208729e-02
-3.695714783163007999e-02
-3.655694311343331976e-02
9.573782025794733835e-03
-3.859739059517865861e-02
-4.566478060731093969e-02
2.987282244279174971e-03
4.260739211029073922e-03
1.947813022888356463e-02
4.538738848623748157e-02
7.798273580433894014e-02
3.600289814953125389e-02
5.351382904080367875e-02
3.465915245892298158e-02
8.190750137443365830e-02
9.624240102710077127e-02
3.681270923288084557e-02
1.822909196570279833e-02
4.503075081973047927e-02
5.295037912661643142e-02
6.475183887349747480e-02
7.608302223088662941e-02
7.395866759809309465e-02
4.725151243969789860e-02
8.246947879848036400e-02
1.031603779866519244e-01
1.448871676307584011e-01
8.701792897217143496e-02
1.082535339225066395e-01
1.097886401700185754e-01
1.026596708359995697e-01
1.079812430917055782e-01
7.121977065015960839e-02
1.447387807764442258e-01
1.554284484684795575e-01
1.267947696623671350e-01
1.578102628764862236e-01
9.401616840900031691e-02
1.936364984343328099e-01
1.290246937372853397e-01
1.467622278091842425e-01
1.846346009951889133e-01
1.153220145170047450e-01
1.460311653141727617e-01
1.399876169309893781e-01
1.791273944093480786e-01
1.352939024593471373e-01
1.869001812663878548e-01
1.722618188240387094e-01
1.181981342356895615e-01
1.906828226573648588e-01
2.220046176000893545e-01
1.396742894757344866e-01
1.529634369637762337e-01
1.316530088003873555e-01
1.720981426981620932e-01
2.111865948385711622e-01
1.644013490537268030e-01
1.655843992102400131e-01
2.424793555985725324e-01
1.955125409311641305e-01
2.146425833759868229e-01
2.505076344312361925e-01
2.315036257629276562e-01
2.892553439089504685e-01
4.065355601658555140e-01
4.135500510419466424e-01
4.573093180849878703e-01
5.099278285763388929e-01
5.672583428710763487e-01
5.980020660984564085e-01
6.738370410140299693e-01
7.554611329788180063e-01
8.005337760796060742e-01
9.249960350038607393e-01
9.042539996314153949e-01
1.012360110770385901e+00
1.117538289158967135e+00
1.170581387034456577e+00
1.174525387193766868e+00
1.238840844777659989e+00
1.268364528076390219e+00
1.343304008258270343e+00
1.261319005921140324e+00
1.286979808117564295e+00
1.252015995566677864e+00
1.282795038155862821e+00
1.195109150452813074e+00
1.133577293925846829e+00
1.119363467705105863e+00
1.011888908895535399e+00
9.752364725733436712e-01
9.203932559704813832e-01
7.774391522237646956e-01
7.341596916903017078e-01
7.465229481877885265e-01
6.290139058220598489e-01
5.251235780883882764e-01
5.049231508980798200e-01
3.907827976422436622e-01
4.036867366901022436e-01
3.678210860094082713e-01
3.161722226134044966e-01
2.646213390509188357e-01
3.138857435627803172e-01
2.283263267973252297e-01
1.638162907902171450e-01
2.018643612689519085e-01
2.314855690338438743e-01
2.374587218350907858e-01
1.030737612122815949e-01
1.560466470429848485e-01
1.687843205399022217e-01
1.853409513755820970e-01
1.409870278897367157e-01
2.009291507624590967e-01
2.152326324065914620e-01
1.645280349071400472e-01
1.936947877795218431e-01
2.239018749659969776e-01
2.570740282255100095e-01
2.403492689988259712e-01
1.977801301819340218e-01
2.317750440532950762e-01
2.158537796584339419e-01
2.050904350854142189e-01
2.470361021499325460e-01
2.512110875968932566e-01
2.407782123395929286e-01
2.752873348869260273e-01
2.407786142742791846e-01
2.504126761326643802e-01
2.627821177593771540e-01
2.700235534563298900e-01
2.359450241397176573e-01
3.233600673046982399e-01
2.897606125420313372e-01
2.722529540682598337e-01
2.752611781956886272e-01
2.744064496199576375e-01
3.223980390137906604e-01
3.088786169405037807e-01
3.005014740728489953e-01
3.568513562686236873e-01
3.010456439380426175e-01
2.567886160122471173e-01
3.062137907412088023e-01
2.999414189951733478e-01
3.252330349050925884e-01
3.053632405813819783e-01
2.862541494451893431e-01
3.098780620281411102e-01
2.291336291381939061e-01
2.922327712158911961e-01
2.930545844868812644e-01
2.337407144462733677e-01
2.750406830217111409e-01
2.487906996307482910e-01
2.526777000573315890e-01
2.904293338134192326e-01
2.284382391923981681e-01
2.491342168750410035e-01
2.244846155379802977e-01
2.552112815355640496e-01
2.544895216584920350e-01
2.016763783280537958e-01
2.258230775718405026e-01
2.260240821074800954e-01
2.306838970115211163e-01
2.510429425503664658e-01
1.892132115201199394e-01
2.009564767445011779e-01
2.477142879460849934e-01
2.270345818571103125e-01
1.698283577155146329e-01
1.903781861374079232e-01
2.013726972398183768e-01
2.106287061775447556e-01
1.887146480272991755e-01
1.865568137901100210e-01
1.824519012689277964e-01
1.660183882501816977e-01
1.124671408535330847e-01
1.402013473769596619e-01
1.878118059727062195e-01
1.720410588746902336e-01
1.412982748153764900e-01
1.301100377027667176e-01
1.109105857208304291e-01
1.030871883721621030e-01
1.534064718900122748e-01
1.115533334893879652e-01
1.260898312229458418e-01
1.857180626693170356e-01
1.129894542304754612e-01
8.387538734883789870e-02
1.294141300546217677e-01
1.322094893054958087e-01
3.853548203895302421e-02
1.312727926837139458e-01
6.393689038724048590e-02
1.366663455192043408e-01
1.239188814371205982e-01
8.706182440146162382e-02
5.544590002385842153e-02
1.115110338750116004e-01
8.898907702955238808e-02
5.116244250226333057e-02
8.818057008208990410e-02
3.678383772410195873e-02
7.699214549871824520e-02
7.596167871998421584e-02
8.016805284405666143e-02
1.007391527114240848e-01
4.825137800236113661e-02
4.268087186773961150e-02
6.154736570682585450e-02
8.413572241480977987e-02
5.241352565163980015e-02
9.601452801482349142e-03
4.908868257600718793e-02
6.102740278794662604e-02
3.225934873423775412e-02
-1.552773632783256696e-02
6.382798353187787987e-02
1.478253282511503286e-02
8.268697355438420216e-02
1.224553500486523089e-01
2.628495366125595950e-02
6.349303310027634706e-02
6.181665810549120954e-02
6.781760291992622314e-03
-1.982116308375467956e-02
1.234525022858178750e-02
4.412628449151535792e-02
1.266905005106449544e-01
7.110309218529893560e-02
2.786853059305632527e-02
2.815563616052359566e-02
3.510612883226264802e-02
5.944580560185430684e-05
3.077316976928026748e-02
7.216331022385852334e-02
5.267452867929483390e-02
4.848765261129600601e-02
8.714023995325959060e-02
2.985758754009133764e-02
7.819457911502220027e-02
3.295952151520216422e-02
9.408400464971233834e-02
7.323186717980179061e-02
7.853457592503026996e-02
7.206285694658057239e-02
9.508074250563061658e-02
5.597627654710120304e-02
1.148944447211166231e-01
8.003620718950205104e-02
1.058765021960956371e-01
1.143399895230443886e-01
7.525137935629529207e-02
1.168352215471807065e-01
8.362879535934150677e-02
6.233588294003345603e-02
1.200449620430117659e-01
1.834824996563608757e-01
1.033213330867502888e-01
1.428059001864219746e-01
1.565707988773689108e-01
1.017996403233395186e-01
1.226365132774100558e-01
1.832741198586537168e-01
1.700100448056253710e-01
1.569860168574064296e-01
1.120075240924949672e-01
1.463371999756523378e-01
1.834821325015814630e-01
7.761226324080004735e-02
2.001583437651269781e-01
2.134267719544635233e-01
2.369344718437672581e-01
2.243414732335496098e-01
2.010981177085482963e-01
2.150772385291195299e-01
1.833945544524995808e-01
1.795604944915888124e-01
2.110038985121190092e-01
1.746099217232149337e-01
1.876234896792012830e-01
2.670135451307212859e-01
1.796918219023029561e-01
2.093663055331227152e-01
1.537738973154184063e-01
1.779754022036277306e-01
1.784113134894049768e-01
1.993947880607912782e-01
1.773743414110545147e-01
1.962928887875330652e-01
1.914334019967923461e-01
2.035549944564802038e-01
1.636902548669529056e-01
1.726320067937233138e-01
2.507468460982740233e-01
2.205737054380602080e-01
2.571758419011259678e-01
2.798525506966710319e-01
2.911845233106412079e-01
2.738125004792890116e-01
2.826212428634868878e-01
3.667716287891265026e-01
4.208158392977613405e-01
5.075883838070833765e-01
5.760203780943377039e-01
5.837783825933694493e-01
6.317647989815367016e-01
6.967524457383550418e-01
7.656333749049617499e-01
8.163534403194286915e-01
9.480012727362144842e-01
9.643898207154506519e-01
1.054048464116406514e+00
1.116385572708552543e+00
1.093448996957527841e+00
1.182367839002557819e+00
1.264464191974441265e+00
1.322223549656438291e+00
1.310841488349193229e+00
1.333910590118190020e+00
1.277282126964533582e+00
1.296407153828945003e+00
1.233996152701435589e+00
1.255735591950003283e+00
1.187561517124087640e+00
1.184012044670916808e+00
1.070359829637092419e+00
9.576994942650558507e-01
9.456082428958441088e-01
8.509828349462635888e-01
8.221462083978602342e-01
7.018278540324086601e-01
6.937620910147991315e-01
5.506909958286743123e-01
5.752004841436385574e-01
4.371151566109866549e-01
4.054507142029943889e-01
4.057782010545283868e-01
4.115066099374661279e-01
3.170595126924786733e-01
2.448009394209113010e-01
1.939565358830802888e-01
2.741958714707701805e-01
2.805223844335921202e-01
2.527940625032237265e-01
2.169788459662592428e-01
1.834916442569315409e-01
2.184316544228560308e-01
2.119974580495511962e-01
2.607359697087088812e-01
2.180182180069518416e-01
2.311103713823204064e-01
2.037165008942419808e-01
1.810105049892333506e-01
2.131672829490035004e-01
1.458230250379736193e-01
2.220772577112213320e-01
2.364164822437061775e-01
2.147023556628300245e-01
2.466342372101953950e-01
2.726819431703388918e-01
2.487005222074034627e-01
2.462613966192425952e-01
2.415889761944783887e-01
2.497762952993984320e-01
3.207248253356415613e-01
2.414139366457814240e-01
2.498538587095578412e-01
3.007258916864346543e-01
2.524683222967133434e-01
3.050383205776102113e-01
2.534179926491472723e-01
2.837899833474816225e-01
3.143276472964524060e-01
2.517779602530798022e-01
3.124427607358472025e-01
3.190980622386616616e-01
2.854556829878180935e-01
3.329335676697099400e-01
2.901133285213635671e-01
2.927415659887476762e-01
3.175505858438455453e-01
3.330828461461167178e-01
2.109578454446945361e-01
2.326929675868428526e-01
2.556813610336222675e-01
3.118941554786114900e-01
2.983822127669679136e-01
