1.365187143643257439e+00
1.395250015495021367e+00
1.336839410924113070e+00
1.338037708146509353e+00
1.249960283047826692e+00
1.175535156425114636e+00
1.178087589520677714e+00
1.122882942527917871e+00
1.047246446915921059e+00
9.280222731461531538e-01
8.034478071334981708e-01
8.291567665673459375e-01
7.736825458042156933e-01
6.029647611123619688e-01
5.844770431383273790e-01
5.041352421536537953e-01
4.835226291106878849e-01
4.658236953200921571e-01
3.741314756076959402e-01
3.271130342109103695e-01
3.208044429859892022e-01
2.174234517401271716e-01
2.832523539070099794e-01
2.712863586483512668e-01
2.251131837475608410e-01
2.006982289259486296e-01
1.973901090513142942e-01
1.920396187492386109e-01
1.953237290046658248e-01
1.487117013271605781e-01
2.078779370723532471e-01
1.855494449630258336e-01
1.992171398280862538e-01
1.840084746580346042e-01
2.160708401645800580e-01
2.482295252294492993e-01
2.186015090244433356e-01
1.674281292120431419e-01
2.209752371435581009e-01
2.315154395864585657e-01
2.279710124486379330e-01
2.109970465764123559e-01
2.369113987620486139e-01
2.677531503351545661e-01
2.377434122512073478e-01
2.920048935919958288e-01
2.349425589126755698e-01
2.272016994402222823e-01
2.546914968775908505e-01
2.039792325789726579e-01
2.678333440008797139e-01
2.610465454541854857e-01
2.943110780961268880e-01
2.248853946821891825e-01
3.013488203776671370e-01
2.850028313595924789e-01
3.296570882285669857e-01
2.784688752520391719e-01
2.950069578705520335e-01
3.047401191434395140e-01
2.253532577387238334e-01
3.200784474249795952e-01
2.829896713227127991e-01
2.485594943499387921e-01
2.839811546072541493e-01
3.206490782360894576e-01
2.742413162073189525e-01
2.863612912003836719e-01
2.216578429968452668e-01
2.542182136807533133e-01
2.990506267170207622e-01
3.072529463825230400e-01
2.792559114103220219e-01
2.876345915567748990e-01
2.550715236018881726e-01
2.644388777706210281e-01
2.285383677511148015e-01
2.419656159291830311e-01
2.519776020161404451e-01
2.018856140386610099e-01
3.164113705954491040e-01
2.190850668363145681e-01
2.420222947265912583e-01
1.935653480012312910e-01
1.356213906977388750e-01
2.728384313557041252e-01
2.182039036543744204e-01
1.462614831339244525e-01
1.755979050316774648e-01
2.632859501031683536e-01
2.105040231263392292e-01
1.133978754865525573e-01
1.702054144256843482e-01
1.748291635704513902e-01
1.908285905666760318e-01
1.695699221635870169e-01
1.126064607642870002e-01
1.404573992528755089e-01
1.271338957780705492e-01
1.717380900153994694e-01
1.279879642628969638e-01
1.226962822442161649e-01
1.266651578498991515e-01
1.038567654230371229e-01
1.702971844626694209e-01
1.541335753157883071e-01
1.510567354021958297e-01
7.460046528293293178e-02
1.179051397847283994e-01
1.268402367614535065e-01
6.837724200154159104e-02
6.004953120259949595e-02
6.169988339187911647e-02
4.394095732273960164e-02
1.156759576819241797e-01
1.094644125850850330e-01
6.783097097548268506e-02
7.246254668838830737e-02
5.089843301755565125e-02
1.378470714921901097e-01
5.255705361900736561e-02
4.708500090905144014e-02
5.656510281740997903e-02
1.853286153255325266e-02
6.369451863819018678e-02
9.625514869926818373e-02
4.617254877730069679e-02
7.346926250365683198e-02
-1.122720695717691758e-02
1.726443626834582232e-02
4.712301064347945712e-02
-1.274047089397714258e-02
5.113816085283841295e-02
3.074865614045860229e-02
4.768610760048001829e-02
3.073710551714002592e-02
3.181246583579178805e-02
-4.228371428919151798e-02
2.360245811410272704e-03
4.969898556896494568e-02
-8.538519518922108031e-03
4.091455517334103426e-03
2.013135775326125448e-02
2.272372395293516603e-02
5.450606345795255825e-02
3.999272631645454934e-02
1.348667925180679905e-02
-1.774583057892295535e-02
1.258905132377966529e-01
3.595710547446955008e-02
6.303106871094064922e-02
-3.493755151645981660e-02
2.654107103929544478e-02
2.668161071912457730e-02
2.648325848967795354e-02
6.538718830307201080e-02
3.589222564624747897e-02
3.293266637045845491e-02
4.757368974064198064e-02
5.107514439000469808e-02
1.651893966823132429e-02
8.524165448039353055e-02
4.107429347563820721e-02
5.838062909042590620e-02
1.096052443693378009e-01
1.552678210087175270e-01
8.567027275561409083e-02
2.306354701527823375e-02
7.052685596846194893e-02
1.345329164490760843e-01
8.019156277106154196e-02
1.162234256692941253e-01
1.199903563823053881e-01
7.856891388259268361e-02
1.607448381039662533e-01
1.211190573837464673e-01
1.117238441272529470e-01
1.118401619542709058e-01
8.575234112925783636e-02
1.013046145273934218e-01
9.825818226847901626e-02
2.009818796973301680e-01
1.675216846032785145e-01
1.095836146652276466e-01
1.984101550980190143e-01
1.870661391475346713e-01
1.295844707751462044e-01
1.672717587364436764e-01
1.330727564434637245e-01
1.861589049415502128e-01
1.717483065132711650e-01
1.455456834508411790e-01
1.220917253335848107e-01
1.579593753120080990e-01
1.750703805969686944e-01
1.995365511550808713e-01
1.794313431778246093e-01
1.882899538131725392e-01
1.378877827654804711e-01
1.011591127088414116e-01
1.100761135980866390e-01
1.528989505498841439e-01
1.399509067574633003e-01
1.619039031798684414e-01
1.913413933622956364e-01
1.935163970914415554e-01
1.117324199899686482e-01
2.693698673067239091e-01
2.165554665427909531e-01
2.297940983102988166e-01
2.369099432313236386e-01
2.576599241898402393e-01
3.286426288423612285e-01
3.012716298671833104e-01
3.800673100222575207e-01
4.624253745958379347e-01
4.743998436091776405e-01
5.413333708108900577e-01
5.460874176923312673e-01
6.797289768499186202e-01
7.362492235246518302e-01
7.948186520539080036e-01
8.932393344679401270e-01
9.106356428862687480e-01
1.070292985694752952e+00
1.170587357306523968e+00
1.127859992629169694e+00
1.236080440722931550e+00
1.242699938117583613e+00
1.246252814084535698e+00
1.347099036518599968e+00
1.312772417890368803e+00
1.340422530894988418e+00
1.367787867427449511e+00
1.302674295631337742e+00
1.258118312408693873e+00
1.177731138058374372e+00
1.123461726025572149e+00
1.086165479834599656e+00
1.011089011461380638e+00
9.709127089134931277e-01
8.434623157025812334e-01
7.777355043558253911e-01
7.220940359755892990e-01
6.573460816275900065e-01
5.873578097797416131e-01
5.151779619370383534e-01
4.379413506125082733e-01
4.247754244516734334e-01
3.945388419581797868e-01
3.258584948077636878e-01
2.623662773836031858e-01
1.910125801961887748e-01
2.721528886425400029e-01
1.957167820833237426e-01
2.235125891097371476e-01
2.198019122644313261e-01
1.846671771302519360e-01
1.820636956823932229e-01
1.749588491961242831e-01
1.393686466996767737e-01
1.105107995331413434e-01
1.692051810407577961e-01
1.007528199561037868e-01
1.370800340369180415e-01
1.325461437714241519e-01
1.722872864276584481e-01
1.658020392812774302e-01
1.435448237722852238e-01
1.542937004614619578e-01
2.299308913426585110e-01
1.519331034855606333e-01
1.742587186418657341e-01
2.013786285467029091e-01
1.903040196716056787e-01
2.105538270726220462e-01
2.292186797178620283e-01
2.432815685560248964e-01
2.051513683277289279e-01
2.194870398066574302e-01
2.169858154006471807e-01
1.869871705131404271e-01
2.226562840187747139e-01
1.701332290691409954e-01
2.333288380832805875e-01
1.604134864443024500e-01
1.967482387155958801e-01
2.538997116301085488e-01
2.437470875457160291e-01
2.305698690669285289e-01
2.185984337361326912e-01
2.069379077941493061e-01
2.162213251675174086e-01
2.541248390085610320e-01
2.258830649484926956e-01
1.706159100211219193e-01
1.955951100293491507e-01
2.072859890478542799e-01
2.225457714103173390e-01
2.202305933321577203e-01
1.956535165824421219e-01
2.438100133827901528e-01
1.637448124824597562e-01
1.982836287058100666e-01
2.414927616497380136e-01
2.312040821974134519e-01
2.037317186729709906e-01
2.366043302455883290e-01
2.126612543588608240e-01
2.031718085886457525e-01
2.151020280418003416e-01
2.051182324234874788e-01
2.285695449859208583e-01
1.758869571032634638e-01
1.722759084890815862e-01
1.807453690429170756e-01
1.706463640081228028e-01
2.207803378811231676e-01
1.757872571861309741e-01
1.332672384926739118e-01
1.050772894979754152e-01
1.917387493962258160e-01
1.281176662012675493e-01
1.440264621256114597e-01
1.282763741201334295e-01
1.477534803273065078e-01
1.017037254048211714e-01
1.166165144038797952e-01
9.147130396369017313e-02
1.861145101361270926e-01
7.496573426747836499e-02
1.092897214795290339e-01
1.728528064907557116e-01
1.155301088097090700e-01
7.709691907385492204e-02
7.799572862981116184e-02
4.395182940305498998e-02
1.141778534450934024e-01
5.256009250604577049e-02
5.279161798268748595e-02
2.442510394085912681e-02
3.729502286540800626e-02
4.463753942834158134e-02
7.149604090155903258e-02
4.305729167460203843e-02
6.430048204978294768e-02
-4.058008713064970019e-02
6.661766036972607830e-02
-1.888298743016059156e-02
4.132403526552211326e-02
-7.798395879064815017e-02
1.437594305277894308e-02
3.809967431942380689e-02
-1.817978577195115270e-02
5.648354991314795404e-03
2.999506505554799807e-02
2.198576095265933339e-02
-4.896169689089073518e-02
2.578090378293620977e-02
4.517552416575425223e-02
2.858327830680225390e-02
-4.645178489114536180e-02
-4.366605746705051749e-02
-1.026643170680600556e-02
3.676393491247174905e-03
1.100928729957721675e-02
-3.999503473473112886e-02
-1.948008265280255433e-02
-4.269491475698843075e-02
-4.913894051396272555e-02
-7.421826235995656468e-03
-2.237725718682759268e-02
-6.956738960551451384e-03
-3.809726797642239843e-02
-1.060906932289787385e-03
-5.505688056920929330e-02
-3.484500830274277899e-02
-5.420275405568634325e-02
-1.214808746149131577e-02
3.414983263042255940e-02
-8.561154165636526703e-03
-2.191779035304710840e-02
-2.388145493722487051e-02
-3.428949065984245037e-02
1.749930472006625687e-02
-1.896665674383499200e-03
-6.288657000081063209e-02
2.171777661865099268e-02
-3.511929762356108542e-02
-2.657096294192477781e-02
7.468055751394919728e-03
-2.007249221686123811e-02
6.781757321074685652e-02
-3.783691776957483210e-03
2.538359081851255389e-02
-3.675502736025517553e-02
-5.549908108007005347e-03
1.253075668671679854e-02
5.003408395482365767e-02
-8.344164700987949379e-03
6.386697172382573007e-02
3.576107945108511488e-02
4.592168611816979662e-02
1.797776538893709752e-02
1.568637832025317896e-02
-1.633212682424900475e-02
6.234969528315885412e-02
7.654656926968897435e-02
5.121813372959131000e-02
1.886712047089814104e-02
5.391261092726673532e-02
8.591408141770895401e-02
8.424207969122245176e-02
1.027300486053155937e-01
3.772367793849688844e-02
7.757126078192347340e-02
8.996956015789520089e-02
1.149784323127352320e-01
8.062918675471497654e-02
1.172444794941736035e-01
7.489010763392854597e-02
1.117533445911022272e-01
9.801236072307478731e-02
9.752502979812543993e-02
1.814303683775786435e-01
9.973952931316525106e-02
9.748613599112253281e-02
6.767362276503181839e-02
1.402175054876180216e-01
9.424883820554662284e-02
1.096838117089153353e-01
8.558326224965362439e-02
1.239956698830737697e-01
1.406519720505972626e-01
1.538897302662214917e-01
1.141564642723116307e-01
1.042829090359710109e-01
1.085452395536655457e-01
1.372518695442041803e-01
1.554129799248175348e-01
1.783606833437129391e-01
1.545025055198507857e-01
2.059604548371397892e-01
1.979897533122705888e-01
2.563638773465201082e-01
3.391839134639892395e-01
3.331596299990812748e-01
3.618584759954724950e-01
4.529286311941571053e-01
5.286105386231323422e-01
5.429171560745719161e-01
5.936410664453343200e-01
6.813782133144087316e-01
7.659354241265960983e-01
8.986059520585478744e-01
8.838643836344179938e-01
9.453977577613427163e-01
1.070201641991929353e+00
1.100377552498299716e+00
1.143907207454844865e+00
1.235813663581268873e+00
1.251229634246219691e+00
1.299355120965062671e+00
1.299821613870297821e+00
1.237742852071823885e+00
1.207525685701054119e+00
1.263572907940829992e+00
1.187367065790942533e+00
1.232762257661912608e+00
1.114061014489198254e+00
1.061998824203690184e+00
9.231129600660812340e-01
8.760160984624311142e-01
8.280992435643410587e-01
7.264710740139537215e-01
6.571692475074171202e-01
5.919223990700603899e-01
4.957572579252475520e-01
4.284141452403747996e-01
3.920740662901218143e-01
3.334011238403752908e-01
2.735773149947372529e-01
2.559719121916767537e-01
1.861230777102606260e-01
2.190758069884637393e-01
1.898015976393534199e-01
1.731040142000736248e-01
1.120155962111298031e-01
9.641290088734277841e-02
1.563495009367403821e-01
1.048627159672847475e-01
1.241196596684578241e-01
7.060065831807527115e-02
9.629511820630903829e-02
1.415569387163206905e-01
1.117272102841420645e-01
1.029051476857336528e-01
1.306583186809324448e-01
1.268552989346782844e-01
1.839344875539851154e-01
1.268706890527944720e-01
1.494570312618501151e-01
1.304503855499658804e-01
1.093252738885762965e-01
1.561175620201365188e-01
1.039025154087984681e-01
1.818415217163249220e-01
1.169954983920818564e-01
1.340644268771145065e-01
1.355539706894051677e-01
1.870874317482830174e-01
1.385425819830553018e-01
1.909025326286132862e-01
1.587045735134834656e-01
1.784946193205887432e-01
1.687795734097975731e-01
2.573418380671235184e-01
1.400297371717121320e-01
2.068084065873523614e-01
1.937581182765508725e-01
1.723232340830724574e-01
2.089667748866071706e-01
1.694517608491734328e-01
1.669257561932656619e-01
1.653389801981491603e-01
2.025316971965552271e-01
1.821212882810833433e-01
1.738742723147595481e-01
2.096653288498961931e-01
2.309460820462111708e-01
1.549829587278163112e-01
2.061572981423936968e-01
2.103611536577845720e-01
2.310196203456835462e-01
1.820319173530305923e-01
2.347196569130790278e-01
2.033121898328133503e-01
1.266207444692724060e-01
1.889739969923572849e-01
1.762009027946246087e-01
2.028063930276446380e-01
2.050470844830384887e-01
1.366936584796491216e-01
1.890509175294535216e-01
1.538520269161180731e-01
1.321734848145674213e-01
1.925044540264014559e-01
1.302266121047869762e-01
1.408364585042936323e-01
1.329007976536911162e-01
1.457731696051241532e-01
1.650414402357136268e-01
1.688027004688680277e-01
1.426871954669076403e-01
5.984398397516842855e-02
1.492295387260223483e-01
1.184973911352856790e-01
1.283657265872833186e-01
8.139180898300577005e-02
8.506981331658977630e-02
1.089852825970832606e-01
1.359290293422791285e-01
7.653771189651860374e-02
2.849795277240843583e-02
7.912285274410049696e-02
5.098569668606126037e-02
2.035136868797067511e-02
4.360351074609350452e-02
5.750890318965259929e-02
7.051664475017999090e-02
2.028867205047503453e-02
1.753159455437640346e-02
2.375790632287878845e-02
7.567907445093630114e-02
5.957564528340472676e-02
3.268156217796901880e-02
2.811127704362210988e-02
-4.567951301069836378e-04
2.896946714251179278e-02
-2.706864517269635950e-02
1.418552172482616391e-02
-6.395300574618192901e-02
-5.488767033106485560e-02
-6.625376747272031241e-02
4.579995647075711662e-02
-1.770849143374364498e-02
-5.572044127731545088e-02
5.591611635730950325e-02
-4.240128822136936260e-02
-5.193079638614948867e-03
-4.617902942128773724e-02
-4.579362196929365192e-04
-2.619886783547372908e-02
-4.952188254838612441e-02
-6.844285274527832363e-02
-5.079569250564501537e-02
-6.070021553671704068e-02
-8.431780700919211391e-02
-1.025505499840430323e-02
4.974488049112740784e-04
-5.400367182694112284e-02
-9.653926611328586538e-02
-2.353605941126793791e-02
-3.002114054087421866e-02
-6.482412173006600609e-02
-3.660164875108191940e-02
-1.174427925439461423e-01
-3.422980312477572062e-02
-3.870113477227913462e-02
6.272987596217201312e-03
-2.535302845149675632e-02
-2.946079860532241704e-02
2.766768606932277358e-02
-5.398242162639245445e-02
-7.381195633704093484e-02
-1.438958311246948951e-04
5.394965274538379707e-03
7.848321272180755481e-03
-2.930286449366897167e-02
-4.155984931543643679e-02
-5.525024027597574133e-02
-4.212725415921033528e-02
-5.802106873789207586e-02
-2.324796004027640528e-02
4.272344978384351455e-02
-2.021569616706688985e-02
3.336453756027278617e-03
1.942794873341837508e-02
-4.121463634034774892e-03
-5.015961910091806808e-04
5.313795986373195945e-02
2.429137992089730469e-02
5.683777114103188977e-02
9.896661605553366825e-02
5.700583489086988309e-03
3.167089374648154876e-02
3.592593636680903313e-02
3.070333022891982844e-02
3.727274082266314459e-02
9.694418305142096792e-02
6.244038603204682403e-02
1.386948011650794010e-01
5.628607185004747687e-02
1.180142758846254442e-01
1.298220978521953950e-01
7.862674206135200627e-02
9.840976967688125354e-02
1.151477166195792462e-01
7.539418715003071148e-02
1.452003025134872283e-01
7.386635252009367270e-02
8.522000365030045488e-02
8.788605284060632683e-02
1.119649751002246285e-01
1.167675299005514755e-01
8.926362007123125886e-02
1.060956240515342486e-01
7.692381996085875806e-02
1.459322735387307279e-01
1.323030123390562807e-01
1.013794549046790616e-01
1.063533515448452926e-01
9.264098133640949473e-02
8.530983390795626731e-02
8.183379978461542692e-02
8.818729182487700102e-02
1.473169422921919713e-01
1.534296904224762281e-01
8.661446982359671809e-02
1.559386764627217481e-01
1.080042831464398806e-01
1.800681018565873648e-01
1.754895948056388322e-01
1.770172852346624803e-01
2.300205230131892042e-01
2.858941359124504977e-01
2.231690601178232813e-01
3.530123735325439993e-01
3.401481319835801820e-01
4.575513660869804378e-01
4.972156367067652738e-01
4.991342033527248478e-01
5.814560956628703758e-01
6.832361550473846634e-01
7.698443293626396899e-01
8.297656044658953123e-01
9.011988724204317291e-01
9.427069807239111254e-01
1.031916331204281612e+00
1.092655490486682313e+00
1.107004169702113350e+00
1.210932796876815321e+00
1.228930645679876532e+00
1.309384775220620023e+00
1.319610117830855689e+00
1.294195634490265645e+00
1.313549446588661240e+00
1.278483573257913397e+00
1.227412101275225931e+00
1.143064113680456018e+00
1.128829867364963269e+00
1.063771334706911098e+00
1.004348235082956231e+00
9.301132979315767102e-01
8.965590451957181628e-01
8.252097694693862895e-01
6.999150814834868006e-01
6.024466382245461382e-01
5.437630188760398386e-01
5.449182108988825934e-01
4.760122014640450483e-01
3.581392361168254657e-01
2.990530067154866800e-01
2.818738400357244656e-01
3.158037436178668389e-01
2.423849948852145331e-01
1.958410544759738026e-01
1.771318012079388660e-01
1.068264380153452903e-01
1.407895397766793788e-01
1.764650142116293841e-01
1.201043527381085718e-01
1.198049025282409558e-01
1.343043522427141701e-01
8.975196683161382194e-02
1.339219602840751588e-01
1.006944888251032622e-01
1.130385322302433632e-01
1.198531374208329225e-01
1.235831116090056747e-01
1.420725231610366901e-01
1.411761007238624965e-01
1.424900405920048740e-01
1.562840664683580738e-01
1.301306275132597112e-01
9.737586513952385670e-02
1.665654749903316689e-01
1.508539357268961489e-01
1.896890546805516109e-01
1.639526556667774693e-01
1.279079249610930447e-01
1.854360545938632532e-01
2.246056859837930464e-01
2.062977807786385287e-01
1.579614451778387774e-01
1.852840453574821911e-01
1.924035442333705825e-01
2.048253332820001715e-01
1.955414927587761087e-01
1.630370098439775650e-01
2.139234277535712880e-01
2.630919955322150727e-01
2.023328740064403997e-01
1.861804369211537968e-01
2.675090751564063174e-01
2.834101038928915628e-01
2.142862275295086549e-01
2.341091549611878653e-01
2.337843376409236562e-01
2.537323126312930888e-01
1.931889384724487235e-01
2.251596967011101069e-01
1.924417422711488523e-01
2.343191649167130908e-01
2.679063788593688544e-01
2.308139504028088596e-01
1.933634544531053767e-01
2.465366492338725568e-01
1.959020204267836185e-01
2.257781264075860994e-01
1.854037166960162963e-01
1.657549743269730036e-01
1.795339718913932237e-01
1.177773718731957853e-01
1.626934783464718537e-01
2.556354551913661566e-01
1.028578069737028367e-01
1.362060904061727362e-01
2.313447106199176262e-01
1.459646455376155949e-01
1.582010917837816943e-01
1.653017021160116673e-01
1.117003399053789064e-01
1.877798310166864104e-01
1.481200619634572557e-01
1.279185586170129008e-01
1.704903075311516858e-01
9.743466931442756884e-02
1.336943525713825687e-01
9.728756287525498758e-02
8.527633226454466031e-02
1.782592908183384950e-01
1.172420016159665401e-01
1.372149110884847423e-01
8.857325922016366648e-02
6.874588567804401640e-02
1.637691640161559326e-03
8.122877903110191367e-02
3.667690328232250246e-02
8.504211013217626014e-02
3.930797945355665041e-02
8.810850178027528068e-02
1.319204544062065887e-01
1.511495058515668344e-01
7.230662293998227352e-02
5.878796579157839763e-02
3.465798605368908963e-02
2.892488941256699669e-02
2.161987636814486149e-02
9.058745811499238632e-02
3.141103179350795971e-02
1.051641209949237543e-01
9.803278922919269125e-03
3.087776680788408695e-02
-5.382594890737408405e-03
4.632143487217135758e-02
2.207830218413114887e-02
2.509216687199362222e-02
1.485293391177737628e-02
3.902122865477721664e-02
4.072654698705919368e-02
4.395095985905463076e-02
-1.067972814054941183e-02
2.580551506854883784e-02
2.154790619832494536e-06
5.364100212675024237e-02
2.017329284637973952e-02
2.083768887356842597e-02
2.714157505614812199e-03
-1.408934074242446099e-02
1.192433061751228471e-02
4.598290164101590666e-02
-1.422206792201017103e-02
4.819243049194726208e-02
2.553009536990310038e-02
-5.249324982315972665e-02
-1.897113192673328258e-02
7.735211955385552784e-02
5.385856868861400859e-03
-1.763997757996432769e-02
-1.609866774003882589e-02
6.701875921237426120e-03
3.918492646224715908e-02
2.512005919676994596e-03
-9.473337352800459063e-03
-5.287027563455881651e-02
-1.074062665520212831e-02
-2.770014054274604239e-03
2.960976236137947970e-02
3.409225536211524243e-02
6.722595287862020985e-02
-9.338889055285399046e-03
3.286815418657974830e-02
3.635236962022458246e-02
4.392418777899197678e-03
6.481338068871027314e-02
9.177164238988703981e-02
4.475513768084862787e-02
3.328609478810296701e-02
9.616255559989284052e-02
6.834692306999125277e-02
2.284511481795011012e-02
5.767627525217516177e-02
5.695930066096650812e-02
4.688828369338959856e-02
5.283361529819469160e-02
6.135957620365267012e-02
1.104636048018158290e-01
8.205924138483729202e-02
9.824535169516464272e-02
1.294699626073907428e-01
9.623710296735825398e-02
7.383726493271389191e-02
1.428898623685069813e-01
1.077038056490250972e-01
1.769995784046948517e-01
1.580992462375279406e-01
1.478327988212081723e-01
1.426671291440099187e-01
1.732603990350156109e-01
1.505233453681122102e-01
8.110234734002327861e-02
1.461247870293469753e-01
1.689609615709419255e-01
1.240227713919955788e-01
2.339422003988804177e-01
1.535003653839706050e-01
1.761667254928558080e-01
1.956212400024474884e-01
1.794623704405883813e-01
1.588052298518525807e-01
1.745367952932745659e-01
1.571458113785295652e-01
1.605571908378375656e-01
1.295554176499089660e-01
1.570583812668983059e-01
1.301600270920034996e-01
1.682119309631234239e-01
1.592575512121038317e-01
1.909545516870861104e-01
1.371615955549470856e-01
1.624049586155421332e-01
1.734198651304423577e-01
2.143871313293454206e-01
2.248053544988728447e-01
2.864079710371268961e-01
2.806288926896021718e-01
3.101864951151268590e-01
3.146491381706873480e-01
3.793329428019813765e-01
3.953580762403893778e-01
5.032578563296293828e-01
5.718545555129380675e-01
5.651650729971677833e-01
6.794918513644055968e-01
7.461721538047497715e-01
8.588270521756743436e-01
8.669961051553068954e-01
9.478447750385252668e-01
1.049930623660856321e+00
1.094740444813132152e+00
1.157948386806414209e+00
1.211633718603784660e+00
1.286248897518543988e+00
1.339750807394596510e+00
1.327018694103181851e+00
1.333205627477123345e+00
1.360733813533561154e+00
1.334129526346320871e+00
1.307857832718628766e+00
1.301041423202245140e+00
1.188802130457737194e+00
1.157835288937916429e+00
1.073928720889126387e+00
1.019245686643920124e+00
9.251635257698446191e-01
8.779580578505784549e-01
8.257710617116055252e-01
6.620935980954389954e-01
6.599393915502134167e-01
5.992300473662947047e-01
5.302499137071472468e-01
4.299237403014743997e-01
4.560706118520121422e-01
4.086591402479338719e-01
3.734900784253222805e-01
2.869320582410784803e-01
2.788103526262721843e-01
2.267989187301815424e-01
1.962431935660896853e-01
1.786101324439579308e-01
2.060450071398020888e-01
2.160243294791175939e-01
2.232441154516894011e-01
1.792308511830798534e-01
1.582776063899685448e-01
1.754794597880139362e-01
2.084564537164148024e-01
2.299675523706736779e-01
2.193985348129588453e-01
2.198615661159274981e-01
2.322247413862302823e-01
1.978130632919671839e-01
2.085237459922503478e-01
2.364947589014688156e-01
2.248523617550351739e-01
2.401626012273070931e-01
2.006573302647478851e-01
2.655460424351540061e-01
2.132436152618629455e-01
2.661090168327355787e-01
2.344663391083683102e-01
2.254233411109813900e-01
1.857424251817013372e-01
2.429690814817082323e-01
2.158617506207086423e-01
2.291764604835192232e-01
2.755130624535951922e-01
2.178554843153248377e-01
3.032489886684270886e-01
3.446509369989045890e-01
2.570057290749536150e-01
3.098471001574312211e-01
2.337565800037319785e-01
2.893628875588645233e-01
2.894377017021825815e-01
3.721956762138333707e-01
2.696568087362536392e-01
2.952932056200782696e-01
2.762171783301435868e-01
2.706562762922265497e-01
2.774255778905511116e-01
2.754033422679958432e-01
2.612837526530470411e-01
2.872660651998656389e-01
2.510391849591792068e-01
2.643473306201288286e-01
3.321374374418137876e-01
2.689284520166682624e-01
2.966749547378293439e-01
2.652277432807845781e-01
2.877748619525374307e-01
2.564761573861931154e-01
1.809406341418179354e-01
2.541746267684774074e-01
2.214661363977011854e-01
2.387451517109681898e-01
2.644724159275234077e-01
2.942420563366853203e-01
1.932882660712948453e-01
2.240367602289043136e-01
2.272698380592468870e-01
2.236814080334426913e-01
2.192489466817713339e-01
2.297795972206307935e-01
1.949839919849819803e-01
1.973481222922693623e-01
2.102823769506990959e-01
1.726187332629651738e-01
1.709657929195863568e-01
1.818228117299272584e-01
1.612074562612031137e-01
1.447514917587094385e-01
1.364184830288709405e-01
1.631746836213141538e-01
2.008598899566090279e-01
1.668518422660595912e-01
1.219066461174240362e-01
1.923918493605258628e-01
1.264526612517413995e-01
1.847444020887858973e-01
1.306395638985409224e-01
1.366803352969561680e-01
1.136641191064547141e-01
1.117184469442005224e-01
1.583038755355965221e-01
1.077231618544860214e-01
1.377873132893744634e-01
1.074304380684217575e-01
9.917375964875638217e-02
1.181228740340922734e-01
9.274111271801800671e-02
6.965915611411317709e-02
6.767032533651784476e-02
1.050534828685300570e-01
1.878184305526535425e-02
9.385419489440485763e-02
3.706522250102148308e-02
8.319401768464759761e-02
1.159738242320426105e-01
4.728278977656699689e-02
8.763148476633225714e-02
1.038594964301044754e-01
5.119647227421177810e-02
4.750810069559577298e-02
7.673360225250078215e-02
1.016540192498968653e-01
1.314089755341078802e-01
3.961416757398743965e-02
8.025487663104102776e-02
4.552333912089957108e-02
2.527719598832206191e-02
5.145363981564309019e-02
5.097767162538602292e-02
6.003271081516634022e-02
6.965261575895531632e-02
6.383210413981563192e-02
9.318512744061696607e-02
1.130762470634608385e-01
5.730884713070247966e-02
4.231763280465451749e-02
5.146852710813869247e-02
5.103499424743562080e-02
4.083857100841722931e-02
1.439051884217654176e-02
1.983949639583762470e-02
8.184765589777941164e-02
8.504967028283529074e-02
7.369154181890860689e-02
5.820957805168287813e-02
5.202426147957597835e-02
2.788329613930000048e-02
5.156346351981663800e-02
5.137603359183624818e-02
3.331504988296003777e-02
8.486478473208769469e-02
5.893790230172783057e-02
8.526929478839107013e-02
4.280623141777437080e-02
1.081156488354168693e-01
1.068419905967452344e-01
8.220231202107955437e-02
1.426036884432932417e-01
1.029208109078986189e-01
1.135039664364653755e-01
6.678096089008087044e-02
9.447943137605241404e-02
1.028484659459379946e-01
1.503284909079947163e-01
1.603303234874345062e-01
1.189049991585564153e-01
1.457283323069435421e-01
1.709232559155822173e-01
1.395937202048139758e-01
1.104459312008191640e-01
1.800763048510994335e-01
1.758296085025670974e-01
1.760188676900057980e-01
2.001221981255636717e-01
2.064562265693964116e-01
1.974959024901206672e-01
1.471658859721962642e-01
1.400964270148704338e-01
1.989118495305358392e-01
1.929886869406602923e-01
1.975757240126314873e-01
2.461235748161301751e-01
2.246460618202150428e-01
1.930076952369091381e-01
1.775707545576114821e-01
2.198492168808936775e-01
2.149784182782943365e-01
1.950570662305888825e-01
1.197111650743484523e-01
1.732596736718071406e-01
2.277207554470485895e-01
1.640189689811870910e-01
2.210137097216471891e-01
2.183830361268149778e-01
1.775989786602923670e-01
2.377032000551619895e-01
2.131536933086105590e-01
2.177581367629634612e-01
1.966623657897316746e-01
2.817435587926398477e-01
2.219327001775221186e-01
2.401902777867095107e-01
3.033532784886405764e-01
2.971904005242556046e-01
4.212277821679950573e-01
3.675590073105985955e-01
4.646453358783834142e-01
5.394943015214329618e-01
5.666277787996766291e-01
5.827350215359180519e-01
6.806754301717123923e-01
7.799928711085817312e-01
7.662953563228178666e-01
9.178825276549192891e-01
9.737027064455889835e-01
1.088435217160234947e+00
1.114415284533604389e+00
1.171290551005652159e+00
1.246020303026909692e+00
1.239095080212310185e+00
1.293165979938183607e+00
1.350396650776034768e+00
1.351699383618469641e+00
1.355982584003292635e+00
1.429984993640751378e+00
1.404940204858773578e+00
1.245426761252837800e+00
1.282565798665953105e+00
1.195611817694193002e+00
1.207606609976571432e+00
1.114802791551108285e+00
1.082134064620237757e+00
9.391476147048543055e-01
8.617559309416329416e-01
8.090274267059878177e-01
7.245524641266546384e-01
6.693736771968964439e-01
6.412939064341840467e-01
5.579327734799240934e-01
4.785250995989955847e-01
4.381929014038624670e-01
3.440648643751987867e-01
2.937094523071980268e-01
3.550044022786449371e-01
2.675321485450570802e-01
3.100342827997588646e-01
2.389718236228659531e-01
2.373724203242418840e-01
2.469828030811441477e-01
2.422849036308854787e-01
1.928396147431891139e-01
2.070112257528817223e-01
2.027658878343455151e-01
2.145828704790983810e-01
2.101431420486868373e-01
1.845069266835705213e-01
2.136935722700181173e-01
1.686696451599880575e-01
2.164383096248639338e-01
2.239759218924672612e-01
1.952904347854048650e-01
2.206590148324048262e-01
2.181930203250482259e-01
2.232582098518259561e-01
2.652967717091327948e-01
2.608573030994399411e-01
2.801627428738975856e-01
3.179028891705016902e-01
2.925809396407565988e-01
2.175372456452557834e-01
2.477594158420084458e-01
3.113185854471760550e-01
2.626538090486523758e-01
2.639066415016200207e-01
2.908088619634076055e-01
2.750632299313862106e-01
3.374742592214575732e-01
2.837040748588992578e-01
3.630054928878793663e-01
2.757039209578753813e-01
2.743853430216751654e-01
2.703721824502379745e-01
2.728815184799099347e-01
3.189829408498433549e-01
2.574738317898274675e-01
2.678960046876361356e-01
3.135713466130451987e-01
2.325617278549506062e-01
2.528817605738941099e-01
2.946229642761706291e-01
3.072738637485092350e-01
2.835246673580621435e-01
3.049940645369386694e-01
2.641606655997999487e-01
3.331954342341519881e-01
3.126604414837917956e-01
2.582157758823617755e-01
2.740718570993024295e-01
2.176536318632751044e-01
3.011207892368951144e-01
2.312948931459684054e-01
2.497699843886073134e-01
2.532111851297896288e-01
2.166118539537467691e-01
2.286632867793885748e-01
2.604267073352375395e-01
2.297837460534873921e-01
2.662271043935323656e-01
2.575681658322371836e-01
2.050018905360802002e-01
2.119264194633722065e-01
2.069408746420106637e-01
2.033605285769279625e-01
2.546222871964809453e-01
2.109963570100421570e-01
1.503180963729099373e-01
1.752921153728380643e-01
1.759170069977629147e-01
1.973456010033160513e-01
2.335885021281151608e-01
1.980608016727733178e-01
1.663417367110587852e-01
1.388972887539114687e-01
2.021273978516047176e-01
1.457419524578446590e-01
1.072539659261746159e-01
1.559072589004068532e-01
1.035046657894635458e-01
1.558620988417405706e-01
1.198491338707181886e-01
1.181982256105915952e-01
4.081522912253571223e-02
1.514335068787361349e-01
7.977646096461674108e-02
8.964138833441659404e-02
1.133202486238736317e-01
9.962228257093055928e-02
1.694149271283642011e-01
4.543344811523665483e-02
8.246713282361961550e-02
1.144483868109060776e-01
7.460015096185593220e-02
8.494370590530903042e-02
1.598618131755315530e-01
8.169260494075689105e-02
1.192567062014698309e-01
9.436546085584733567e-02
9.475753988856130960e-02
6.455485162384817788e-02
1.962834425838436148e-02
9.923075749355114716e-02
8.152108055218054705e-02
7.921520903547367431e-02
5.708399497627032748e-02
4.068692950505164996e-02
9.846500750544989744e-02
6.735237228856094660e-02
1.559299895884734555e-03
5.379718787625197007e-02
4.537049098862014351e-02
-2.510518989174036208e-02
3.055153262866426578e-02
1.302943465786514099e-01
-1.885667482709342535e-02
1.696552290775767483e-02
-2.163623720498897285e-02
3.756985387682210131e-03
-3.893289342761847849e-03
1.586458732327283849e-02
1.031519802573547390e-01
7.926241281450380205e-02
4.486433101897380898e-02
1.035499058109033144e-01
3.990246300306525551e-02
2.652838530028407693e-02
4.336404281848847686e-02
1.017820397634605981e-02
2.599758185024815538e-03
8.064741911470654778e-02
7.265041816620108894e-02
2.610795204774113420e-02
8.095058959877556026e-02
8.453620788159665889e-02
5.375316146963840525e-02
4.604536509328101962e-02
1.013063173779090997e-01
9.409066559356350778e-02
1.361260875661886582e-01
1.004375273708742189e-01
3.775981557030718555e-02
4.870494932720324799e-02
9.200568060980204854e-02
1.267895834242872832e-01
1.162367596117566404e-01
9.228427098881430979e-02
6.455772001845203056e-02
1.634052487209032012e-01
1.663035277527076250e-01
8.579544754063905820e-02
1.522744437328178713e-01
1.442863176494844635e-01
1.613796889751443475e-01
1.905287157065242987e-01
1.917695592130890803e-01
1.680849301022447062e-01
1.492979884508611188e-01
1.511550317328882176e-01
1.568886739548325804e-01
2.484275712749413056e-01
1.707078728184176497e-01
1.952924603443167428e-01
1.866403239549802584e-01
1.464384250483414807e-01
1.921036165293200926e-01
1.592465661991147585e-01
1.517616953707326688e-01
1.987376569624623168e-01
1.434628627654468414e-01
2.079911010040706165e-01
1.988612933802803850e-01
2.196904615832839247e-01
1.961203701987608849e-01
1.531416961564059376e-01
2.155841999157144251e-01
2.179254917513387402e-01
2.112149587024491626e-01
2.087967983993755938e-01
1.461020432111217737e-01
2.213521360108268998e-01
1.654300607560162950e-01
1.939258573237347960e-01
2.002064445221768685e-01
1.940872522791730337e-01
2.663641508128935520e-01
2.844052193208189694e-01
3.543261989624917341e-01
3.850128924224022753e-01
3.940563526510543202e-01
4.579728524394273137e-01
4.824695079384532792e-01
5.390512656611308184e-01
6.080082476286358117e-01
6.660762569435287883e-01
7.469413453483453313e-01
8.329976940011718511e-01
8.502499278879548372e-01
9.480863349561723386e-01
1.055212810294505532e+00
1.083321416206908250e+00
1.146639307279961439e+00
1.248775887578795096e+00
1.243219793868729051e+00
1.315588949257562312e+00
1.333196285730283481e+00
1.369593758796340044e+00
1.342943257692559511e+00
1.310787080334838040e+00
1.292423369773976649e+00
1.327721342363541668e+00
1.217647776430148099e+00
1.162121576622363817e+00
1.104988231355513939e+00
1.043422458255083729e+00
9.676795654001096869e-01
9.226574506617826188e-01
8.336511370490432560e-01
7.384289689305929549e-01
7.053874129080578426e-01
6.229733198223065260e-01
5.893481510011256974e-01
4.989907854343852422e-01
4.310614497610576468e-01
3.799399502954052821e-01
3.473631115594418839e-01
3.167238742013403496e-01
2.738779399579074902e-01
2.341335837732288483e-01
2.443536186961786094e-01
2.210699539943491165e-01
1.950064388497530499e-01
2.042315268945922579e-01
1.745150506787400690e-01
1.722534067557616455e-01
1.879692834910793031e-01
1.918753163995787492e-01
1.876451736138544657e-01
1.464015981800965982e-01
1.827707491786466631e-01
1.756230901436691694e-01
1.893996287386810196e-01
2.360486775474014975e-01
1.789859174980059919e-01
1.900964895735473281e-01
1.767939206835037746e-01
1.922100289932624773e-01
1.819311132127422181e-01
1.743185352452852332e-01
1.520292764575321975e-01
1.939377415796499637e-01
1.999909620332029903e-01
2.208757814649379980e-01
2.101693655937305061e-01
2.608655856405993068e-01
2.400597150876842278e-01
2.586953177186684383e-01
2.689008309131736274e-01
2.837822440603655072e-01
2.739047780639499163e-01
2.205106926404203915e-01
2.748720362640340587e-01
2.605294166059747840e-01
2.928831224882374462e-01
2.545706446861457639e-01
2.891759778289985094e-01
2.586110464907708795e-01
2.603079688291666804e-01
2.763216380124507432e-01
2.468518660290045796e-01
2.725395299968346174e-01
2.097969073644269100e-01
2.689755692709629997e-01
2.151571967595616031e-01
2.685124756276265900e-01
1.565659758266774726e-01
1.937887936369231956e-01
2.475977184124752151e-01
2.456578449649456652e-01
2.332555690811970450e-01
2.595635028280416368e-01
2.626951449047293385e-01
3.072575447878632682e-01
2.290524991977955227e-01
2.549743432588337799e-01
1.951013900663506884e-01
1.993974555504320623e-01
1.868595272310510924e-01
2.037136693325031778e-01
2.091058291994552232e-01
2.289314182139647047e-01
2.031962507301962317e-01
2.279802826676647076e-01
2.234357210251488313e-01
1.789390584533421258e-01
1.694270528714929003e-01
1.215848855605566742e-01
1.457819498601674868e-01
1.325033178794464694e-01
1.285092778163713090e-01
1.334577104486250887e-01
1.566600484321074294e-01
1.442989085729502463e-01
1.600036485136622499e-01
1.366874513278850678e-01
1.022447030774224913e-01
1.375971674870446193e-01
6.872849021513756373e-02
1.342076908426411697e-01
7.704125273406825514e-02
2.634940889863247176e-02
1.068606926270475599e-01
7.665600049533573268e-02
1.166740513705531029e-01
1.059307216279033875e-01
4.318942478250233780e-02
1.143100764714491263e-01
8.050174886256096507e-03
7.461044866358929051e-02
9.960864620921920654e-02
2.273252140723413042e-02
1.130168957850663097e-01
5.110366502259409971e-02
5.413087932359467863e-02
7.501884996459019794e-02
4.928791481503867755e-02
-5.916334888539194134e-03
-6.545567952227683561e-02
-9.059375548035302622e-04
-7.914948605822445804e-04
-5.048114790601257451e-03
2.121699384415226541e-03
-6.651853614213106003e-02
-1.891216609700345150e-02
3.127237061027259707e-02
4.430407812247277866e-02
-1.055107289342631371e-02
3.041065768086051099e-02
-6.950236561212166930e-02
1.488344446543090824e-02
4.102996617136436819e-02
1.977718475624022643e-02
2.439347383129899030e-03
-7.423978559681260192e-02
5.813336501716709348e-02
5.890861786069420680e-02
2.108043195155864802e-02
3.949891262033970729e-02
-7.879469576147438842e-04
2.171797764144093798e-02
2.390646638520483452e-02
-3.192567212477497723e-03
-2.598244013997441995e-02
2.532004520312101936e-02
5.581663948102812134e-02
3.724558299022507485e-02
1.089399606927263925e-02
9.417776884386594438e-03
1.213581799520260449e-02
-6.489610535829090643e-02
1.785529353960577104e-03
-3.781822679793656050e-06
-2.807486087758228471e-02
4.162322762043026148e-02
2.047976885055033044e-02
-6.427491303733237626e-02
2.367540597920375633e-02
5.749927346041499437e-02
4.090050570534013719e-03
-5.844095970792041045e-03
-1.066531763921994141e-02
3.427906196405997030e-02
1.293970088996579046e-02
-5.802912293288081669e-03
9.064868483790620990e-02
5.202323777999599830e-02
3.416182368773375277e-02
1.041776593575839682e-01
6.635741040836540261e-02
5.831295965753465621e-02
7.317042626697788099e-02
5.506930308375976302e-02
7.103938133759100937e-02
9.702719130508261070e-02
1.341749102806573668e-01
7.142039572382806456e-02
1.107936795496762827e-01
5.164824379868268589e-02
1.148622260571515591e-01
1.574147270679442934e-01
1.074304658798999612e-01
9.260050238610696705e-02
9.693332337714205549e-02
1.300944996053800540e-01
1.197974130269158360e-01
1.079799307070519465e-01
1.415433092897383782e-01
9.712169274259831175e-02
1.506180804491457359e-01
1.161303583628740949e-01
1.459829162461789287e-01
1.517941509914870757e-01
6.850637444215126881e-02
1.246866307281217362e-01
8.090426474782465294e-02
7.484267172315085814e-02
1.198965151804067819e-01
1.366368265824539630e-01
8.209305934191286902e-02
1.383584537713331009e-01
1.068151411636379389e-01
1.392840860067384168e-01
2.190792950285916363e-01
1.417858533854982617e-01
1.278830835627919049e-01
1.753256332703089226e-01
1.875876267469679948e-01
2.044517849536315324e-01
2.419501990469079267e-01
2.664851299262442352e-01
2.713657407833407476e-01
3.752940879806989094e-01
4.377417375601903027e-01
4.405878306698138291e-01
5.210657534641087718e-01
5.128701027519185773e-01
6.415618864086201079e-01
7.709265568287244630e-01
8.103964015196837289e-01
8.648753679718098608e-01
9.319232181269073712e-01
9.947514547993615563e-01
1.082527849517346485e+00
1.161026052950623111e+00
1.167739876663023590e+00
1.248821306849207780e+00
1.235134918833989515e+00
1.267986811704087335e+00
1.257398946088378766e+00
1.292818804117444875e+00
1.275466460279087499e+00
1.257931978519493343e+00
1.217276691356899976e+00
1.181708363758534830e+00
1.165924061994692451e+00
1.061656019465959222e+00
9.113693844499228813e-01
8.903715013142471379e-01
8.220594338480462504e-01
7.005870134496019475e-01
6.992398150259070411e-01
6.567323449349805609e-01
5.094477570035782499e-01
5.102271208002003844e-01
4.465798907529434647e-01
3.702401367069863003e-01
3.403547805529580361e-01
2.517355160343055509e-01
2.741055460536775401e-01
2.478758837464244413e-01
1.995671432435867920e-01
1.743918090644149266e-01
1.255460004057568912e-01
1.655165094002599702e-01
1.285183523493960145e-01
1.176839090503134233e-01
1.460894397167522563e-01
1.070006074715392913e-01
9.395947138639618168e-02
1.484820465065506134e-01
7.229966210214182343e-02
1.419302756653218478e-01
8.627694645750647040e-02
7.246517770133428793e-02
1.503858823322659355e-01
1.445300145243603174e-01
1.201060074101065189e-01
1.087517229353739817e-01
1.579608944824452410e-01
1.381400525599458251e-01
1.802417454959520382e-01
1.434877270957263806e-01
1.521665285438649762e-01
2.022265841104115836e-01
1.420297279604776086e-01
1.329394466040730582e-01
1.521432110837500351e-01
1.908430180110440577e-01
2.441327513773463020e-01
1.943625129551384556e-01
1.664291907796908998e-01
1.702782789882457959e-01
2.097896783191185444e-01
1.475691933444009118e-01
1.449559517653827567e-01
2.088781882129343292e-01
2.308546769029707624e-01
2.326674841773248570e-01
2.165467081852458786e-01
2.425831201593700581e-01
2.012491160706469384e-01
1.955184153389403767e-01
2.050206227939348758e-01
2.148371454202008257e-01
3.218389720525032804e-01
1.980730105829977550e-01
2.079497739365384901e-01
2.530283011422393979e-01
2.156106015373784879e-01
1.464091981201641191e-01
2.459433337468073522e-01
2.014291920516649292e-01
1.036693382266167807e-01
1.734798530278552353e-01
1.607447913783531801e-01
1.645852878295787081e-01
1.740394534405729221e-01
1.928666286124649798e-01
2.051280391456648811e-01
2.019878561224340563e-01
2.065831145213103404e-01
1.479846471033018085e-01
8.667168210717221544e-02
6.952917757843009305e-02
1.630037364595509630e-01
1.330635377573347600e-01
1.747981295516431721e-01
1.387457617133268095e-01
6.712031892221637097e-02
9.649865229175369485e-02
1.223332108819587261e-01
7.094068883844140139e-02
1.443550100291946248e-01
8.085470901521454867e-02
7.930948985208560731e-02
3.576474562327909557e-02
1.400024568534901648e-01
6.803126022803265838e-02
7.770225767281879747e-02
4.096005045593612698e-02
4.754165935669549259e-02
6.393083187124062872e-02
6.312837060908821352e-02
6.291285441383143162e-02
7.157408641388161852e-02
5.775793631813293943e-02
4.915619022027561263e-02
9.003045767122533349e-03
1.803413955249459633e-02
-1.583617422667905200e-02
2.303973540609537130e-03
2.653868931760477307e-02
2.232360877166900126e-02
2.685600755063927148e-02
4.792674989425013687e-02
-3.866982052867708186e-02
-5.821049154743525994e-02
-1.289794426231381796e-02
3.655127059111214216e-02
3.301424090119120525e-02
-6.717820538940356967e-03
-2.354016783766203075e-02
-9.325655168691091013e-03
1.436992320126490030e-02
-4.456884914164770117e-02
-4.015366496920620698e-02
-2.187582231548914485e-02
7.234202120523683388e-03
-2.779738031308917612e-03
-8.832424182696405057e-02
-5.357771993229176744e-03
-3.207860532744777338e-02
-1.359922393759806225e-02
-4.010232904352770134e-02
-1.948229563591302727e-02
-3.378292048216081228e-02
-5.211229085327851590e-02
-5.903411032573140788e-02
-4.239697032516551167e-02
-7.574738583567493244e-02
-5.033178075891604070e-02
-4.671477938464541069e-02
-5.861870477347479180e-03
-1.681559992918385538e-02
2.404278653289811801e-02
-8.616077016590800719e-02
-4.287328884955376312e-02
2.613643892745036446e-03
-2.518353269407721737e-02
-3.884752861448691197e-02
-5.900803464987428026e-02
-8.767748256189714096e-03
-2.239403926856647215e-02
-3.634784349869247394e-02
6.007292058650963440e-03
4.504358637193815740e-02
-4.644103580082079019e-02
2.130851996876778620e-04
-1.043947988439131169e-02
7.759621128712715366e-03
3.094093208779256921e-02
3.721802797925832795e-02
-1.699908421619321375e-02
-4.823505075888336047e-02
2.438028347031689913e-03
6.494365275381490388e-03
-6.944501076542576590e-02
4.766737476541202390e-02
5.772369097924799630e-03
2.432015227716545491e-02
1.316859811471211145e-02
2.854918827553198923e-02
7.758254476666534560e-02
4.636063926198088353e-02
1.120060809472020191e-01
7.173211824893623023e-02
7.834535861651863164e-02
5.554005753669671863e-02
6.412275067928269179e-02
1.010221231548983079e-01
1.096323237192733946e-01
8.579489139983124957e-02
9.808644619363719730e-02
8.053345386001869999e-02
9.443607183945335048e-02
9.328752718490129769e-02
9.440679176178173870e-02
1.255317922939843678e-01
9.592653705907523698e-02
8.020161608483825089e-02
9.233489564941205208e-02
9.288063108687186209e-02
1.154821878353273490e-01
8.605938830433314257e-02
1.369287679992597373e-01
9.533088452221269438e-02
1.506983247516348878e-01
1.046981469909928353e-01
1.202845929221481869e-01
1.351627968784858136e-01
1.435887071285944783e-01
1.280904447277821656e-01
1.914916049816988153e-01
1.180205899423419774e-01
7.962163258228577289e-02
1.331618776111357372e-01
1.701538805505365959e-01
1.753559629696361255e-01
1.503538149939365465e-01
1.942357338003229128e-01
2.083080315474057920e-01
2.460492172184604864e-01
3.020059400595319632e-01
3.633091161935060875e-01
3.776460468809920701e-01
4.362493367720653992e-01
5.375954954820534315e-01
5.562259735256687154e-01
6.243701136634234317e-01
7.896744562901657494e-01
7.817895940575393388e-01
8.168132986748408708e-01
9.068773913816019494e-01
9.535958494339336067e-01
1.127274555300449954e+00
1.133404061731673851e+00
1.153912983313431173e+00
1.241913749055751914e+00
1.305573768738273355e+00
1.266508332587885866e+00
1.325836879712042116e+00
1.259569138824176981e+00
1.214975600011553247e+00
1.273573602009212102e+00
1.155934961251055215e+00
1.109407776487701502e+00
1.098286008587691764e+00
1.002478514170814128e+00
9.276722663546723702e-01
8.499218945847315521e-01
7.628503259219704402e-01
7.138309714076398471e-01
6.503268017867265272e-01
5.592816932576810673e-01
5.172497354450434903e-01
4.516822642524184195e-01
3.953475774808525856e-01
3.253017581231636979e-01
2.785996972204943245e-01
2.625544194287351418e-01
1.827306569477798737e-01
2.782670531453694807e-01
9.327187489331342785e-02
1.337806280966361283e-01
1.518764824421198201e-01
1.476734079119381149e-01
9.276449228096816935e-02
9.348388599062770754e-02
1.115216788563200556e-01
6.808789041884710791e-02
7.301482848274223891e-02
1.367936348479464881e-01
1.373353739148144570e-01
1.162114813567239890e-01
1.425352271924582026e-01
1.262194123666243173e-01
1.044697903800966970e-01
9.740088177625355614e-02
1.554767827223192955e-01
1.211515765494605990e-01
1.703188341508260484e-01
1.415204849793497421e-01
1.942429546549490627e-01
1.310648987766041274e-01
1.299790204727147569e-01
1.745961043935412849e-01
1.620894647726679461e-01
1.809243376181192131e-01
1.780916674014410839e-01
1.684266246676613954e-01
1.792389334782474031e-01
1.248031783063073830e-01
2.381700518932501620e-01
1.769759125788876730e-01
2.118046364427387807e-01
1.386005561425787680e-01
1.764134435634512610e-01
2.122869937402885321e-01
2.604798635928219919e-01
2.207654400475124457e-01
2.249530693001027259e-01
1.942073301343338332e-01
2.089239279565104912e-01
2.034949797810015892e-01
2.184916107960920006e-01
2.460639383282668957e-01
1.976281776147725822e-01
2.079614535611953585e-01
1.941379399374446035e-01
1.966721279819482193e-01
2.367280882310439094e-01
2.141506713680695895e-01
2.080264361562695896e-01
1.922138948830111882e-01
1.673958365816499427e-01
2.112623572370501412e-01
2.124183685727790427e-01
2.103624020658301230e-01
1.799536675527392549e-01
1.533835370441137269e-01
1.920805784325969601e-01
2.012493708714571672e-01
1.898717806729775248e-01
1.370033341612356681e-01
1.673143112097557617e-01
9.314494089639452357e-02
1.871154791710618881e-01
1.473835927491472242e-01
1.435104418146818939e-01
1.792089801948628935e-01
1.103286874003431006e-01
1.267399530478877656e-01
9.252046364192659245e-02
6.860200577925766596e-02
1.170140288101415293e-01
1.107879949651850854e-01
3.526494152279179700e-02
1.160663535411431690e-01
8.818740745746189713e-02
1.073386706203802721e-01
8.720712691086141000e-02
1.069827255131487187e-01
1.059586904967979581e-01
7.274973251502980798e-02
9.017468092668437518e-02
8.477603991531817984e-02
1.877163410248863795e-02
2.376959097675220706e-02
1.608825825056839354e-02
6.256554105126165000e-02
1.780401955007333142e-02
-2.544746916185334357e-02
1.877525917096993513e-03
1.741069517279226347e-02
3.954834110253145629e-02
6.153942752184683729e-02
4.845175511403443380e-02
2.247521891143581738e-02
-1.029886109941920841e-02
-4.812018373909270758e-02
-4.970076970125490712e-03
-1.199493574432344833e-03
8.269863088834400466e-03
3.010979706323502203e-02
2.152190596243797743e-02
2.420877416183846165e-03
-1.398557015917987513e-02
-4.925079424888995083e-02
-2.899600367726448691e-02
-3.522951499145184073e-02
7.030033050882070200e-02
5.128487918192331518e-02
-4.729743197015341682e-02
1.387960142432431015e-03
-5.167756257425405730e-02
-5.082364516949048477e-03
-2.704302187480583930e-02
-1.700481901690537728e-02
1.848611937936857352e-02
-2.082295765972439622e-03
1.276087153031624927e-02
1.776646091906603636e-03
-3.511504331059394496e-02
-5.219736891543348689e-02
-2.144132998078648877e-02
-2.095900845166617787e-02
-2.692691839107975646e-02
-3.156799596041767741e-02
-7.479380272616752839e-03
3.126575310149594389e-02
-7.011354125160881856e-02
-4.298372676619902771e-02
3.719574063636564565e-03
-5.809911307516023304e-02
-4.376203917232749513e-02
6.509609835754041895e-02
2.076610432651477059e-02
8.642523423007307526e-02
-4.226691538075241089e-02
7.433153674346687501e-02
-2.456533121602663683e-02
4.481420823501269801e-02
-4.399048641234340473e-02
3.355508646494514968e-02
3.936731265732493212e-02
1.894900304252689766e-02
-5.355025362603363370e-03
3.216028394375092248e-02
5.207112584314974035e-02
1.474997440578323243e-02
4.760453097529814687e-02
5.650679406402648458e-02
7.664356520974799358e-02
2.004130822216309768e-02
5.472214888564263385e-02
8.261554012262260771e-02
7.015271333729211634e-02
5.383222358066910851e-02
1.194978165306559148e-01
1.250348286124941533e-01
1.230030243798637540e-01
9.370987656950266476e-02
1.026374219958526568e-01
1.501980394334778424e-01
1.405071733521146560e-01
1.578554228635581091e-01
1.256681705672079985e-01
1.443791669214858908e-01
1.486755761468362413e-01
1.743889189851384192e-01
6.477133802307982746e-02
1.385800366952793516e-01
1.649363406530675313e-01
1.727975798858103484e-01
1.248134045120819768e-01
1.507707394876894036e-01
1.616563856394303000e-01
1.776545387288634703e-01
1.511288253640287182e-01
1.487390885097394366e-01
1.337500092155644860e-01
1.768391030060952607e-01
1.825372659685222942e-01
1.795411473872015329e-01
1.747879770917189768e-01
1.658353209558706687e-01
1.488719206137746609e-01
1.548024853412977020e-01
2.214079036673154421e-01
2.414715275403845063e-01
2.358218962509676664e-01
2.612237523164598896e-01
2.906183654593719190e-01
3.557939666701597781e-01
3.837054833878882909e-01
3.949585622998029732e-01
4.756887917337930816e-01
4.709297732024319560e-01
5.629273373685227400e-01
5.963858950499402178e-01
6.940444269619017170e-01
7.700774093007022314e-01
8.047782573821001817e-01
9.762330412652521217e-01
9.974671304511946168e-01
1.070864093272367423e+00
1.116976608700076978e+00
1.214781295851450116e+00
1.285466875356536143e+00
1.295837031840118003e+00
1.315523794572726723e+00
1.258838333660191156e+00
1.315680398796590600e+00
1.326424652064083887e+00
1.319253811747436833e+00
1.266437337101335547e+00
1.265562898268742353e+00
1.126786842515832943e+00
1.065041612854491060e+00
1.030848029059817650e+00
9.860645476603614457e-01
9.169448618111383231e-01
7.380870712493291519e-01
7.286908894900944178e-01
6.824107284578183608e-01
6.134230275263627963e-01
5.388050707657651150e-01
4.605066676387999380e-01
3.187108278108509163e-01
4.239217102650056912e-01
3.388825848855260281e-01
2.580723200208235868e-01
2.442935534038209455e-01
2.364488431576685090e-01
2.222252788116861333e-01
1.498733792715109814e-01
1.492117277223615757e-01
1.846150326252679608e-01
1.457932950896416446e-01
1.056392360825088583e-01
1.331456770337222928e-01
1.560517179732750503e-01
1.081137770372514045e-01
2.082551069736751914e-01
1.976071182716850061e-01
1.928538280974550767e-01
1.719656416683641442e-01
1.364025283260637822e-01
1.527804344864860386e-01
2.222978448030872300e-01
1.635386742909741842e-01
1.911539011254884401e-01
1.882262009115391876e-01
1.969561149698093316e-01
2.025522058241738255e-01
2.037462138761058639e-01
2.018258914559243333e-01
2.101222554140126098e-01
2.176177354985614487e-01
1.995602245716494305e-01
1.897038125804159092e-01
2.242614409820463117e-01
2.125518508269365059e-01
2.400580920790092720e-01
2.130340920756503276e-01
1.910399894628139750e-01
2.939816717232616727e-01
2.336482186845248443e-01
1.879393539211896003e-01
2.787165744837887815e-01
2.431573379840291094e-01
2.571052893568541164e-01
2.636188149344470544e-01
2.883884995832867171e-01
2.676119310893524950e-01
2.165526917019274245e-01
2.225306442913512484e-01
2.148913903325612995e-01
2.423651748111625981e-01
2.679977827349893094e-01
2.307059000312779717e-01
2.332295701390351139e-01
2.302249069523296388e-01
2.322871654248320483e-01
2.679952261088078824e-01
2.365602095753971956e-01
2.758048384471068482e-01
2.237629350972254738e-01
2.375326040174730591e-01
2.275534529298562925e-01
2.385386723147855104e-01
2.423057210354341018e-01
2.232942802938679139e-01
2.993822465350474138e-01
2.602977302264455339e-01
1.941107916564644431e-01
2.465123870108202608e-01
2.387868778894690347e-01
1.584966400614620241e-01
1.298674040323945789e-01
1.951172488659549953e-01
1.799470302609084138e-01
1.047951551950840055e-01
1.782145225582858483e-01
1.709688493043518276e-01
1.464902527564032886e-01
2.072890829126403101e-01
1.484463530733982350e-01
1.385611960713961921e-01
1.456945318425625913e-01
1.001322427077732669e-01
1.089271408725477203e-01
4.732407033492432025e-02
1.389823382057411849e-01
1.504911143988507949e-01
1.271718467330639202e-01
1.206335549329987655e-01
1.076679693588949716e-01
1.513786066712038414e-01
9.773146067387561420e-02
1.251976279990385243e-01
1.184716693351435396e-01
4.974618965382125724e-02
1.072720522576829927e-01
5.082536122039130189e-02
6.424702549003043217e-02
7.262186166860601366e-02
1.126894887264519585e-01
5.083549600978210653e-02
7.957912761779371846e-02
2.027646276140172843e-02
5.905755472851440674e-02
4.802418873464463223e-02
9.803307453914625325e-02
3.564395970598679964e-02
9.298696762733933696e-03
4.143464491627996127e-02
3.421561099446294302e-02
5.844184558245377886e-02
8.930285675058513561e-02
3.826516641236901717e-02
5.808187976995612956e-02
4.300761915212632236e-02
5.998130842208027752e-02
1.473332806129092065e-02
4.255375753345204404e-02
7.087691974348793444e-02
1.908735039168198838e-02
3.623214750409726320e-02
3.898225585847484714e-02
-3.734474432053342535e-03
6.223740501382053758e-02
2.345338849041934959e-02
3.922192008970364768e-02
5.923456622894916757e-02
6.258808513014466057e-02
5.911054946635654200e-03
5.457760701334596343e-02
7.239021862584914258e-02
2.401829299241209012e-02
6.854228069484182007e-02
5.825495137329065459e-02
6.197597314253457113e-02
7.457399940552709994e-02
2.379006705932222923e-02
2.378703867286939208e-02
8.897863151334756138e-02
4.705270471802307231e-02
1.518868466254676142e-02
5.649133230650456305e-02
6.084869495492357949e-02
7.430630980469671298e-02
5.845403810424297519e-02
1.253488209378731677e-01
4.973672146521630755e-02
2.193077361886062310e-02
3.986517668912104018e-02
6.565567388817768191e-02
1.060416121548964086e-01
8.976291867175464900e-02
1.106011906164115349e-01
8.446430257315504231e-02
1.214169078967559101e-01
6.612208429070424998e-02
1.230402237090207490e-01
1.408484519822717496e-01
9.992649665074246346e-02
1.827223397652830150e-01
8.069085391698750664e-02
1.626055167059305973e-01
1.711700289663510288e-01
1.245871919867850286e-01
1.643553471053752768e-01
1.332433432542676210e-01
1.717836132574764307e-01
1.600874312239459196e-01
1.703375136272916590e-01
1.560678914496126668e-01
1.592720334560752404e-01
1.562099838788969519e-01
2.011565925931314003e-01
2.340849818895941459e-01
2.542130625954735490e-01
2.155140296823595258e-01
1.885606035569205585e-01
2.196172748900315774e-01
2.009853679519085778e-01
1.806938949214011436e-01
2.505747309882777607e-01
2.211000546454302274e-01
1.698927374605853358e-01
2.216671057810906675e-01
2.110201347631919799e-01
1.671021472880251380e-01
1.997585745064727747e-01
1.991902360125590854e-01
1.278047830696056875e-01
1.700344383418031791e-01
2.538880238512140064e-01
2.111574075207113821e-01
2.651192935881890311e-01
3.038859736335907669e-01
2.262996229591920927e-01
3.639218236625518799e-01
3.426596054876268060e-01
3.970326670088030196e-01
4.867947313068827775e-01
5.065178219237191914e-01
5.268128620608600876e-01
5.760078287885037618e-01
6.432235693665507847e-01
7.084728959105829338e-01
8.351315362639561979e-01
8.871484119621204645e-01
9.513970673435154790e-01
1.011597154509960683e+00
1.110305049688062873e+00
1.097701284587491610e+00
1.269675175286506752e+00
1.257465488705168166e+00
1.279326183322132993e+00
1.374117665766552587e+00
1.393733584613990217e+00
1.365991935694811588e+00
1.403828338313064528e+00
1.377601363898304010e+00
1.330631564759767071e+00
1.230800894999735995e+00
1.234760083624577343e+00
1.173774754747014759e+00
1.101749371832843050e+00
1.028651284382689157e+00
9.894681678865785424e-01
8.550282524492484049e-01
8.535765325577323592e-01
7.430292857990892230e-01
6.487574184426894153e-01
5.985694519098775368e-01
5.511201696046129639e-01
5.315265682203461628e-01
4.582959070644628263e-01
4.269618214447452043e-01
3.499649980474005551e-01
3.114689984983895488e-01
3.448751523610427694e-01
2.613515022072376848e-01
2.299140678672519922e-01
2.117867750159378448e-01
2.286534144579518979e-01
1.789242414927088853e-01
2.112384099977057395e-01
2.071990066398268771e-01
2.184085821898147928e-01
1.480899526252066889e-01
1.417591924490638200e-01
1.906773496701247850e-01
2.024803431174576895e-01
1.765780524968351417e-01
1.728983984330980384e-01
2.310905108239899586e-01
2.131435735637601803e-01
2.512765159880783750e-01
1.903288772373848692e-01
2.329725771176359428e-01
2.909855225129087675e-01
2.364311063955299719e-01
2.323093434943824809e-01
2.815313103177443099e-01
2.949594308168905221e-01
2.434370523263165720e-01
2.495739446267159767e-01
2.961492153260000260e-01
2.827675047876628267e-01
2.868244158061266647e-01
2.874201509472115723e-01
2.817553126030691857e-01
3.160782187399246435e-01
3.301465191164150714e-01
2.598413019428782444e-01
3.193409730621108444e-01
2.931441595876217443e-01
2.573532636405320706e-01
2.694038171346650468e-01
2.857777280886696358e-01
3.304596435449644320e-01
2.680648470749169010e-01
2.451674472554095652e-01
2.910618878773347795e-01
2.842236713402037096e-01
3.299286745336585946e-01
3.045068859719541887e-01
3.168925880995068223e-01
2.821699871506773150e-01
2.556334031401994999e-01
3.294669533171199483e-01
2.700967420665298935e-01
3.046629814630602562e-01
2.714170313910494459e-01
2.991799874160063211e-01
2.852936904018364972e-01
2.766541890202171006e-01
2.815926321795065856e-01
2.581651690049188708e-01
2.102846414690146826e-01
2.659721863121270458e-01
2.873978921589382396e-01
2.472995036861947438e-01
2.346976475147837249e-01
2.473045625548017379e-01
2.641194337536933445e-01
2.214992833295101882e-01
1.802123466461384160e-01
2.248493419775446367e-01
2.260649278577484544e-01
2.153346216147463688e-01
1.902360870511035917e-01
2.100618081578750074e-01
1.880596090399977716e-01
1.768395748483379826e-01
1.763739340105301423e-01
1.851641961797743652e-01
1.834671685820483122e-01
1.547544628286742219e-01
1.713191807213184925e-01
1.720546413522532903e-01
1.726496534809343064e-01
1.657943539439395153e-01
1.859191903679229818e-01
1.630197870590446851e-01
1.982553061704250830e-01
1.648768428526547758e-01
1.598322397730380651e-01
8.907384782588505245e-02
1.446899809743238396e-01
1.437879752919359599e-01
1.133049864678462582e-01
4.969561291546296250e-02
3.786934695669754575e-02
9.610062382567882699e-02
8.521188842709834232e-02
5.359447282821232922e-02
1.070582165291835558e-01
5.866773999380263394e-02
4.004560387924760434e-02
1.493839923264956571e-01
1.002038521957548944e-01
6.998077231931995601e-02
3.818409068895689540e-02
5.190333282658446401e-02
5.781407161705927333e-02
5.830010045472207303e-02
6.314784511168707037e-02
3.571166448962391493e-02
4.334418199595030385e-02
1.671261493907480467e-02
7.228749997547571915e-03
1.922361087612742617e-02
4.573971191304771616e-02
5.361232282994830151e-02
7.570091632965750272e-02
7.315700783337771018e-02
7.843694359250485970e-02
4.966018878408422210e-02
7.761440300101729584e-02
-7.146670519124286025e-03
7.451715813641160424e-02
5.451127880415816696e-02
8.390364629714958111e-02
-2.595558781180503510e-02
8.123805160275140991e-02
4.557931742349898008e-03
8.642638712559777558e-02
2.709774385621697285e-02
6.442310697888158078e-02
4.897317512373547399e-02
8.162963604740261503e-02
5.537048562281359637e-02
9.761771920977703465e-02
2.860075293367267749e-02
1.886845596424345517e-02
3.004076003080508039e-02
6.839572712232788732e-02
6.940221524899002625e-02
1.032282369317424897e-02
2.328395153765007441e-02
5.717852807098428719e-02
8.569903201716355667e-02
2.708855552031959324e-02
5.191020898172304943e-03
7.791859967747993831e-02
-4.779376945641518326e-03
6.371509451825851933e-02
-1.768550533567573441e-02
4.362021600201541893e-02
3.649903900424448372e-02
2.348992148050664183e-02
9.002041752361747418e-02
4.420896893632556696e-02
4.153860603292523074e-02
3.875963102316104525e-02
2.330450760295559032e-02
1.010559758324031665e-01
3.480333938385578307e-02
1.016366374270956802e-01
2.111128253418242604e-02
4.631002840980539409e-02
3.130343938509427132e-02
