1.341742961701371861e+00
1.339028708623045238e+00
1.328464971319734511e+00
1.292173486135204108e+00
1.268447323519482639e+00
1.191032809894692512e+00
1.137181987263643057e+00
1.038343432946248424e+00
1.029461249379314047e+00
9.799166939789765163e-01
8.017835274555983327e-01
8.025594257192151249e-01
7.080537189543996135e-01
6.388421249408408054e-01
5.989857028222672630e-01
5.196718550362411371e-01
4.779254548757944643e-01
4.064613113979809733e-01
4.191534880196219337e-01
3.294003633157285282e-01
2.813755030325761353e-01
2.875921138041400704e-01
2.298761218472205881e-01
2.440476200105291815e-01
2.723684848947232062e-01
2.109684500849355882e-01
1.639838619207633907e-01
1.869692594087483672e-01
2.207092232624480732e-01
1.981959016702523890e-01
2.161001126137329087e-01
1.772924733163751265e-01
1.860250734723600807e-01
2.202031032233322527e-01
2.528618554040019117e-01
1.966516274699277034e-01
2.134083976602861310e-01
2.494911751783657483e-01
2.247509272363442390e-01
2.443370718175592871e-01
2.073953026093488528e-01
2.340749770911274841e-01
2.196366254816521368e-01
1.919351415196593191e-01
2.200842923509358784e-01
2.640531886310075738e-01
2.710054705923895524e-01
2.811922703994285122e-01
2.769131220755755574e-01
2.583068476350091625e-01
2.130977580287361228e-01
2.366816788246250136e-01
3.068414666991046702e-01
2.508995703585528148e-01
2.761554792376940126e-01
2.822536097185316950e-01
2.405427273626230822e-01
2.935334089400815083e-01
3.306041942184798077e-01
2.851425690453988082e-01
2.782879722144218082e-01
2.520007138219493292e-01
2.786441857910765263e-01
3.029283921047329353e-01
2.860506010730419768e-01
2.723241486848291260e-01
3.146904356740413133e-01
2.753912914730458628e-01
2.688589554536034432e-01
2.841214629614391418e-01
3.170265143417438924e-01
2.708587866690352897e-01
2.463608624423316573e-01
2.864950246882035922e-01
2.571312273099470858e-01
2.804715051489359845e-01
1.988961972891606367e-01
2.577921558650456690e-01
2.453688331552846824e-01
2.200005641461083017e-01
2.081931463312574893e-01
2.318180792127277345e-01
2.036316984287415977e-01
1.421037485451764060e-01
1.910662069769592519e-01
1.849077992549549854e-01
2.173917375478841563e-01
1.758178143747640698e-01
2.063636541655446410e-01
1.726360442211420654e-01
2.195100790636581034e-01
2.020491846968815453e-01
1.765627331436984138e-01
1.846342988784084316e-01
1.923137925621752897e-01
1.716760435076794267e-01
1.688733422881059099e-01
9.625079359148915048e-02
1.387976261505011188e-01
1.259232840866686132e-01
1.758007616542912321e-01
1.276290470096691776e-01
1.142433905555931550e-01
1.471416051361120747e-01
7.946443998193421232e-02
1.178654067878795453e-01
5.667772354393904588e-02
8.998581335964137007e-02
9.344108186720292974e-02
1.468896838821775741e-01
9.467557193358824841e-02
6.851230477941550046e-02
8.742737991719115587e-02
1.309777063706092093e-01
2.257208334950043874e-02
1.039593555488428356e-01
8.885836744286917943e-02
7.079901560016146900e-02
6.192356740949753191e-02
1.114186975119062367e-01
8.704133213618392428e-02
3.166282778164819511e-02
6.088138687054295284e-02
9.510173869544652492e-02
7.152742771013612111e-02
6.101751529338676067e-02
1.191695806021546983e-02
1.183785058108421384e-01
6.869079236477759753e-02
9.872081131205347193e-02
5.252100234455832350e-02
4.129498004424238949e-02
2.096143644016725330e-02
6.808873654337152526e-02
8.238511570457032751e-02
6.740654364499329421e-02
1.026278917235918242e-01
3.776049175037615030e-02
1.415137500924507075e-02
3.952237673029652953e-02
5.502750604375070131e-02
2.219832052015879159e-02
2.802887172194917093e-02
3.507133833745142149e-02
4.286257527117497135e-02
3.157322652748914549e-02
3.340675699260951814e-02
4.578387396853434571e-02
4.947292297998388821e-02
1.135172560535320854e-02
-2.901414262725136861e-02
-5.111673259858357660e-03
3.991799655897032562e-02
4.308896823006872281e-03
3.444638234573341173e-02
2.511312846037736315e-02
2.929876752398327330e-02
4.260552959014932833e-02
6.425937603915241048e-02
2.888052066240082844e-02
-9.315730212622226614e-04
4.075029040325375829e-02
5.404158232538582018e-02
-3.357643572830151801e-02
1.389747943510973895e-02
3.813676304756438012e-02
2.470557474847038387e-02
4.516966274859787051e-02
2.460405964319854755e-02
7.380068063818759350e-02
4.976441721075493263e-02
-3.063550357098918098e-03
7.574936203844673255e-02
8.070166306559589664e-02
5.894619682426911755e-02
8.256090659328540332e-03
9.401934766038505531e-02
3.996714746685713082e-02
6.358908989391205691e-02
6.112496014674642653e-02
3.919327688517396102e-02
8.668444243467017529e-02
9.677952595894434573e-02
9.835217004849208799e-02
9.296005602395737699e-02
8.119554004990206519e-02
1.519150946617976727e-01
1.176685925873063865e-01
8.825453913613176549e-02
1.336630910430413322e-01
1.354066125648622498e-01
1.468268872822558468e-01
1.311366028397011885e-01
1.169791943846865412e-01
9.792443008743398347e-02
1.262201994403816252e-01
9.531165039806850647e-02
1.566303127803362338e-01
1.017422013572441830e-01
1.412870293960895030e-01
1.755378744278599246e-01
1.478156854922967056e-01
1.544081811834956131e-01
1.702921753919385828e-01
1.729177441567289752e-01
1.889416114349993792e-01
1.747908440027990395e-01
1.685744143473871248e-01
9.889080399922521580e-02
1.649303978917907310e-01
2.075704135587460586e-01
1.777213772426111116e-01
1.884305631248530677e-01
1.409539285966404376e-01
1.620422107937798673e-01
1.853853619589239110e-01
1.878674624980419539e-01
2.066113664516867066e-01
1.598631904720604902e-01
1.842133589465168864e-01
1.869228364367680195e-01
2.553257318289940958e-01
2.683312272067418514e-01
2.994522524421673326e-01
3.214850944904743546e-01
3.586995449324477669e-01
4.317038088727099265e-01
5.179527167412396604e-01
5.899697204732718969e-01
6.529003407813330773e-01
6.584044533867305926e-01
7.065332418925085456e-01
8.397916273848180513e-01
9.230830119818567159e-01
9.677081453249157805e-01
1.021958695186081956e+00
1.066757887495122237e+00
1.160434859381956452e+00
1.208463525213478551e+00
1.239418948154049627e+00
1.227107938070939541e+00
1.248606348750031403e+00
1.281880986528790789e+00
1.310199550245888300e+00
1.288592319558008681e+00
1.220314112529132577e+00
1.137937389641531905e+00
1.183867206831319185e+00
1.124087244734040647e+00
1.027162301325355465e+00
9.423178412049822983e-01
8.746516011728212581e-01
8.389849437420004996e-01
7.544374904297854734e-01
6.542846943958114947e-01
6.647167613256521612e-01
4.880846806415589656e-01
4.558241009529572230e-01
4.015259311832599098e-01
3.726144426025022049e-01
3.595863724034280007e-01
3.122890716449571724e-01
2.585062489485886461e-01
1.873448494100798667e-01
2.330704656486858040e-01
1.519908235606148017e-01
1.595384877056297002e-01
1.583147258827489190e-01
1.283263079690124542e-01
1.222536302002103364e-01
1.703146126118612325e-01
1.857547028908430597e-01
1.397711395701812520e-01
8.964271888438593572e-02
1.533715136377838961e-01
1.267280919059637356e-01
1.616312575261868723e-01
1.632850922323451082e-01
1.018702456864852834e-01
1.507035613627416282e-01
1.851268209631502792e-01
1.681262572561504076e-01
1.423328534283091196e-01
1.991918224326826303e-01
1.337624404010321899e-01
1.948891268379550346e-01
1.757329738406926412e-01
2.088379412331351215e-01
1.927421611734656814e-01
2.177834957309277841e-01
2.474723306110462318e-01
2.307212616879007749e-01
2.332368508777894478e-01
2.332937405834889233e-01
1.669374456664316775e-01
2.232628864285401971e-01
2.311093953203178786e-01
2.415308760556945378e-01
2.240846600768743591e-01
2.495055520483482614e-01
2.004303676395901845e-01
2.898660821963985335e-01
2.474456017898547522e-01
2.034311405897699654e-01
2.717716195328648832e-01
1.974176501282518537e-01
2.306928122919122415e-01
2.331057722379091535e-01
2.163097522223882962e-01
2.236342030203521958e-01
2.276160698595823262e-01
1.916768515161327291e-01
2.299766653339382350e-01
2.195125225044496642e-01
2.751421427451624657e-01
2.585051969277813999e-01
1.889273962919340299e-01
2.034060177062617103e-01
1.833310473355088677e-01
1.927929594133787616e-01
2.223415478434508652e-01
1.894136915300310142e-01
1.732899087787118930e-01
2.020351684353000055e-01
1.212431621567809370e-01
1.630918730926507743e-01
2.110051154187975175e-01
2.075506699975044611e-01
1.992086961132795986e-01
1.180564101403858840e-01
1.127109454241377456e-01
1.298874298948319295e-01
1.398585561977876701e-01
1.122450524232814495e-01
7.855466099904603872e-02
1.515384813954381571e-01
1.412743703027328768e-01
9.546912983379249318e-02
1.293291858195237121e-01
1.310892185974700808e-01
2.624977913177422087e-02
1.118667197148592030e-01
8.571696671985126748e-02
7.198547630235689609e-03
1.082709186876097268e-01
7.532521405777721502e-02
2.036523556717559011e-02
7.558212275567792460e-02
6.459648262904314764e-02
7.100820096694603067e-02
-7.513236156464465909e-03
3.733935980662522747e-02
1.289162134308073290e-02
3.350647634423476601e-02
-1.634817091048628573e-02
-2.589876293117632233e-03
7.356027856724309255e-02
5.879627673312657482e-02
4.979993155593756549e-02
6.159806274839579876e-02
-4.166132021881028408e-02
9.799014678148278840e-03
1.600960960283069612e-02
-5.616971583207262114e-03
-5.238776399856961974e-02
2.749472452508631287e-02
1.718273054700511504e-02
-2.219838123820953857e-02
1.967186666767706954e-02
-3.976860755236399925e-03
9.400334911413468775e-03
-3.885279970124853877e-02
-5.969112113606546421e-03
-7.264617220339962544e-03
-2.320737455428692475e-02
-9.790910856783804905e-02
-1.388070692146587543e-02
-1.309520258965723993e-02
-4.983203578950706064e-02
-5.386977263915501690e-03
-1.622699752048998439e-02
-1.221548599044414152e-02
-3.668108825787300825e-02
-7.740018680868893108e-02
-7.744033885829715302e-02
-6.846576833524319061e-03
-6.084123983817038561e-02
-5.244229360567952136e-02
-3.712839342169788059e-03
-9.331528115601356310e-02
-7.765896020390895826e-02
-5.946642313624427023e-03
-2.716352184680055626e-02
-8.948034537195456717e-02
-4.275430401845391193e-02
-2.408130685926112777e-02
-6.211279468064857812e-02
-7.202304816607843496e-02
-7.878069464044930303e-02
-2.094243792979802454e-03
4.571956795356116321e-03
-3.201185391264654845e-03
1.214437572958601552e-02
1.474341821767977123e-02
-6.785093365954747435e-02
9.117574558909033455e-03
-1.595186645371212547e-02
3.943103668612209928e-02
8.594832922564321631e-02
-1.940429179875450411e-02
-2.042093194420310093e-02
-2.034576854702649720e-02
-4.066456909996789271e-03
3.519413057866453698e-03
7.865999922476650530e-02
6.940247313654571149e-03
-6.949599018307862919e-03
9.787470396624850522e-03
-1.174442119053019026e-02
-3.358332984964483570e-02
1.621079865708293516e-02
9.466776292067305421e-02
5.544125357192330322e-02
1.861908954952912199e-02
4.783454711955714700e-02
1.170892916227622288e-01
5.202811413075300595e-02
2.377103473960974489e-02
5.694104798811448764e-02
7.852506693362447387e-02
7.609790324720552834e-02
1.114343671800253344e-01
7.499653929939231745e-02
5.734547390408385736e-03
9.404751663665034123e-02
9.569953532329331103e-02
9.723550709813250092e-02
6.488134459389877096e-02
1.531551591037287052e-01
6.348436222005282570e-02
6.914294380977450971e-02
9.389105534361841254e-02
1.424206744298781580e-01
1.452861133577134090e-01
1.246595549812344328e-01
1.332178184695369527e-01
6.802899706981704875e-02
5.655033958468220351e-02
9.662234436024433326e-02
1.344473478427673507e-01
1.352633760385257566e-01
8.191944551101354444e-02
7.893177113138263867e-02
1.439010479370603224e-01
1.156828927819115588e-01
4.973938882265967892e-02
8.114077328135893552e-02
1.337827254897883400e-01
8.976012611718736656e-02
1.041107736631724651e-01
1.161103292035456369e-01
1.847966252134739529e-01
1.758418887487376292e-01
2.480600616219011678e-01
2.110626814776988824e-01
2.486937345819359158e-01
3.014033800079595204e-01
3.144436331347006952e-01
3.325955720008572647e-01
4.227950151173803794e-01
4.688994682151768623e-01
5.502032687351323670e-01
6.026378680036079682e-01
7.036503162735383565e-01
7.509104747143366954e-01
7.847538371006097524e-01
8.852182914887150034e-01
9.357601410597730096e-01
1.092991941602053707e+00
1.094158802744557457e+00
1.162567109500924234e+00
1.180369965121849107e+00
1.268676950377018997e+00
1.195048027208960306e+00
1.216549638150834278e+00
1.269070021504188350e+00
1.203629527187472625e+00
1.168761952936206328e+00
1.135809093802710779e+00
1.162560925395447198e+00
1.109765251212441406e+00
9.979493226379863025e-01
9.238427178374165605e-01
8.704733641131163768e-01
7.861779199099928617e-01
7.070853565540047292e-01
6.171149894013491233e-01
5.436415001094994093e-01
5.121746798086257435e-01
4.411598104912193286e-01
4.258443723005819193e-01
3.243012006801999636e-01
2.602463396619902891e-01
2.057388705963912601e-01
1.935791619258408203e-01
1.457392041185240350e-01
2.004012079288526316e-01
1.347247904989088418e-01
1.099006066987350122e-01
1.362660148025177098e-01
1.723012788264716433e-01
9.555890816307377467e-02
7.104385474328184236e-02
9.169734610021093579e-02
4.777284260726299969e-02
1.201287932711530004e-01
1.240870914752442711e-01
9.641833316388588593e-02
7.936777614951637250e-02
1.887855779233348907e-01
8.399118369933214479e-02
1.026696272850641523e-01
1.306323282726091772e-01
1.599363977218762334e-01
1.341156399400756649e-01
1.442017711100241351e-01
1.659531015923794706e-01
2.481375694738292004e-01
1.388622253523900674e-01
1.450888323164373217e-01
1.611660774902539117e-01
1.886183637439217686e-01
2.476875227692906245e-01
1.721115393116186554e-01
1.953792583955539786e-01
1.170659109298821665e-01
1.866619085991079174e-01
1.869587330934867619e-01
2.203792717318645011e-01
1.764674313890594870e-01
1.572467925068334882e-01
2.024848198663671828e-01
1.502358224147050947e-01
1.740441181406295057e-01
2.006827777950496994e-01
1.277352606463703355e-01
1.922949402588035039e-01
2.474335737131945490e-01
1.514664976266920926e-01
1.787940671770213430e-01
2.161771723419340097e-01
2.219420094037275748e-01
1.979054409012097893e-01
1.890028288598354644e-01
2.423615431956784860e-01
1.970544262416591419e-01
1.566107973508544526e-01
1.893771798753664526e-01
1.789275604153801047e-01
1.667968681087034499e-01
1.262910895364787456e-01
1.730849604599466462e-01
1.871534587905931413e-01
1.883938796157300088e-01
1.622481016757532091e-01
1.588603437975887045e-01
1.367317646029452272e-01
1.781749487812756272e-01
1.089507490576634430e-01
1.243750540059530563e-01
1.111198730219534192e-01
1.271547963831081152e-01
1.650324118101653692e-01
8.510624052639109705e-02
1.241619912385509006e-01
1.198471307581086276e-01
7.687782706742803118e-02
9.501470706182987835e-02
6.888717540708934328e-02
9.382437179568504926e-02
8.229591448271603160e-02
1.260637771408333052e-01
5.308248209198344197e-02
6.605991428410479260e-02
5.525109435491977472e-02
1.024735106477522584e-01
4.239311763811162009e-02
2.590513191356781653e-02
2.493057617968366668e-02
2.010153941664009902e-02
2.220916927625485315e-02
9.850722460442364048e-03
3.197721754007396000e-02
-1.134142954391233193e-02
4.113719735988011217e-02
2.141752514854430162e-02
6.530025555531422665e-02
2.724218561475216793e-02
2.092652332801955839e-02
6.707544776066096115e-02
1.678624268938801872e-02
-5.600349541946610110e-03
-2.801976889859912959e-02
3.898084838450011774e-02
-3.739738663307697053e-02
-4.375233446573308788e-02
-4.591907857789869624e-02
-3.662483582183966718e-02
-1.481803311319009053e-02
-2.594133239132950797e-02
-4.165362828147514684e-03
-5.436887417988675586e-02
-4.945826043511167280e-02
-2.023403133930699177e-02
-5.520236507218029276e-02
-6.848276237782095766e-02
-7.476055897823177809e-02
-3.147745244539690290e-02
-3.315490153849169619e-02
-3.555121600016369204e-02
3.537638436402687492e-03
-2.472150538091791305e-02
-3.451393479118883278e-02
5.258366594999994148e-03
-6.512205547648468318e-03
-5.816402000890187607e-02
-1.165784991490607242e-02
1.614218528765588856e-02
1.597715788493789257e-02
-8.220115851885798075e-03
-2.600474901039749251e-02
-2.898058898971963421e-02
6.065699950206893121e-03
-7.766038807947017730e-02
7.045282060818766623e-04
-3.311736862583369856e-02
-6.432396775151140444e-02
-7.162030437158262153e-02
-8.674579365371558326e-02
-1.795431207842160259e-02
2.358285004373117388e-02
-4.815289808367943097e-02
-5.776230149123633140e-02
5.271630559759390988e-03
-2.628458975645439968e-02
9.371940175595144806e-03
-5.596022626703528458e-02
-5.384270292223103382e-03
3.137096776280512422e-02
-5.254563917547329377e-02
-2.847087479970498297e-02
-2.732858227977199433e-02
8.542498958177068002e-03
2.658607853224365797e-02
-2.880257785708550261e-02
6.964977682373507673e-02
-3.667199377939273086e-04
-1.568921007305212542e-02
4.773858510027739060e-02
1.284042548094412733e-02
1.236719164028635132e-03
2.841296234949164390e-04
8.378891453914213971e-02
-4.801383455149181578e-03
6.319395740080992196e-02
9.570002532217326829e-03
1.981615272493637142e-02
4.067998725307543639e-02
6.178219541326532283e-02
3.178545004544404418e-03
4.088610768257346095e-02
9.276442538889584366e-02
9.725072489004854548e-02
6.235121277148360230e-02
4.024856194626867667e-02
8.629377119439340937e-02
1.090027432939513624e-01
9.343591085254290829e-02
1.339429168723592911e-01
8.725749269637078642e-02
5.913537737497129299e-02
8.389111980405403179e-02
1.045607946306711250e-01
8.589734458269544792e-02
9.359535106294855633e-02
1.399095872448610223e-01
8.825668001351985592e-02
7.390501892943912576e-02
1.391899529964785720e-01
1.349957065059487205e-01
8.505467131469218733e-02
1.377820609964895415e-01
8.296156359830311744e-02
9.552839110945693379e-02
8.462038074118788389e-02
1.048447024225883928e-01
1.368844793722518716e-01
1.301830346421995743e-01
1.008370406813788034e-01
1.354537953667720174e-01
1.474813793018299457e-01
1.730654370093143157e-01
1.661437731492286796e-01
1.915128943908561698e-01
1.888821333826782578e-01
1.840724945223073949e-01
2.394387200312788899e-01
3.020156621960805587e-01
3.397777478130654671e-01
2.659542542815759303e-01
4.094694578103793003e-01
4.284475695778251492e-01
5.131612387948095710e-01
5.227429888775294575e-01
6.173879864632521031e-01
6.517943567908526248e-01
7.584604741871286970e-01
8.617279717772932113e-01
9.279383838215581326e-01
1.047450027629519997e+00
1.031825474396971254e+00
1.079180554421268479e+00
1.197821962260663620e+00
1.146494092118848451e+00
1.235324744243195827e+00
1.265022902388875492e+00
1.189278784839810310e+00
1.222494395731889893e+00
1.198929523832793276e+00
1.238088285765978513e+00
1.156341528679648567e+00
1.120737968288095798e+00
1.024828131574390566e+00
9.869026090979116095e-01
9.203807472520749711e-01
8.670337381327755111e-01
7.921688315626599364e-01
7.730767219716871974e-01
6.786459482212924277e-01
5.360938703633758573e-01
5.550277195428476862e-01
4.904792751753333513e-01
4.107642133825715747e-01
3.883920436804184084e-01
3.506372202294118501e-01
2.613730391578769074e-01
2.062392775992610283e-01
2.318917227619560484e-01
1.674644190312908620e-01
1.812882537324670973e-01
1.276362240547286864e-01
1.769335748791728002e-01
1.169195551189506077e-01
1.279746461103395128e-01
1.228476400364206522e-01
8.724066874437225172e-02
1.622332039986401631e-01
1.697238385645492564e-01
1.291451554759033282e-01
1.136851582745295325e-01
1.330448505513953938e-01
1.289034957893299693e-01
1.477291780167090673e-01
1.435994858768821769e-01
1.304100536152578427e-01
1.963168859370694463e-01
1.607241399755618971e-01
2.298515599666376696e-01
1.797342418818041743e-01
1.690893656221191532e-01
1.772946896905380487e-01
1.791447072742279323e-01
1.912424482791463820e-01
2.052556695134661324e-01
1.688169909005609592e-01
1.755926931131646107e-01
2.332014513303587999e-01
2.285333620994570714e-01
1.690422737542843223e-01
2.348866600246451719e-01
2.471012913011432777e-01
2.319005529961644663e-01
1.768927681657826989e-01
1.883334231872543507e-01
2.287053902825584573e-01
2.879883193144175957e-01
2.164977734772557949e-01
2.516712888785810343e-01
2.147696652025208319e-01
2.853921245201070933e-01
2.356659240062167482e-01
1.977932831536931557e-01
2.091823811235802577e-01
2.059640098151197529e-01
2.352775324255988176e-01
2.095678191609049446e-01
2.140120927701857079e-01
2.854140274965477619e-01
2.073437151742374140e-01
2.278999934940106609e-01
2.118574311379594066e-01
2.157887418405120272e-01
2.342755526358168416e-01
1.451271933320876228e-01
2.121943160562602682e-01
1.928310487931957085e-01
2.056436544163915969e-01
1.903811115358335637e-01
1.866105421944516118e-01
1.971363568950711964e-01
1.674712287724996473e-01
2.385897042752004038e-01
1.462199970262957893e-01
2.136804240150712575e-01
1.286231174664932142e-01
1.532512533592496617e-01
1.657356533909122576e-01
1.236511702940672891e-01
1.167840179577408904e-01
1.336052401757711339e-01
1.641018988125607925e-01
1.348987551407311025e-01
1.845180148926079677e-01
1.398861636850146362e-01
1.045410115736955248e-01
3.280549629024922392e-02
6.253252181091589756e-02
9.659643597797616665e-02
5.318613039360278738e-02
9.001645005732651639e-02
9.824587097663667334e-02
7.861499372985904233e-02
7.520421209001054708e-02
1.381278654151738561e-01
7.753689155098558716e-02
6.771088033120202521e-02
3.841080616814457338e-02
6.465749116069730018e-02
4.703574391791483927e-02
1.122017394163319914e-01
7.211375487674676066e-02
9.465128470184713816e-02
5.542457953915892743e-02
8.380129198941128899e-02
1.378248399518423005e-02
4.879270844475968455e-02
1.284962923606712201e-02
2.347910093666430789e-02
3.577611893298404677e-02
3.786878817667478463e-03
-1.327376867157900597e-02
5.830082916140152255e-02
-2.331956023906781722e-02
7.621518689831599525e-02
-4.398037363116502185e-04
3.964318814880343073e-02
4.011573580216493129e-02
-1.299473443483287020e-02
3.288053648784754895e-02
2.321946952272741643e-02
3.608808352803666297e-02
5.260240855354152145e-02
3.997343230319306412e-02
-1.115973306077948368e-02
1.021835247487554166e-02
-1.093669868543744629e-02
-3.929336705586244233e-03
2.762092187411748639e-02
3.084650552140510288e-02
2.994102631208787543e-02
2.097492319352845316e-02
2.549571942812035516e-02
-1.352767521117196649e-03
5.291272257943736845e-02
3.258868068227494669e-02
1.216683149083446977e-02
4.691975823050091587e-02
-1.901955205651208181e-03
1.765249949786486597e-02
4.151854546209120256e-02
-2.116528006602236278e-02
8.286608211596072082e-02
-5.631582255907242873e-04
4.557619000779335530e-03
1.988604685648945325e-02
4.275794967489526810e-02
4.702966293022328714e-02
6.847677532837857795e-02
2.326886590739264682e-02
3.691624768111188143e-02
-1.714922081528432590e-02
-9.872028332498835462e-04
3.069766595838626516e-02
4.664008390172429824e-02
3.715525440300739002e-02
5.707443202420347389e-02
4.262300562142276594e-02
4.045908470939429957e-02
1.228089134472599431e-01
4.639879027678826817e-02
8.832707017426635887e-02
2.260205436829595266e-02
6.944595692441796198e-02
4.963190516119297957e-02
1.335240668998891878e-01
6.177607298900482380e-02
8.206828760820848723e-02
6.287791000317152768e-02
6.573972911471537284e-02
9.469149009513626314e-02
1.126226916074834633e-01
1.382638550567665270e-01
9.395051229626744105e-02
9.821051869857044814e-02
1.593498235343659419e-01
1.732507801234936529e-01
1.274466847706382244e-01
1.483543003413077266e-01
1.887318310900464868e-01
2.221948520928650195e-01
1.591813750277205619e-01
1.728776895751979459e-01
1.576828912922431658e-01
1.124466741440350304e-01
1.701200701848511188e-01
2.034394982231108873e-01
1.419845289089094464e-01
1.109110603675913659e-01
1.859287721429500884e-01
1.168736499285373542e-01
1.234761093691302269e-01
1.224245483898630527e-01
1.119851148809909436e-01
2.042492333273835670e-01
1.770566575975662249e-01
2.350111950119284088e-01
1.959051334002263056e-01
2.365716376645297658e-01
1.567763579934437490e-01
1.890726672943697229e-01
1.430915540394281371e-01
1.774434337842910048e-01
2.349421327377706481e-01
1.989300441878053827e-01
2.038844598301579880e-01
2.240606839074626988e-01
2.463278554691887279e-01
2.676463711006367152e-01
3.290223600995018094e-01
2.979937284410474341e-01
3.492258793569500419e-01
3.996122810563096373e-01
4.163621142150705223e-01
4.823388157604663884e-01
5.762304153305761734e-01
5.907663760644942252e-01
7.650132801310947084e-01
8.003451081624176622e-01
8.279938378685512967e-01
9.120477175776898759e-01
9.891375167084702769e-01
1.051594905157274384e+00
1.102281289919814000e+00
1.240777191653411160e+00
1.188056092406386988e+00
1.240512264025518618e+00
1.286710119454048007e+00
1.325214394136803531e+00
1.375826327585014663e+00
1.313009259589146493e+00
1.316044033329036189e+00
1.284356410819664784e+00
1.233649000048886002e+00
1.227034511275835849e+00
1.147923687812383298e+00
1.103169673294976949e+00
9.979422304088133577e-01
9.202128550003909613e-01
8.539782580433892267e-01
8.008153893162518466e-01
7.541400699664377871e-01
7.147441333404724872e-01
5.918733548168999548e-01
5.817030721005057581e-01
4.887978582623193624e-01
3.995979245293695414e-01
3.784875092524316864e-01
3.589190071097597690e-01
3.276738111683012433e-01
2.595738203721270065e-01
2.398660516953630140e-01
2.215594116415451065e-01
2.107762324470009441e-01
2.145105847661471776e-01
2.537250440373883253e-01
1.788254735596103429e-01
1.388794651885610076e-01
1.354076842046662010e-01
2.110062835034673401e-01
1.713475835125268243e-01
1.979622084223781608e-01
1.715781649228471373e-01
1.918707715127040414e-01
1.905137589694998745e-01
1.839233594861121035e-01
2.460995379541563444e-01
2.529255239933282384e-01
2.375197685832308725e-01
2.843641187305918083e-01
1.882883011382958105e-01
2.260840681828646392e-01
2.265183663533443248e-01
2.627538237384909325e-01
2.080115860557469054e-01
2.700709964640877203e-01
2.108223311899217189e-01
2.804400589185597203e-01
2.963615266970123230e-01
2.312721589515652487e-01
2.575239783684277750e-01
3.073380101787862584e-01
3.162531091120032167e-01
2.342971939853348839e-01
2.908122368296711668e-01
3.012585434878306545e-01
2.832508974781711708e-01
3.282262138475888769e-01
2.700834227245996200e-01
2.751203729114146679e-01
2.685929094082514235e-01
2.962583864984520976e-01
2.810786237967683454e-01
3.152725317254328474e-01
2.783667093062169862e-01
2.832311058870262688e-01
2.949284119523851166e-01
2.628862734723749206e-01
3.168967060519221612e-01
3.053201099170869126e-01
3.024263362643851427e-01
2.500587928801072946e-01
3.246416865800395568e-01
2.200874419476975818e-01
2.949906143357394761e-01
2.739103819112295168e-01
2.864649163407259058e-01
2.565163709944531245e-01
2.618609501415155028e-01
2.764939989364403328e-01
2.514878135668452974e-01
2.538502557599249809e-01
2.505543234745218339e-01
3.045533342513266906e-01
1.863019491198184552e-01
2.685213324191931261e-01
2.385282954414459367e-01
2.300480105493727112e-01
1.772202808183479250e-01
2.450949602491420687e-01
1.716152965017245235e-01
2.448805466485597382e-01
1.794597965106430881e-01
2.350246150573681303e-01
1.646432973263085575e-01
1.530211961324151049e-01
1.732207815465984513e-01
1.490270658232570600e-01
1.594320489052973855e-01
2.124021741313973921e-01
1.405629044544438322e-01
1.578245091287122370e-01
1.958700437815270590e-01
1.508769764515492939e-01
1.732011656048257076e-01
1.519196521574712744e-01
1.611034017708927180e-01
1.251291230771953145e-01
1.407235730819874353e-01
1.737537950708735734e-01
1.059436682452791906e-01
1.248968679184204456e-01
8.858606537475963161e-02
1.367702865531472134e-01
5.239646801820552202e-02
9.058269438275831642e-02
1.267486780626293497e-01
8.919373352718590331e-02
3.737448865589684116e-02
6.543393890662577150e-02
6.559140225163505311e-02
1.310114397300878031e-01
1.053152715195128097e-01
1.062965817490079123e-01
4.059014914765012721e-02
7.577406340829924425e-02
1.205730182109401583e-01
9.910846573927389880e-02
5.543147953049213511e-02
9.277941673333567341e-02
2.930904786305846624e-02
4.084417375638510483e-02
8.878739453291872863e-03
6.090534726222054246e-02
8.225994382160636831e-02
3.340966840687242811e-02
5.871128757997193248e-02
3.550767032036628718e-02
4.225014122588108267e-02
2.797511851117276405e-02
9.604971440478984879e-02
3.760141061496979908e-02
5.045349213102108543e-02
4.184566622056623553e-02
6.680429681933626462e-02
1.318823398069065012e-01
1.406507090134868909e-01
5.047670511704367702e-02
6.963663446030132764e-02
8.611961632326035898e-02
9.517005454139962350e-02
7.689878683813948512e-02
9.141778402855002539e-02
7.111819302546590338e-02
4.046660180387503386e-02
9.304905773166444183e-02
6.505294485982555941e-02
7.188068500819375095e-02
2.226647949811243893e-02
4.103952919919634512e-02
5.391299187037390528e-02
8.273789577584045318e-02
1.224053954225967911e-01
9.367001764518524676e-02
6.673882818165195741e-02
4.465123370149726156e-02
1.139613886531266329e-01
8.851183199355751319e-02
-1.448479776783628131e-02
1.155500256930265396e-01
9.841646633424591673e-02
2.581486742167560244e-02
1.122250920101275085e-01
9.952760462701261412e-02
6.109863387144282010e-02
1.654834998661436907e-01
1.213653554753573727e-01
9.768905445337290605e-02
9.286248754696722896e-02
1.148682350414936132e-01
1.202052791432438594e-01
1.466870916260769042e-01
1.267118891752705978e-01
1.260246803526497983e-01
1.477372607899078150e-01
1.344504914738008650e-01
1.486028336653704152e-01
1.980156688819841304e-01
1.464652201498699013e-01
1.600332108474827875e-01
1.451075664672236420e-01
2.052135197758267471e-01
1.252396622866098763e-01
1.546796426468951546e-01
2.044562965734989246e-01
1.817345464680275857e-01
2.156708477271679636e-01
1.860526171508483095e-01
1.740488976529679932e-01
1.926048565835851434e-01
1.592761631095304664e-01
1.746966291525169079e-01
2.279873828166319727e-01
1.937046187300374145e-01
2.011601844289606644e-01
2.061882796059194556e-01
1.556193925005217304e-01
1.560480983343406347e-01
2.144095507446500126e-01
1.909405571420240699e-01
1.972338322574851421e-01
2.233689934096249607e-01
1.786586721440909242e-01
1.924706051382931160e-01
2.029735114530502316e-01
2.293913120732152811e-01
2.163170150074081310e-01
2.184274550405967408e-01
3.015054506770047937e-01
2.686421984380957806e-01
3.077777620172943984e-01
2.589592103716289451e-01
3.045325531956718512e-01
3.958683575449455372e-01
4.116199506562911448e-01
4.533513661613523538e-01
4.880133336628385554e-01
6.025912759551693698e-01
6.546312107592476837e-01
6.988012292449479190e-01
7.771075138339713639e-01
8.316504742601873446e-01
8.921159543766978839e-01
9.681745042565441661e-01
1.075439167982477962e+00
1.105422568778348547e+00
1.178046541946479620e+00
1.215206496608508324e+00
1.299289956990555384e+00
1.284583504729995607e+00
1.371879770799131260e+00
1.319157305867902696e+00
1.317472585628855164e+00
1.381048010682368155e+00
1.263677759808754519e+00
1.258447637886715098e+00
1.244029767109958273e+00
1.113009063684361921e+00
1.105715457959812298e+00
9.851076751581179236e-01
9.620234571253831746e-01
9.496590140191381035e-01
7.453142894872684110e-01
7.419280781292193483e-01
6.612711761504910246e-01
5.788865868428716421e-01
5.017359777178683755e-01
5.241195484205583011e-01
4.460025458425603273e-01
3.388471203957474920e-01
3.265655171735556417e-01
3.040726012031660375e-01
2.444020874911005947e-01
2.701042418065293660e-01
2.555744054772159934e-01
2.396569647586617446e-01
2.811538239024506947e-01
1.835329980641020320e-01
1.914712344617636175e-01
1.860129559065605009e-01
2.255085026882270305e-01
2.218112805889166095e-01
1.663671710444817320e-01
2.454659288243106197e-01
1.774678968100604770e-01
2.335161422727111136e-01
2.353429784283473103e-01
2.274353953377030724e-01
2.097987990703936156e-01
2.146816941368069886e-01
2.428583268181244703e-01
2.486501592708548203e-01
2.585733032265721265e-01
2.629643311733049216e-01
2.562432446395341845e-01
2.925750855448238652e-01
2.362523559153852371e-01
2.594785449772997188e-01
2.452492732191950409e-01
3.389274951865571262e-01
2.919890979112809148e-01
3.027073981836128636e-01
2.887379660182266550e-01
2.764783846886282870e-01
3.608932005433422852e-01
3.195995390204856013e-01
2.756329876139889667e-01
2.789650743776471153e-01
2.953989016035700743e-01
2.738649494169174692e-01
2.807438987980678258e-01
2.463921628394072638e-01
2.206581498459369295e-01
3.520870807491189303e-01
2.775713415460314137e-01
2.833424487379836987e-01
2.939575336932678806e-01
3.119135018639080936e-01
3.131836110775110260e-01
3.193820640774924779e-01
3.040900544945450146e-01
2.768775703032815838e-01
3.206722751172911834e-01
2.749451453971451520e-01
3.085771403604253837e-01
2.285256893570770664e-01
3.106296292787326108e-01
2.414940273779931645e-01
2.211863581076403407e-01
2.219670243852937819e-01
2.630932609649800358e-01
3.214816002806423212e-01
2.427571147282193698e-01
2.408574913276129437e-01
2.627310295392837336e-01
2.177327669893422690e-01
2.257357710916641502e-01
2.148882803729398050e-01
2.793973420910842997e-01
2.176104647688464067e-01
2.327038774193163351e-01
1.837338001681762534e-01
1.657518822890842181e-01
2.146350128751889075e-01
1.970896566287288487e-01
2.151935821530265580e-01
1.524857066828817220e-01
1.711351025508231205e-01
1.301101550922523775e-01
1.488191900723284111e-01
1.152347001039830676e-01
1.450675612734900755e-01
1.879040730201943232e-01
1.180694152068584024e-01
1.129195729649638269e-01
1.293483204790179530e-01
1.242447449358389799e-01
1.483798066083877043e-01
8.192155158923711267e-02
4.150082761879215348e-02
1.143553613291511395e-01
1.591202628787597162e-01
9.865198071206349173e-02
1.125360306246716569e-01
9.457937620023419700e-02
1.157636813472892462e-01
8.112118469816689825e-02
8.442043736597691639e-02
1.325772989414763237e-01
1.146787264218338681e-01
5.664990470495946673e-02
5.459944431825679290e-02
5.397254987217228045e-02
3.554075572793672505e-02
5.020424589509673435e-02
6.075966204120572534e-02
3.894313417382023329e-02
7.533857306852584368e-02
7.743171044953336274e-03
2.061059317206893546e-02
7.393961297921317066e-02
1.094489669393644837e-01
5.835752805417271372e-02
2.418699192854625868e-02
1.435153680520226058e-02
3.510585548401603390e-02
8.306352007230113910e-02
5.927839540757549874e-02
5.606297050946264238e-03
5.253199344289816858e-02
8.372444575016795010e-02
7.520494198328638025e-02
7.886868324540388664e-02
6.220647186452461785e-02
-9.480459264124795060e-04
1.269137788532581981e-02
8.856768617337976157e-02
2.572215483364199626e-02
-2.135019170462186880e-02
5.343577660099627091e-02
6.688598157373895625e-02
3.247431314403906311e-02
5.132763426888384273e-02
1.002710954852161634e-02
2.107473530550572904e-02
-1.903401207121892952e-02
3.357201259478217320e-03
7.910280473787190125e-02
-6.289192778047127119e-02
2.559903117576362019e-02
2.199799243146640521e-02
5.676517390297764615e-02
-2.401483630814675585e-02
1.827724462993799218e-02
2.486896209575418723e-02
5.617202972066757949e-02
4.537371338558816858e-02
-2.207911571530815631e-03
3.928409593084314366e-02
2.826650008000016270e-02
6.780724583048980403e-02
4.900222892270834213e-02
1.115009326472717888e-01
4.195423134222873301e-02
4.783441228407744189e-02
5.207291565037214243e-02
6.557096492088643203e-02
1.000960360565495283e-01
6.520455440899874944e-02
7.037255503341405261e-02
9.683915412202430406e-02
6.174245500183940527e-02
1.131574822972661321e-01
8.708308895773278491e-02
7.558587160990641596e-02
5.178898568410415099e-02
7.821808702977058048e-02
1.094001387793535202e-01
1.171237818034253503e-01
1.156203226664135053e-01
8.393014417227659396e-02
1.260554404938860340e-01
8.978129987349200980e-02
1.020909981424509977e-01
1.763851862810664473e-01
1.432249579871147371e-01
1.631670868429363763e-01
1.955019939014702723e-01
1.535385524202732554e-01
1.865284933788084187e-01
1.714787414177618152e-01
1.401288456012480810e-01
1.589149080055297092e-01
1.419397931496794996e-01
1.837517241013013614e-01
1.959695463898073475e-01
1.254258257411988431e-01
1.402316702424616923e-01
1.558808325588941224e-01
1.420657273953773447e-01
1.594106244692449492e-01
1.773801079043343665e-01
2.054052400797892197e-01
1.524568256180658388e-01
1.525566174856091139e-01
1.827450959409697984e-01
1.737701933482665995e-01
1.339208307698800948e-01
1.622114426876793136e-01
1.874403014053048488e-01
2.340541493421833819e-01
2.602462136950579596e-01
2.152429791018866667e-01
2.484759325656775708e-01
3.267796574174702262e-01
3.215107623826348182e-01
3.859764193821206280e-01
4.149612022629884933e-01
4.725748975304145394e-01
5.154055391928492602e-01
6.223945375691449788e-01
6.076019510504213628e-01
7.107966082520342788e-01
8.241514659815281085e-01
8.586518892920728119e-01
9.325805162655917968e-01
1.033453795759913918e+00
1.083482163078896887e+00
1.154297912017568484e+00
1.217030544447881280e+00
1.181363626762089281e+00
1.244551506375616956e+00
1.256226464695553879e+00
1.301658892303067416e+00
1.322142658918725733e+00
1.202967001343058229e+00
1.205907340720600462e+00
1.155716737932666716e+00
1.146589462332723297e+00
1.119383672278971176e+00
1.105528949231689095e+00
9.511222261871150607e-01
9.917915064239504197e-01
8.632221758535405520e-01
7.913787970189825050e-01
7.239651155993589438e-01
5.903882439396285209e-01
5.487349045912859324e-01
4.737459114741493504e-01
4.666424316263942940e-01
3.683468759549061722e-01
3.429596420372413856e-01
2.889460132310335827e-01
3.168960821739099654e-01
2.261796503300620154e-01
1.868034877837270458e-01
2.141865170831687981e-01
1.819045344784266660e-01
2.135622788646234504e-01
1.714983063789138340e-01
1.640396393167523059e-01
1.780287546362407936e-01
1.632299872918131223e-01
1.725107093613437170e-01
1.705811661763842746e-01
1.410944128215796400e-01
1.172931563802860344e-01
1.510078748012725347e-01
9.957841019773992774e-02
1.414488002088113983e-01
1.557344193178796243e-01
2.106932557416718033e-01
1.714742500197481423e-01
2.329334594532140867e-01
1.987453423094154292e-01
1.399527764010506103e-01
2.274378604372790658e-01
2.283922031042195100e-01
1.507400877784374205e-01
2.266621785196877015e-01
2.518887061792833282e-01
1.477718054430687822e-01
1.830693084183493968e-01
2.470386790537497101e-01
2.161710309086997683e-01
2.687030238846698782e-01
2.552829973550774789e-01
2.541777176453203224e-01
2.663569404564664622e-01
2.085293661305122059e-01
2.253164722563359701e-01
2.942459298278406465e-01
2.263359446042056133e-01
2.703874002215976846e-01
2.320628890754447282e-01
2.151766121983764990e-01
2.084378302983458942e-01
2.542520725045549490e-01
2.761187426524232547e-01
2.507336958764626589e-01
2.424728135333547863e-01
1.989078073757655218e-01
2.316401267490939553e-01
2.350129183782829756e-01
2.009355016209748712e-01
2.378415046033123814e-01
2.013927804915972841e-01
2.072983648170045878e-01
2.390700449457954790e-01
2.604095855922356484e-01
2.541602310113768026e-01
2.007494242450370281e-01
2.174643721047521128e-01
2.158754232225980896e-01
2.113539735328771041e-01
1.918497546813516808e-01
2.223013945103011479e-01
1.602895494529326670e-01
1.395977961266887390e-01
1.794974764853649041e-01
1.545014511215763164e-01
2.162444958074586088e-01
1.396040359995819324e-01
1.793665080967493664e-01
1.573019334919821544e-01
9.584827212992103052e-02
1.503460391596973533e-01
1.077047247105741012e-01
1.940627168760649945e-01
9.305320878985290367e-02
8.383507301083406582e-02
4.086861545992905714e-02
7.823527583779482653e-02
1.179337490136647959e-01
6.019939353306154317e-02
1.016659527221464854e-01
8.912187735244095355e-02
4.736075131394638926e-02
6.840237407193920649e-02
3.916938449716229204e-02
8.873319253323350142e-02
3.966096115188919718e-03
7.650961874838323185e-02
2.862656454574138282e-02
4.978790916673987710e-02
5.639525298357787875e-02
4.290439652290245487e-02
9.689871775102996965e-02
1.901314736491556412e-02
-1.288750467523558374e-02
9.010428902454513389e-02
3.293484170649442488e-02
2.341537287918358731e-02
8.321303231832606617e-02
-2.598937604189307735e-02
8.156169537516026052e-03
-2.440381625091838508e-02
2.502209757303894971e-03
-3.943895896215849489e-02
4.058287633708419773e-03
-1.846522108423648278e-04
-3.685005111418806351e-03
-7.257105360093300817e-02
1.678022182762943168e-02
-1.482990906004257904e-02
6.937319578629942696e-02
-2.504586608543404175e-02
-3.139449570823535374e-02
-8.772306732859194017e-03
-5.184737019872772551e-02
2.080091545543965789e-02
-4.503653951863456628e-02
-4.279134284896858598e-02
6.403706383677522374e-03
-1.176658811415834394e-02
-1.310652109672836955e-02
-6.037192433090779464e-02
8.944388872790060008e-03
-5.167297592681707741e-02
-7.294918992722262963e-02
-1.049260884608247540e-02
-2.833483606656952980e-02
-2.928765087993761770e-02
-2.177423495844425794e-03
-3.189512557905042900e-02
-7.474172373046446272e-02
-3.232396724072420652e-02
-1.326544412294809738e-02
-1.621938059022347972e-02
-2.649663423888130170e-02
5.176330831506890939e-02
2.989626038808384373e-02
-5.511856569099993219e-02
-5.924775640019484813e-02
2.267967915912249416e-02
1.606613267067072415e-02
2.984374155596033334e-02
-2.636179367070442051e-02
-1.618506758505811743e-02
-6.289817993994814560e-02
-3.241609181124253947e-03
-2.456186012931406426e-02
-2.648806295764694063e-02
2.714801391929153734e-02
-2.563636916694533863e-03
2.970967749306513417e-02
4.750875111128108341e-03
2.762415184617597608e-02
-2.484214510053766450e-02
-1.156487508610033049e-02
3.530598965994072302e-02
7.627977168594976543e-02
4.342391528155969960e-02
3.394114131849904764e-02
8.269268235995025362e-02
3.531100705240695914e-02
2.225337179341568133e-02
5.070092450439881576e-02
6.604809673641778844e-02
2.125363040171335954e-02
6.747058642121023242e-02
1.618388785874915609e-02
6.314445373916527382e-02
7.161567913494629178e-02
7.938383735575138545e-02
2.550381836080840153e-02
9.098399623888886456e-02
1.177183474079542130e-01
1.370583531171207514e-01
1.414821974861285581e-01
1.014751195757974539e-01
1.776141793486958886e-01
8.270941951613622334e-02
8.561399758323350040e-02
1.096541649782167838e-01
1.352661175990567122e-01
1.307868722789210791e-01
4.119139510504078727e-02
8.380487818338956674e-02
1.360187828496014772e-01
8.644587043653251257e-02
1.092489732052849966e-01
1.238889018204810677e-01
1.277495386658315524e-01
1.394547396957210861e-01
1.526176172510686768e-01
1.349895897553725632e-01
8.166069826732449966e-02
1.398018236940185288e-01
1.599904905869802552e-01
1.484728659314473731e-01
1.833249723132460707e-01
1.644245091368118916e-01
1.695368492699660945e-01
1.678560585028322505e-01
2.785595055824712230e-01
2.152056677577413590e-01
2.805929064234909398e-01
3.096201597664561267e-01
3.253924932676850457e-01
4.426878643454825735e-01
4.869414107694765570e-01
5.401107685583734774e-01
5.790367428441903774e-01
6.832050543928287478e-01
7.292030552707358115e-01
8.231919552062519907e-01
9.230937123655247323e-01
8.758777676405742341e-01
1.044681943556351023e+00
1.145831688038337903e+00
1.179217640971573777e+00
1.195209557295508596e+00
1.243318459336850701e+00
1.204853654845928101e+00
1.249680218960422362e+00
1.238116722235742762e+00
1.216743093292396161e+00
1.236887009659976666e+00
1.166822122798033989e+00
1.072658896979583831e+00
1.088285101621113693e+00
1.013917936022334265e+00
9.695517486204747737e-01
8.665440154671950612e-01
7.549784898065906580e-01
7.046238391672112744e-01
6.344443104635913988e-01
5.613083853204094975e-01
5.088021787911221061e-01
4.852625013023134648e-01
3.646700550620176617e-01
3.806160445923040259e-01
2.696542320699674145e-01
2.555966849168618271e-01
2.308061567550299675e-01
1.930566332122260198e-01
1.958676664513163967e-01
1.537103521857821342e-01
1.361441453318358030e-01
5.711671618249926363e-02
1.311892698144666580e-01
1.690346005215532521e-01
9.375245789429278997e-02
1.261014189318821754e-01
8.094415332714885447e-02
1.358847306936178945e-01
1.235861315236041202e-01
9.952385669175779770e-02
1.006744730509669117e-01
1.366049584599110245e-01
1.224120521605255307e-01
8.842467928574698766e-02
8.386449602991889740e-02
1.517863355917219159e-01
1.157181984220483628e-01
1.441366707221431454e-01
1.651489375816967420e-01
1.157908743894571352e-01
1.257034394083305640e-01
2.089591953478792952e-01
1.519286388042979108e-01
1.987349810168700381e-01
2.470864593371504547e-01
1.825699355721747685e-01
1.528689369321468428e-01
1.856749596068383301e-01
1.791225620492772896e-01
1.895000963140913153e-01
2.114674883966372598e-01
2.171324506010501310e-01
1.340236089619972204e-01
2.315937279845042274e-01
2.055734330472641092e-01
1.813619700094762366e-01
2.215289038580166570e-01
1.686540358872486711e-01
1.704410950132360936e-01
2.324397198561646005e-01
2.025180045643728000e-01
2.470987731098624463e-01
1.787699999740912371e-01
2.071080735997099798e-01
2.087345947910851374e-01
2.077680901151773563e-01
2.124328230247727878e-01
2.055627454343265104e-01
1.900657245985702959e-01
1.287174023547609236e-01
2.101332892943354180e-01
1.100123730774513336e-01
1.410192648723783138e-01
1.534889587035787040e-01
1.981302797212834976e-01
1.605895777327567830e-01
2.195547356969609620e-01
1.175921849146161074e-01
1.219485135071711190e-01
8.303111779392113867e-02
1.116245697462724257e-01
1.224219440234818879e-01
1.806242926483258571e-01
1.632401950429361315e-01
1.341387355479845556e-01
1.127069161625576521e-01
1.399979500221492090e-01
1.502163366779680209e-01
8.758603808147691350e-02
8.551544623274785761e-02
8.393275454900064880e-02
3.979791739638868786e-02
1.231392111939335621e-01
6.431974267116881416e-02
6.819485157480402460e-02
1.156593108128219638e-01
5.095669798651557281e-02
1.003600995844995680e-01
5.241914570134800777e-03
6.992316787147578871e-02
3.519803014510208827e-02
-3.242028411191165416e-03
5.753522919251137513e-03
3.981556280662692376e-02
2.699553255525746764e-03
3.899719848223190399e-02
1.272616806058855798e-03
-2.870522197429124095e-02
4.533905968513065460e-02
2.156696706528435370e-02
-4.474042354885360978e-02
2.568119073556070914e-02
6.621080523616429403e-03
-1.300144906449890447e-02
-1.469627367267272583e-02
3.451383888783376291e-02
1.237016658305896410e-03
3.082204851653887884e-02
1.023891476275094747e-03
-8.483347759444190284e-03
-4.041094031462590108e-02
-1.500896207849801434e-02
8.947395787492040675e-03
-2.107791952420454834e-02
3.285073108274523535e-02
3.720367783401248851e-03
-6.433603670357598836e-02
-4.436265324002650057e-02
-1.094780638719812516e-02
-7.819669607833931724e-02
-3.703307544669625501e-02
-6.258303630631899261e-02
-3.436192406765965074e-02
-6.421886002857425668e-02
-5.693129143616984522e-03
-5.330794635436210405e-02
-1.875158598205347443e-02
-8.407881594719582297e-02
-4.891834905340797235e-02
-7.859399978569014955e-02
-4.759599628471541943e-03
-6.406989282548448961e-02
-4.365602463693331325e-02
-3.060266741208568161e-02
-6.359544717680175319e-02
-7.717105079213282259e-02
-3.546887237563864370e-02
-9.879268125009797730e-02
-2.677613904083636642e-04
-4.422433135074466115e-02
-8.385226475880269703e-02
-4.696720376705745131e-02
-2.098630929313850466e-02
-6.201111371924375448e-02
-9.481954843514200926e-02
-3.919662884969440930e-02
-1.146652549402839283e-02
-2.598111010581261732e-02
-1.941820713589062150e-02
-1.182188989396953938e-03
1.937456379872552759e-02
-1.069890269048817955e-01
-6.383933548887349430e-02
-1.680548119501959828e-02
-1.110579146811283002e-02
-6.328649798348802424e-02
-3.751669630905658109e-02
4.055477045614304388e-02
-1.861154353924901472e-02
1.609686531835699541e-03
5.248304807642203279e-02
5.205762511532464887e-03
2.978190008602808747e-02
2.722226242394340523e-02
4.084080101093991166e-03
6.570638575158264938e-03
5.812928080197762859e-02
2.685962578662965533e-02
1.342535113465215257e-03
6.865261068397704447e-02
-4.483714373637799622e-02
9.280944219485118274e-02
4.452386570272735128e-02
5.500329405557994461e-02
6.185769999163829441e-02
1.038255466862244014e-01
7.357764237310379651e-02
7.200370652016979678e-02
4.830494777331364314e-02
5.949018564787052904e-02
1.039946301848108101e-01
9.503227783955063568e-02
1.423483633144299598e-01
7.041654599257385350e-02
6.309795054861974672e-02
1.092715087064207724e-01
9.997936798602613528e-02
6.854354945537050048e-02
9.057851329300051213e-02
1.286403747855475455e-01
6.895119835943469555e-02
7.522995074773243529e-02
8.808189892553131006e-02
8.909812143266548912e-02
1.344182958758313173e-01
9.425844342154499067e-02
1.602533714620257288e-01
8.067436392554469538e-02
1.240033655349686570e-01
1.136066147615369948e-01
1.175798549844583041e-01
4.752770837614638672e-02
9.393468196093797407e-02
1.292770990472244530e-01
8.505428377486096148e-02
6.915066433048810968e-02
1.358513205935084067e-01
2.028927968668592652e-01
2.312768192354134056e-01
2.091804494084624488e-01
2.738848508254667635e-01
3.320580980398063486e-01
4.040530921408969078e-01
4.533621988846087136e-01
4.979216763074206797e-01
5.151406710352822715e-01
5.948839680201225555e-01
6.670003895173231001e-01
7.292465771076874770e-01
7.664313403719174023e-01
9.225906142223778694e-01
9.620294561936916233e-01
1.041225610639916033e+00
1.095728700657363719e+00
1.116780312612558612e+00
1.130256248977937306e+00
1.233458043207972032e+00
1.256437270081434798e+00
1.257892563798759911e+00
1.315167825615234820e+00
1.222982963392559519e+00
1.208205131730393234e+00
1.190480554696530247e+00
1.125940793184371014e+00
1.081583474450183546e+00
1.060023580721598746e+00
9.443001721412674909e-01
8.769564624819843335e-01
8.398934862015716707e-01
7.104418851000667834e-01
6.757894155762158572e-01
6.045136129557191484e-01
5.608698233938651523e-01
5.038492030743657590e-01
4.174873810818698905e-01
3.675653694501416213e-01
3.225377607041697847e-01
2.734690918447463259e-01
2.861555979150219864e-01
2.324869231064324304e-01
2.304802065517423393e-01
1.458703223365094281e-01
1.935640914118592903e-01
1.471739181776785255e-01
1.549117014844199613e-01
7.069808242304212453e-02
1.727010663889071429e-01
1.350364013748192316e-01
1.772671544750776262e-01
1.555564002225954812e-01
6.268037620514869956e-02
1.724680703628349021e-01
1.357852553062508238e-01
1.532742845208296956e-01
1.544647824544285730e-01
1.396846613488660904e-01
1.351156556516567020e-01
1.731188667076018484e-01
1.317260807420833069e-01
1.622808501424455874e-01
2.081920414648666673e-01
1.341881060839605067e-01
1.693487223311536671e-01
2.147891199064319578e-01
1.595006242663871698e-01
1.309491774336168646e-01
1.327221663330677703e-01
1.818808542381472604e-01
2.501303058932490830e-01
1.801396092433549256e-01
1.975883407886156184e-01
2.108034312684888556e-01
2.451468901021599811e-01
2.401871874688020769e-01
2.121406481507183139e-01
2.367393275068005176e-01
2.523369979751385883e-01
1.726318937347469107e-01
2.119108233885014236e-01
1.881409082998581339e-01
2.030346126463855039e-01
2.447303294307324184e-01
1.893373480278267018e-01
2.944699695180656995e-01
2.445236260144770801e-01
2.065071120299722673e-01
2.191226707839647736e-01
1.831766538726497251e-01
1.760820809411346721e-01
2.069944307912424952e-01
2.558026132545354603e-01
1.720880498475974019e-01
2.487981418938274292e-01
2.035245522806660989e-01
2.133267273324612467e-01
2.052237355378990769e-01
2.229361072199416705e-01
2.291175033292320584e-01
1.860621622723717949e-01
2.039440452678349391e-01
2.236716092267835299e-01
2.049342443089109400e-01
1.638547984107028010e-01
1.660232154635514212e-01
1.378068407668619488e-01
2.173746004316132185e-01
1.674025588710398860e-01
1.114106414610605833e-01
1.235747040094147819e-01
1.393817458590408120e-01
1.794461646235825381e-01
1.286367564990344159e-01
1.476668840611867484e-01
1.033014569293164431e-01
1.392825360440016758e-01
1.542312262300696013e-01
1.341696258573870926e-01
3.210357456631378337e-02
9.662734589861896040e-02
6.493234931773016194e-02
1.123350933233321081e-01
8.992061872862766592e-02
1.348671988070528349e-01
6.934469001417101208e-02
7.739834390342653636e-02
6.752044463597578483e-02
8.888903960488286904e-02
3.440381009769788445e-02
2.988832119913086005e-02
3.945134175752656319e-02
7.047222553830233271e-02
8.080409294637945494e-02
4.366492127078913654e-02
6.115126336012775138e-02
5.571732862064141673e-02
3.595099367096792758e-02
3.255992500009984719e-02
5.531972588615440001e-02
8.747939723243844390e-02
5.733897109936596931e-02
6.159078308303232024e-02
8.460109549946182028e-02
5.234249392123083849e-04
4.065930863163993991e-02
6.156408053440107220e-02
4.441896498586372227e-02
-3.257174627128997871e-03
-1.061573518714420579e-02
6.095274552481627639e-02
2.320111901867961263e-02
1.876035471473356392e-02
9.131820089889400305e-03
5.289163835951418008e-02
3.594137550331973074e-02
3.488019119808625015e-04
3.256676714218527391e-02
9.944069555033307334e-03
3.020579735504200225e-02
4.426608676390435260e-02
4.027641443843545804e-02
-4.890649384728382176e-02
1.803115043461618952e-02
4.679446797773647443e-02
-1.920745710155427610e-02
6.201596529272354608e-02
2.101791119968413404e-02
3.128861661279814382e-02
3.147958387705619698e-02
-3.727997148885411199e-02
3.330340382525501242e-02
1.871288530501606651e-02
-8.951579523061225716e-03
5.385985668974711815e-02
-5.092105012522466639e-02
-1.157710237859653143e-02
5.138881052993442278e-02
3.916118407446927963e-02
-6.011603755315566948e-03
-9.891054390381031139e-03
8.105233032215480166e-03
2.634224891774087848e-02
6.059014186562128312e-03
1.870812367757785505e-02
2.615124465202757140e-02
1.594512376800181000e-02
1.518630336745065666e-02
-3.893712819075054003e-03
3.335912327288293594e-02
3.567972643321831033e-02
1.204940279732615201e-02
5.188076178050964049e-02
8.216908698521746546e-02
5.234889509702672639e-02
6.708859700332112097e-02
8.774165369767382427e-02
6.114736443897852980e-02
9.316722620353115603e-02
1.632164697289913927e-03
5.394216882046092010e-02
4.668388361309301626e-02
1.266862683651604204e-01
1.080455252968465785e-01
5.758090936115247555e-02
6.935901518858468562e-02
6.229547473073754338e-02
1.180342525256415920e-01
1.187724368475193137e-01
1.049575078572178161e-01
9.592423137085723250e-02
1.257623552179354121e-01
2.083386537466179189e-01
1.236878424274263366e-01
1.734889150464989371e-01
1.339550512474694810e-01
1.755249004440719574e-01
1.678045023839532524e-01
1.517162170076232774e-01
1.745786272237831727e-01
1.937669147455944874e-01
1.619381907444576996e-01
1.562706995668804721e-01
1.831475346609304222e-01
2.133157494402545262e-01
1.236092214658334465e-01
1.280072415225236016e-01
2.089896053186588165e-01
1.507217199087921289e-01
2.046965731916062792e-01
1.476392181397965797e-01
1.545282315392227934e-01
2.009408994064620091e-01
1.935521101881099715e-01
1.402041115559674311e-01
1.960241055019311118e-01
1.635141051703890014e-01
2.040023014387828126e-01
2.024949891123516699e-01
2.080890855522709026e-01
2.105768173494196316e-01
1.986188268020589454e-01
2.537386247980564780e-01
3.221338968580865769e-01
3.486949812447429631e-01
3.491027237916632942e-01
4.518896392450897359e-01
4.798772286992034619e-01
5.430476932450588601e-01
5.539080877123352398e-01
7.040634118942207254e-01
7.327501124303613667e-01
8.353340473120892673e-01
8.423988800728955395e-01
8.782533179447236105e-01
9.747905829003646883e-01
1.100898373485894588e+00
1.097120625754127055e+00
1.230340016187138952e+00
1.210098949757373310e+00
1.280068398013316511e+00
1.301342122958179859e+00
1.299361891374821720e+00
1.301960744810927384e+00
1.271907459929823236e+00
1.338888755887232662e+00
1.263171496697710117e+00
1.156294943726724922e+00
1.112796386876921728e+00
1.110427001782080314e+00
1.029291862786487766e+00
9.060663342299201117e-01
9.651114520997021717e-01
7.328010187051642310e-01
7.307127568526395889e-01
6.752816869276185852e-01
5.875308672884491656e-01
5.709511436051798450e-01
5.029049869060797651e-01
4.392386674079368225e-01
3.858687986562952532e-01
3.628419640856853645e-01
3.047264549973188186e-01
2.353316061936310821e-01
2.844039205280802229e-01
2.872422047174117421e-01
2.208448080797292823e-01
2.087765846683036775e-01
1.951445423491133258e-01
1.500827775489545768e-01
1.691171200992596935e-01
2.071100030718767138e-01
1.903006707712183720e-01
2.349598552133288498e-01
2.077370795694712946e-01
1.758086175956445896e-01
2.116016051130773235e-01
1.893120685381174950e-01
1.500394297709886082e-01
2.352569275856862263e-01
2.237289669213679277e-01
3.014555543658890002e-01
2.018833226246267432e-01
2.447518760133240712e-01
2.052395250173134900e-01
2.060866016066968676e-01
3.066046535071139667e-01
1.792207674268883888e-01
2.442148619096099482e-01
3.016641853116184269e-01
2.070564848016753223e-01
2.418877633087482271e-01
2.880049331499390242e-01
2.281039438683573339e-01
2.772691934402430891e-01
2.466579347461321237e-01
3.132858750105021461e-01
3.147346764425496546e-01
2.635260979644509227e-01
1.937828234890296153e-01
2.971638669239284325e-01
3.138652706589442065e-01
3.001291383641186417e-01
2.972632824435315069e-01
2.939432822049107830e-01
2.761338902326858080e-01
2.635229272328145078e-01
2.873520878141437307e-01
2.785121436828039698e-01
3.053428359321982422e-01
2.580489794464632669e-01
2.693595747135613117e-01
2.831007094527483448e-01
2.559250423712495781e-01
2.348417671819522656e-01
2.935763788053140644e-01
2.325282359198902471e-01
2.745558285640689600e-01
2.819626330763722599e-01
3.054387318926760631e-01
3.286085209932489981e-01
2.953977006228354907e-01
2.309231824701606650e-01
2.392982074541863957e-01
2.532352860486125068e-01
2.381312026202450360e-01
2.402805622932566720e-01
2.686256576216367042e-01
2.305646133479616888e-01
2.494834379651494072e-01
1.834074479793424139e-01
2.269956589651503376e-01
1.575070831144491368e-01
2.364023567158104189e-01
1.923602758392728429e-01
1.516104968368097716e-01
1.797486026140157067e-01
1.974625357970430373e-01
1.411657673679587999e-01
1.471275591213705991e-01
1.568267896189181609e-01
1.889597601851294717e-01
9.888339668833509566e-02
1.683921561386186316e-01
1.424535937910980099e-01
1.777641304924074961e-01
1.532626681711279915e-01
1.777077763923097520e-01
1.450575417490660435e-01
9.228785687297791362e-02
1.375205366726379996e-01
1.355364489700340846e-01
9.604847752962814011e-02
9.691187175004126186e-02
3.740550531163042841e-02
1.281731336575289149e-01
9.850582094631481211e-02
8.235369417595356234e-02
6.619014078274411406e-02
7.852136326404283995e-02
1.037280501333258942e-01
9.330334583216809419e-02
7.528921698204969759e-02
4.609763967216493757e-02
7.019643728320651421e-02
5.316382296712968830e-02
6.945018939593322616e-02
9.261448718624601395e-02
5.588398701015979964e-02
1.204227237312911480e-01
5.143419867983100441e-02
1.551015734241080121e-02
5.877804256316428166e-02
4.595143588578537441e-02
1.651786181768085393e-01
4.770917103573106555e-02
1.462792621873693077e-02
5.944549828024096177e-02
5.239314594731567243e-02
2.148049376255842940e-02
6.647668032323481024e-02
7.199014000378374523e-02
5.683072575918295122e-02
4.586047871366969592e-02
4.235647053114181132e-02
3.431908523249908166e-02
1.426675857832054167e-02
9.701905201908483933e-02
1.254337658213576789e-01
2.140994904658926473e-02
3.412930811141606791e-02
1.982732325416627223e-02
7.914715310171568929e-02
2.220927309813820749e-02
7.393857253748027658e-02
6.623777777811745704e-02
4.931411919440720909e-02
9.531764722235253062e-02
4.474248991859897800e-02
5.613119379908582812e-02
2.050067533403410885e-02
-1.517524828249915136e-02
9.105575146805797160e-02
4.202531412373865238e-02
9.672730608736490598e-02
5.306696015875090461e-02
6.212252827493255913e-02
7.347540786745980490e-02
5.317654312044787362e-02
2.312766771662713022e-02
4.784053573589033825e-02
4.804316203300125487e-02
7.827239647118591770e-02
1.156943292831882630e-01
6.349311460140438790e-02
8.552171716673195867e-02
9.908747082030912312e-02
7.167497949350695730e-02
1.107939253771171584e-01
1.361307142794792591e-01
1.189452929639305961e-01
1.097839995214446585e-01
9.033073232605484670e-02
1.163704739201006366e-01
1.018026925583233322e-01
1.113154566041333754e-01
1.298290436246185564e-01
1.318540151280750694e-01
1.737063638976495683e-01
1.296747490199367803e-01
1.635331091858795993e-01
1.424335424656046067e-01
1.334499771491888809e-01
1.832731162493434485e-01
1.817959425397614737e-01
1.552155755514404434e-01
8.326536305517338865e-02
2.142265866553634546e-01
2.072770202234207049e-01
2.216855617421154834e-01
2.261166777504416414e-01
1.928585362312092433e-01
1.821579465160567679e-01
1.428292254814378659e-01
2.022588391878241132e-01
1.860211759009687826e-01
1.770338526912980381e-01
1.605039940387062436e-01
1.708706643946961701e-01
1.617311517101949758e-01
2.321076037770957445e-01
2.359715158316690875e-01
1.805023288174145146e-01
2.400067235166496171e-01
2.072522507272750725e-01
2.497399538986765921e-01
2.259830805147724220e-01
2.306213342193205729e-01
2.240889940352442378e-01
2.020693800296998466e-01
1.934198010411666002e-01
2.512671143791622153e-01
2.576175349955144855e-01
3.575715695759605905e-01
3.253583601303065009e-01
3.056055365743982066e-01
3.614763472410686407e-01
3.913702743598562184e-01
4.451698053804378219e-01
4.564678484710273931e-01
5.778710691950038614e-01
5.986294859277970781e-01
6.943749933228365867e-01
7.245019736591375992e-01
8.011157342989524421e-01
9.025868835043068250e-01
8.942878211170049996e-01
1.055989846173760904e+00
1.137073770476080270e+00
1.198070724165099410e+00
1.188444306876216272e+00
1.265239705186693708e+00
1.279969398950406401e+00
1.275290863276517417e+00
1.337601149539484835e+00
1.294378518317189641e+00
1.347163996664672458e+00
1.333068228651588916e+00
1.315397437321049079e+00
1.249952572377814208e+00
1.171063363884832231e+00
1.119104259543751256e+00
1.063747030746793998e+00
1.034902190163462965e+00
9.635208277213952455e-01
8.440827167699115341e-01
8.038910854558132257e-01
6.886035596685514681e-01
6.499106420353880642e-01
5.630973165443295958e-01
5.224109228532455296e-01
4.372121394850690401e-01
3.715926797445159302e-01
3.348145012798672271e-01
3.532882837188526803e-01
2.713527117640925912e-01
2.686073604088031752e-01
2.843031434214067232e-01
2.741953494440328432e-01
1.979754192567727555e-01
1.454297538337376294e-01
1.862683807607388442e-01
2.117500109036042077e-01
2.232547659851366606e-01
1.667847155087064381e-01
1.495931644453870613e-01
1.768633118127999615e-01
1.908813247191935847e-01
2.721067098213072466e-01
2.162957205448773068e-01
2.363514073668587234e-01
2.540496162839870342e-01
2.118869019552353516e-01
2.328194561662298989e-01
2.418763900531674393e-01
2.569593311286889614e-01
2.393618637003605554e-01
2.789227530866643656e-01
2.850022756093010257e-01
2.475757490113250914e-01
2.829010220613472626e-01
2.757066802306576969e-01
3.476227592739963845e-01
2.982160912527169749e-01
2.862895119077498718e-01
2.607940568074597065e-01
2.497967613616214611e-01
2.993996021103517147e-01
2.348234403965922534e-01
3.370544608646311446e-01
2.285722862466829930e-01
2.612410082359797325e-01
3.236182649915465004e-01
2.937911593178368919e-01
3.013098943877111635e-01
2.758861473856501489e-01
2.930979462360110976e-01
3.175894969668905388e-01
2.719537457506704947e-01
2.886395006259878659e-01
2.959623438793260175e-01
2.867064235295431196e-01
3.161098618601916321e-01
3.058530416735844026e-01
2.871525748497213426e-01
2.370740535284122097e-01
3.214198117119980158e-01
2.557181815368411160e-01
3.339407199993253417e-01
2.523138598947705091e-01
2.820638838488039313e-01
2.900884913740499060e-01
2.614842374515332080e-01
2.729247055687539225e-01
