1.280744105947778877e+00
1.268842412165140265e+00
1.347716930750833431e+00
1.288709686205115501e+00
1.276516238692687599e+00
1.164686994783048712e+00
1.101723461725962139e+00
1.060525006281657356e+00
9.933484320884830021e-01
9.019935075776318589e-01
8.184311496481007087e-01
7.882439493156310206e-01
6.536130484896491843e-01
6.520825446897429156e-01
5.628736019417354131e-01
5.369753251967150920e-01
4.926704369180234799e-01
4.299098947931231929e-01
3.354481356211960197e-01
2.886422958036249931e-01
2.549007955991823282e-01
2.607883900282754741e-01
2.095593642995388639e-01
2.346056342504798387e-01
1.953951858762230931e-01
1.946881985622777034e-01
2.040327436239858516e-01
2.109780744133085140e-01
1.722678935681351553e-01
1.821436250236696253e-01
2.057020314089927360e-01
1.926409819517858613e-01
1.939277543809213578e-01
2.218080242725742335e-01
1.777688449743950461e-01
2.332988838907751883e-01
2.809657479991215512e-01
2.250874151997937223e-01
2.075355321968323508e-01
1.819211317504532133e-01
2.148193458370564746e-01
2.449531651173616209e-01
2.348571725949766542e-01
2.409470830442987932e-01
2.433820347219201319e-01
2.357606853809744440e-01
2.527622312032001828e-01
2.339047201917590635e-01
2.646139691337655586e-01
2.696613936000949452e-01
3.100307036709693542e-01
2.479576368388539953e-01
2.957135917669569403e-01
3.015767072884315558e-01
2.708834889281793723e-01
2.603623160791852520e-01
3.221917805034885118e-01
2.445467659067736277e-01
2.603824956351596387e-01
2.535420072551928250e-01
2.660991532734395260e-01
2.796829066174432721e-01
3.313610031551884605e-01
2.740556501584692772e-01
3.493438394058556162e-01
3.125267832529963208e-01
2.693954513840577381e-01
2.684594007293297224e-01
2.875767424316120757e-01
2.821747483548785462e-01
2.428858545579414829e-01
2.535828263001781435e-01
2.265160510756356049e-01
3.228770926136809716e-01
2.712768056842313480e-01
2.544765530093024974e-01
2.402723090425095687e-01
2.399567724365182508e-01
2.088415662092688585e-01
2.536797815420430147e-01
2.678684263950846800e-01
2.872415116345820585e-01
2.595025594465207308e-01
2.535303682752247378e-01
2.613083243829810165e-01
2.167908468382452880e-01
1.762776191090004718e-01
2.348211904526840699e-01
1.849547560064040974e-01
1.985309141297663948e-01
1.656920089297875542e-01
2.254161893981087850e-01
2.110675790124658391e-01
1.382465062160454783e-01
1.781198028060535232e-01
2.010667478497371874e-01
1.608367094400140473e-01
1.590231320651189773e-01
1.833498233452370285e-01
1.413390214847240478e-01
1.417029693998256568e-01
1.629128643575835089e-01
1.042763046202977439e-01
1.092102926804529861e-01
7.371050359380158790e-02
1.806861760641473857e-01
1.194976380869686855e-01
1.430995352034220847e-01
7.154109861870910914e-02
1.403521431657538121e-01
9.030883441680939705e-02
1.365302763953633591e-01
8.538690578046623236e-02
5.523482042605156600e-02
1.168040843813555330e-01
8.256348353691377040e-02
4.229442317557421949e-02
2.494020614798968943e-02
8.368293702193160821e-02
6.746055880561335760e-02
7.164963691777562205e-02
6.978448523432578821e-02
5.590712617693827102e-02
6.910877898824542565e-02
7.697854122630000406e-02
4.863871527468256739e-02
6.652677133878015514e-02
6.608071330125495080e-02
7.905144497418142846e-02
-2.186374589681421704e-02
3.046086094481058673e-02
5.821854425176103964e-02
1.029789902963088033e-01
7.404970361772841847e-02
7.327160993656303689e-02
1.155778645129286464e-01
3.203589358514418589e-02
9.553267638726639643e-02
5.276301332905734831e-02
1.804292365914304808e-03
-2.109729926645605852e-02
2.246494535631449185e-02
4.821789069902575331e-02
1.958957668373618316e-02
3.030181699098623976e-02
8.355466088755375553e-02
2.673852450298647154e-02
8.367089044499996520e-02
4.736781697184361262e-02
5.559178163694661334e-02
1.637838342633679556e-02
2.048183504185491569e-02
2.280367894410889953e-02
1.930916697599684151e-02
4.115961468613701935e-02
6.010557031593964650e-02
9.505704495881954486e-02
5.874012548560264557e-05
2.088924325869536899e-02
5.073801471433606047e-02
2.276413455789486062e-02
-1.786208154452297373e-02
4.501480736700234908e-02
-2.691069077285779265e-03
2.760218283017721458e-02
7.373318684812718571e-02
4.377182889143255151e-02
4.209925268224828931e-02
6.865933944831668911e-02
2.093863076271183787e-02
3.584380422496635105e-02
2.126285377866503692e-02
5.133663447246501060e-02
-1.089024757518597050e-02
3.863750977758170432e-03
3.305676965467514022e-02
5.189552077883342190e-02
9.279579380043467829e-02
1.092224098515089288e-02
3.801021623261377491e-02
4.997800142216882874e-02
1.036655979792252061e-02
2.511129191564265631e-02
-3.402714053468230970e-03
7.012840358870117696e-02
3.257499927917034688e-02
9.691141095402025507e-02
7.617099982513995948e-02
6.150152619993626973e-02
4.855996829261030601e-02
8.650722839635544004e-02
7.137617326062890843e-02
9.931101748887807834e-02
1.219690535495260575e-01
6.880218039266668140e-02
8.286745891658679752e-02
1.385578209309632214e-01
1.461981386079246326e-01
7.980123927414514706e-02
8.780584108996990211e-02
9.163137490691294906e-02
1.282968994213032898e-01
8.333526620936862472e-02
1.298409439218435879e-01
1.312121345755921653e-01
1.173652125632539678e-01
1.416446162037345025e-01
1.445017216777629843e-01
1.337782018421621311e-01
1.972835244701684476e-01
1.366854886042701278e-01
1.519318715135689890e-01
1.340505432120577267e-01
1.823578047888589349e-01
1.200751021154909254e-01
1.591123166443776937e-01
1.277520378699930070e-01
1.036126240133024567e-01
1.349263738671122870e-01
1.358268418310809578e-01
1.708998547201624751e-01
1.294576667007069914e-01
9.296180693177877319e-02
9.644299670829266369e-02
1.625902956204123007e-01
1.743837457240228761e-01
1.695868222809874259e-01
1.572266254248749218e-01
1.872376733184432929e-01
1.326044748797529371e-01
1.409229926733639171e-01
1.743521927498062618e-01
2.333826136896224868e-01
2.873388014817266356e-01
2.635920793126948491e-01
3.020075690408153268e-01
3.881386366065665561e-01
4.024617709935986998e-01
4.715709600111011590e-01
5.253267584179764915e-01
5.457885359415693971e-01
7.016906970046654646e-01
6.890233255739200979e-01
8.419650467235580971e-01
8.713885473309536112e-01
9.321626563203041504e-01
9.456768259396772791e-01
1.062819341129738637e+00
1.106448203461815938e+00
1.150952902430859348e+00
1.158792879576023394e+00
1.254235397160295751e+00
1.274781054650745871e+00
1.203483093429879025e+00
1.232740072826227218e+00
1.226386390936726523e+00
1.218228817913747930e+00
1.174965546292215501e+00
1.121808402066354349e+00
1.083794187531448738e+00
1.063963189332316928e+00
9.329185055823179251e-01
9.032958280204784751e-01
8.538361237514592306e-01
7.758838343627268985e-01
6.799315527780722679e-01
6.124895570589586891e-01
5.420133765450554364e-01
5.204849087457521506e-01
4.037444587599141044e-01
3.550786401706425011e-01
3.030229864734190759e-01
3.579872288906619238e-01
2.982128430330373003e-01
2.065689308383845679e-01
1.657764997585295108e-01
1.775463306513896111e-01
1.711003000815867203e-01
1.655282390147530813e-01
1.036024581437824804e-01
1.220108801956241024e-01
1.772216622172006484e-01
1.574735608352855476e-01
1.179492448184052550e-01
1.689013438431182790e-01
1.711057723783928897e-01
2.111160406717254578e-01
1.411002138058030375e-01
1.309558166670211909e-01
1.505930696846056738e-01
1.869374118689967057e-01
1.257600565505793966e-01
1.677877975384039488e-01
1.731410150076869159e-01
2.161278447077642217e-01
1.643860869474326192e-01
1.802606847983384553e-01
2.044041599548058474e-01
1.742069836096425683e-01
1.725545952867209298e-01
2.562679664342152885e-01
2.202850773961633479e-01
2.433121835911237207e-01
2.317263660091468669e-01
2.093055461448311838e-01
1.973246514267214258e-01
2.009949836314623706e-01
1.981010701781087679e-01
2.002076651228097137e-01
2.004168364564659632e-01
2.486935049220119487e-01
1.976570058445765166e-01
2.691910401096984651e-01
2.506782003856499741e-01
2.486298902131607313e-01
2.356961907365654751e-01
2.408836413000503829e-01
2.152519067552932097e-01
2.019201016623804468e-01
2.128774017023095655e-01
1.856024354438429169e-01
2.371642259031103150e-01
1.916550120575059302e-01
2.391086112314855516e-01
2.376408864726365089e-01
2.224730292183466351e-01
1.966862403015870453e-01
1.834770794821748430e-01
1.838266536969607456e-01
1.744123871808485327e-01
1.981247875107198797e-01
1.913232713812546004e-01
2.477739312814351558e-01
2.421169042556057249e-01
2.278289622145686644e-01
1.715348126974154119e-01
1.304343601509541650e-01
1.736546026453276992e-01
1.558377080725948660e-01
1.594536502320435534e-01
1.662220484286223987e-01
1.692674685658838996e-01
8.965722182972343801e-02
1.766600291181149862e-01
1.612897833552459081e-01
1.100977188829212750e-01
1.487310682808759277e-01
1.092341600278240177e-01
1.125903273631029544e-01
1.019093950537298676e-01
7.942567510619583104e-02
5.834955728887522564e-02
1.729282823397916280e-01
1.047554123930100611e-01
8.510669988863042712e-02
1.304562456261408321e-01
2.084716105631045924e-02
5.923987541404108353e-02
4.350443123017240510e-02
4.270553659931068669e-02
5.403623112456530653e-02
3.569431035460110535e-02
-8.738959379557605101e-03
1.017043529257290191e-02
9.080216385581769967e-03
1.955764213302731841e-02
5.986638735623606156e-04
2.031447344447016162e-02
1.780772386905123128e-02
-4.572969550793717919e-02
-1.646631491802668518e-02
1.915480146858618976e-02
6.393591410520586826e-03
-4.582425089227363385e-02
2.836051183501932249e-02
1.984373951435107475e-02
6.906038954743487501e-02
4.972063197953655728e-02
-3.101219005378966914e-02
-1.138008002921282388e-02
-8.631609802937065951e-03
2.675105789685763846e-02
-2.191098467847348019e-02
2.530463148753652608e-02
-8.197042239442828282e-03
-4.221208961292584327e-02
-5.509748494694106935e-02
9.416491894315641431e-03
6.615673193418859788e-03
9.171281919795423732e-03
-1.022413987888328990e-01
-2.979144234323658283e-02
1.069569404757299974e-02
-7.077953556267579938e-02
-1.170401628079345904e-02
-4.620238410207505586e-02
-5.861130858778601516e-02
-5.290863945125197365e-02
1.563025348595326047e-02
-5.522949640341487387e-03
-3.648191848262213877e-02
3.253997933923651054e-02
-8.770593286798672450e-02
-5.357915850479411102e-02
1.323419976261389075e-02
-4.048876607681400203e-02
-4.159991763611999016e-02
-3.924779608500460204e-02
-4.953053516124063943e-02
-8.079025485943552853e-03
-6.078419982814663863e-02
4.462946447996714999e-02
-7.843474471626027400e-02
1.485656660914942695e-02
-1.097683025169867571e-02
-5.597362808116271293e-02
-2.748086894796798740e-02
-9.465632218259918684e-03
-1.554947007907258802e-02
-9.081094100805364722e-02
-2.151789256971808895e-02
-7.399587091710507769e-02
-3.060455657445670941e-05
1.607914045163826022e-03
-7.046151451518924136e-02
-8.743666313180536998e-02
-3.592771586500113912e-02
-3.251000436708516295e-02
-2.338095207638835743e-02
-9.171785621801230304e-03
-2.449114153278735689e-02
-1.460634678809743028e-02
-4.043449811951492501e-02
-4.379690304967510245e-02
7.760407352974493800e-03
8.043823710493051837e-03
-1.531575330822571024e-02
-3.303212743407384772e-02
4.842065878829283215e-02
5.662964112102628067e-02
4.310330565510226558e-02
3.167354066683113201e-02
-1.610911906372497482e-02
5.903631930695231456e-02
4.209594564574621611e-02
-1.762992136450668157e-03
5.444648822058486409e-02
2.234236304224027775e-02
6.694731706716633424e-02
8.085319699686804862e-02
6.656120924650119064e-02
3.034194342901865710e-02
7.830080835093769509e-02
8.091350857556132981e-02
4.723443519745103292e-02
6.213401200653356077e-02
1.334535715803126243e-01
1.297624286104004931e-01
6.722080285437756486e-02
2.634936203035891100e-02
1.345816412938547757e-01
1.565636267549231631e-01
1.427432925984698509e-01
8.717338745369965225e-02
1.199123381193721027e-01
7.372233504288366879e-02
1.352600889244043869e-01
8.642199588769719498e-02
8.561096235849230407e-02
1.026276781771531532e-01
8.868297359955853998e-02
1.276736414024065014e-01
8.005270945962894569e-02
1.833483248747163896e-01
1.224239687991248160e-01
9.587359163153744146e-02
7.799550312256492424e-02
9.959603706157835190e-02
1.052370334364850085e-01
1.071783702620857787e-01
1.059145940907951083e-01
1.035412780181486636e-01
1.653319516111230181e-01
1.933098324288370917e-01
1.412193129227036215e-01
1.856145195580235496e-01
1.574410936290488450e-01
2.240862397328719779e-01
3.336421695982745295e-01
3.499733702518583178e-01
3.773834011769272578e-01
3.743483092249282329e-01
4.434968949007658812e-01
5.090078754308542397e-01
6.192726212180083012e-01
6.949773863343138292e-01
7.256002021209345676e-01
8.227937145087860227e-01
8.432527744673889991e-01
9.422573899511158535e-01
1.027526786793852231e+00
1.101811247371958569e+00
1.069977530715270797e+00
1.190596611877913436e+00
1.251939529356878911e+00
1.158831650440586447e+00
1.164292873218375490e+00
1.259371343554057221e+00
1.186248705748301546e+00
1.167858307582210653e+00
1.175110646101418466e+00
1.068364999399943782e+00
1.050158742701561509e+00
9.414571312236577061e-01
9.435275256161947954e-01
8.746934304038017638e-01
7.834597232736613126e-01
7.076416858622113226e-01
6.367972877619016980e-01
5.643535108933845912e-01
5.029161886935116232e-01
4.711620949372600786e-01
3.361763394181347397e-01
3.948054295559955129e-01
3.009263778016050828e-01
3.239253797923250522e-01
2.303897892922663060e-01
1.948262816992552549e-01
1.898009678134971734e-01
1.144555471322831475e-01
1.048118299396150338e-01
1.192784420978873910e-01
1.190842686390955057e-01
1.419196504848864171e-01
1.096814955458269847e-01
1.491487145185246277e-01
2.503750585057816502e-02
1.605480715116381907e-01
9.596419054006677385e-02
1.314810935391548530e-01
1.503017740614945308e-01
7.858136087416585369e-02
1.654907014636488316e-01
1.490412370500306949e-01
1.841179496604723187e-01
1.377087810155211700e-01
1.398565276573794924e-01
1.222522031351589156e-01
1.278556517664112546e-01
1.514908663358251473e-01
1.752636189601221861e-01
1.844935108212800157e-01
1.357214962981980744e-01
1.669109246264770252e-01
1.804724565154182114e-01
1.126498823452481285e-01
2.064450377017846283e-01
1.759824007888958486e-01
1.871250065320347322e-01
2.331242998539234390e-01
1.620797391379553420e-01
1.680691573032238040e-01
1.275293138795185466e-01
1.956081783557315767e-01
2.320273816293580982e-01
1.371232850207525222e-01
1.703070809744261505e-01
2.069285222214064246e-01
1.885621604733968282e-01
1.889970840176417866e-01
2.070415307640832148e-01
2.571271587609127440e-01
2.026069313572368136e-01
2.076238656171994768e-01
2.136581565403467831e-01
1.392892327229643401e-01
2.057283973279358524e-01
1.477451371815515224e-01
1.925860591913224340e-01
2.221038775068165383e-01
1.740595784207831787e-01
2.158530817331620610e-01
1.286726181342497111e-01
1.854308302326790614e-01
1.823620344937149640e-01
8.896178351346115121e-02
1.813436898677785458e-01
7.230232606780225002e-02
1.627638703392407793e-01
1.666730531377792479e-01
1.360047133573908940e-01
1.492459363786782789e-01
2.074988738187376336e-01
1.183611717072349662e-01
9.487014017112282982e-02
1.863521032954413847e-01
1.259397180960618035e-01
1.498427443616898169e-01
6.084753015501197237e-02
3.070097948584581127e-02
7.347196624458529612e-02
8.917143249928752291e-02
7.383603661115038796e-02
6.887316376405452911e-02
2.352759734274723763e-02
8.146956554774854864e-02
6.220538815917615871e-02
-6.863806371539757367e-04
5.143733026293680066e-02
5.218729801128304396e-02
8.353197568494662162e-02
3.127342279130121416e-02
7.231978297271521305e-02
6.482906284892972493e-02
1.028983951164254285e-02
5.129216171387640522e-02
6.154616095365689210e-02
5.637725918367929301e-02
3.052697432799677396e-02
1.328618898595819442e-02
-2.784138168754101555e-02
4.555857131115257502e-02
-3.701568113921434311e-02
-1.039378909835783626e-03
3.366879976374705097e-02
-3.158864264782873521e-02
-4.421849462464370883e-03
-5.399099468267568036e-02
-1.987812364519804531e-02
-4.116385293866059447e-02
-3.689962303099243029e-02
1.880444898753122485e-03
2.696947622454010096e-03
-3.609310595292063162e-02
-1.227607586690077079e-02
-3.583863676893390277e-02
-3.412952751344340563e-02
-5.952537874818335933e-02
-4.176656202023770054e-02
-8.643671052344287231e-02
3.477836518485785677e-02
6.627224776390050476e-03
4.311055138148135041e-02
2.711955957943261442e-03
-2.278094881626184509e-02
-9.835482303262432779e-02
-2.223962933775212869e-03
6.503941330169779600e-03
-6.862044310809622960e-02
-1.818202700058221821e-02
-3.079882227476593917e-02
-3.786378130276771281e-02
-1.959017486474414274e-02
-2.235947976857663444e-02
-6.645209393651618779e-02
-7.700764573058883899e-03
-8.070336753153978249e-02
-2.241689867170003347e-02
-2.823777726568865026e-02
-5.964087510242389867e-02
4.010402716493888242e-04
-9.372392413673115430e-02
-2.871683716600219316e-02
-3.073787048771313771e-02
1.110537483854030782e-02
-1.629353402836352521e-02
-1.023912453517052956e-01
-4.920263216060272171e-02
1.373061741727478469e-02
-3.904549971275020348e-02
-6.703888737150993926e-02
-3.452067957974921247e-02
1.817256758552786983e-02
-5.667053310886490530e-02
-6.162796797710426433e-02
-3.587657098011758777e-02
-4.726429788897901912e-02
-4.291395762292829485e-03
-3.547125902839363271e-02
-1.271442362644724725e-02
2.739268004890474395e-02
-4.801306063903611893e-02
1.361296727838992582e-02
1.188877285190694660e-02
-5.011729170688874330e-02
3.097582151148045582e-02
-4.450770857573382172e-02
-4.839787717004206263e-02
-2.687654558018904086e-02
-2.256470956390754443e-02
-5.425231994833148996e-03
-2.472782641713504315e-02
2.930836842393067659e-02
1.222444299350074898e-02
2.566728104481059980e-02
4.466319631753570135e-02
7.431412748641141874e-02
1.999459304050688058e-02
1.907998372932093178e-02
6.611209591383165884e-02
8.441227591037755995e-02
5.386559401855295359e-02
5.832315522695897397e-02
5.465796929101603141e-02
4.717513714657969870e-02
5.852836857015431687e-02
7.254750055203310066e-02
9.934842285312181498e-02
1.090390291028198594e-01
6.068363583095024577e-02
9.416828074021466044e-02
7.464631902783754047e-02
9.215585887005295351e-02
1.072125525833708820e-01
1.352987303699761390e-01
1.052349746493706495e-01
1.253998240228537397e-01
8.234767245377355716e-02
8.237944012548778505e-02
1.103765835412061636e-01
2.196594634360587162e-01
9.709158490293556820e-02
1.261409314272856075e-01
1.344178645538052497e-01
1.235957057746218668e-01
1.050388297687895045e-01
1.399746671870238934e-01
9.640105711274672695e-02
1.358026406068125191e-01
1.080115089075943113e-01
1.571108119930365310e-01
7.620527115652632466e-02
1.303792892748622534e-01
1.054837645632983323e-01
1.711177133711580811e-01
1.811436489465729216e-01
8.956733146588938266e-02
1.467701688833629170e-01
2.314414148875903743e-01
2.231284351308802094e-01
2.737371986360980225e-01
2.881933963905066176e-01
3.320744992357363978e-01
4.008966426037949837e-01
3.848505256414030962e-01
4.619145035435954227e-01
5.035173543607297519e-01
6.063616913247380502e-01
6.259941028050771683e-01
7.622378384676830043e-01
7.889087094927185184e-01
8.903632476234473181e-01
9.209581993562392377e-01
1.032054497316740926e+00
1.102906337681364368e+00
1.142827002830275607e+00
1.137962458513379849e+00
1.243160657932352642e+00
1.244484396892236111e+00
1.217765571776480593e+00
1.246574179650583147e+00
1.273941092127587771e+00
1.179162482235040832e+00
1.145714089438923056e+00
1.127145262712417662e+00
1.037953897094168410e+00
1.025028712781976381e+00
9.798537727530481911e-01
8.952761694237001411e-01
7.982795011065191293e-01
7.764353977594046219e-01
6.739633013856494159e-01
5.873207285085235707e-01
5.538796451465833881e-01
5.214310286270321670e-01
4.118309293802490667e-01
4.263622129862423282e-01
3.352943073525342377e-01
2.969374276904112042e-01
2.621695617055955219e-01
2.129606727924263643e-01
1.673120286432074055e-01
2.442820921289053926e-01
1.345689131427932062e-01
1.952403873892762931e-01
2.009916413244106359e-01
1.215823269081667962e-01
1.577426449517122797e-01
1.580091529248889570e-01
1.577763581229392476e-01
1.190553405339662973e-01
1.283754430780565947e-01
1.669472097605643746e-01
9.707510981743838752e-02
9.013498991471199928e-02
1.575505449305097672e-01
1.550496627422970064e-01
1.683020027654855699e-01
1.466603264124652084e-01
1.966661597715238241e-01
2.033572109171610243e-01
1.875580109390747596e-01
1.476498952149517541e-01
2.231502546170829326e-01
1.436701707074733991e-01
1.628489129743381503e-01
2.276745322350823275e-01
1.751395273642875894e-01
1.906665738080271510e-01
2.204169427765923228e-01
2.475021150415969984e-01
2.405316322301573884e-01
2.657648249826355391e-01
2.154115315859942981e-01
2.054642281643924984e-01
1.952937676680030488e-01
2.391557195173308614e-01
2.458148462747199448e-01
3.125565896328584281e-01
2.587467024308477415e-01
1.899262369822045937e-01
2.765329462484666934e-01
2.171101677929044571e-01
2.032275409379645514e-01
2.735206968938956873e-01
2.672988174261415883e-01
2.740857446178121548e-01
2.217141587169728367e-01
3.059246173171866201e-01
2.652296410374611613e-01
2.075031225561658754e-01
3.005684380014810309e-01
2.491292940064819272e-01
2.288287940974904622e-01
2.098865958474744331e-01
1.273080627383033625e-01
2.435777301379504767e-01
1.987213189286690662e-01
2.067712845940860578e-01
2.072242633807427070e-01
1.804520962837157239e-01
2.178885530470840159e-01
1.730065711510543336e-01
1.459287480560182426e-01
1.916060272141315857e-01
1.677795744986178006e-01
1.218939882684988152e-01
1.391842442060964025e-01
1.763845418990579172e-01
1.708344533751832706e-01
2.036159731338082757e-01
1.923261638622772440e-01
1.654718593370981261e-01
1.263276738511725505e-01
1.263166424033567714e-01
1.510604547428486821e-01
1.629831806096343760e-01
1.448088872808173111e-01
1.097581375784957153e-01
1.254782359093619404e-01
1.069952725332412730e-01
4.685219842521191197e-02
9.950352570220173665e-02
8.927675197903163495e-02
1.212692980703263534e-01
6.020499824791478161e-02
5.967872385037716054e-02
1.171677755092573603e-01
5.406460005126588475e-02
5.735847160872728501e-02
8.940652885506479575e-02
9.249013567706050598e-02
1.096940938038790531e-01
5.400217437099717743e-02
5.265683418061690296e-02
5.376887283136776163e-02
3.778122418379899206e-02
6.621355876053604261e-02
4.076750562962100366e-02
1.155324719366330327e-02
-7.104442347839420337e-03
3.992585889291468126e-02
6.024395846176764518e-02
1.907257831416671670e-02
-1.377119653373594377e-03
8.209245718859360663e-02
2.378533678703890000e-02
5.986592996943714690e-02
6.301246590311658513e-02
7.539747718832273682e-02
2.712363971906027460e-02
-1.521805010457887887e-02
-3.077181214976852652e-02
1.763713014987308703e-02
7.557404516113666593e-02
2.605046643326276723e-02
6.378840831829676872e-02
-6.780126921095336323e-03
6.531242502514092441e-02
4.140399396864860582e-02
2.456788444212258324e-02
4.837357287279059337e-02
2.750235507006981717e-03
3.336191621366216276e-02
-6.169161325348324065e-03
6.368693923784196631e-04
-8.757616808659203153e-03
-8.179677327005778140e-03
-3.356952260258792842e-02
8.674699139740953135e-02
-1.757012732869144001e-02
4.954385427484733762e-02
-3.200819347869454656e-02
1.446909358789258415e-03
8.222117343032568637e-03
6.186241881364010903e-02
2.941992484887452630e-02
-1.233478528419053311e-02
1.289816707641393799e-02
5.628417118859074808e-02
5.272225037030961459e-02
1.749840400817732206e-03
-2.164176780714850701e-02
3.932503722466101220e-03
4.438764057488873982e-02
-2.773423654288016335e-02
2.071797181072335126e-02
-9.563059789968731544e-03
1.362632926022998986e-02
4.485760041426712502e-02
2.900438824186573131e-02
5.335319223347349815e-02
7.091617287189545815e-02
1.479041679935936826e-01
6.517474051116572964e-02
5.811085336532409440e-02
2.265301738631208053e-02
7.156009744572736087e-02
9.423434478577863427e-02
2.978981492801811501e-02
3.615231582705030061e-02
3.659487365465702302e-02
1.959801189986383127e-02
6.222430212313163900e-02
2.584113458042110179e-02
6.703992430270720726e-02
8.351113933624361441e-02
8.644026297357323974e-02
6.726792092999354933e-02
3.998002052569249454e-02
1.274407479819877342e-01
4.237705110368249900e-02
1.035496733684818232e-01
1.492805464160040785e-01
1.121998335617492570e-01
1.525722475037968873e-01
1.342836091988767189e-01
8.194880731723910849e-02
1.678199321585184811e-01
1.154559576898403078e-01
1.248502569957281733e-01
1.626866340532389654e-01
1.180586861386198894e-01
1.788518456122064337e-01
1.672749148231032768e-01
2.080216889592020058e-01
1.963338227971977712e-01
1.590371364834225199e-01
1.556940086586186822e-01
1.489441389084784351e-01
1.658047839399988399e-01
1.483553511415906800e-01
1.679293043569047295e-01
1.407323954511513764e-01
1.506552208511502400e-01
2.218293855885129784e-01
1.412732033235394036e-01
1.391133395839735665e-01
1.605628903244695760e-01
2.236202046514444708e-01
1.548186583209272271e-01
1.744053979588637282e-01
1.930581523736034644e-01
2.019731878686682192e-01
1.853084119088320991e-01
2.037735680192170884e-01
2.260101925930846911e-01
1.652826510215114897e-01
1.925583668812658744e-01
1.995743138244520376e-01
2.286379824933814087e-01
2.955504447998865136e-01
3.102241088534276603e-01
3.057170079938109630e-01
3.646005686353018249e-01
4.413662472740367826e-01
3.832632243753746337e-01
4.489254503482927872e-01
5.142092690033285285e-01
5.920296229626165196e-01
6.589720121459818891e-01
6.779778394208256787e-01
7.841052901650689133e-01
8.743744507611466155e-01
8.826163791205955400e-01
9.923930368304855199e-01
1.034956389232751572e+00
1.070722157494266691e+00
1.197683856128562097e+00
1.228487751862886501e+00
1.224567088516611779e+00
1.305643034570741712e+00
1.357220084097902735e+00
1.300625409606285698e+00
1.248035887410976041e+00
1.260992765165841245e+00
1.181390322720769603e+00
1.195496420443013852e+00
1.138190978914626506e+00
1.116294168421110289e+00
1.012073575396286840e+00
9.897220643156027231e-01
8.690306221703557599e-01
8.185870125947836140e-01
7.095204034536373161e-01
6.509974109657228336e-01
6.408317412150168479e-01
5.876040619886656602e-01
4.786691973925075727e-01
4.617958640100581214e-01
4.229761395968315574e-01
3.264538590227653025e-01
3.364182179252226956e-01
2.929217446763839883e-01
2.777426815569938867e-01
2.428567051721625680e-01
1.660208858320484648e-01
2.221340821011146549e-01
2.025761364089134764e-01
1.908218119710771710e-01
1.471864371693143159e-01
2.241256610762081825e-01
1.946138518014479957e-01
1.333554142934133824e-01
2.365754177625668808e-01
2.111181795483753898e-01
2.291971694049001473e-01
1.963732885880112022e-01
2.089695837121177402e-01
2.456526320222285065e-01
2.312935745995413905e-01
2.187212365371809242e-01
2.084042212047407805e-01
1.553856562049711065e-01
2.642911726549306284e-01
2.697795311088498904e-01
2.683393569921529442e-01
2.845793829159244392e-01
2.267822825760519578e-01
2.483087920738245857e-01
2.483508216495355914e-01
2.076699281742439007e-01
2.520384544814721073e-01
2.784355711384011167e-01
3.079281584253226178e-01
2.950092450112437592e-01
2.632754362170954820e-01
3.133229667484906944e-01
2.960459484488339732e-01
2.398571706337380982e-01
2.968085779794429335e-01
3.164221903031405603e-01
3.100610790116006266e-01
2.597194497676799663e-01
2.673414636987445636e-01
3.581061466012005479e-01
2.689453389150064933e-01
2.976374548820154842e-01
2.197488178992461350e-01
3.340455204911113585e-01
3.173966152583965750e-01
3.442088371793738388e-01
2.592124849222009475e-01
3.255703991494075522e-01
2.556760288990475027e-01
3.310678737748824485e-01
2.096923420640025570e-01
3.105084219278507751e-01
2.773247909826012103e-01
2.934295919350478066e-01
2.864708154774839866e-01
2.796755009686192062e-01
3.351287508957640493e-01
3.134265749915757238e-01
2.716351564820598807e-01
2.563883061315279654e-01
2.903223257757729381e-01
2.879986824434576653e-01
2.402233323262388531e-01
2.340646543707416427e-01
1.987040780736432921e-01
2.320714557646851028e-01
2.244103832865922410e-01
2.423674899695087426e-01
2.622340334901218650e-01
2.399941041551691412e-01
2.296013219908578928e-01
1.861828818756728343e-01
1.758370168373820652e-01
2.055432787562742891e-01
1.956487307251994490e-01
1.943714233424637394e-01
1.390628658696531073e-01
1.341601715890770596e-01
1.435789692399008777e-01
1.758336219906077302e-01
1.497955980231709949e-01
1.913359688852243057e-01
1.104690828552325338e-01
1.066675000013755092e-01
1.258465033185561244e-01
1.117818623346518714e-01
9.984983737148009353e-02
1.227525768647066418e-01
1.201475970089027345e-01
7.520792384081552429e-02
9.177838856739534146e-02
1.278037324366833871e-01
9.494838747237463461e-02
7.535900824717749191e-02
8.626455084295595044e-02
5.750455676649152137e-02
1.449669919499201320e-01
1.155389801847919035e-01
1.601765582241626296e-01
8.712759344223169888e-02
7.143054542065375989e-02
5.397599242065044545e-02
9.155211890042355694e-02
6.248857529858602849e-02
4.534599344483412203e-02
1.121845738829706368e-01
7.204763604765400398e-02
7.724373252310583193e-02
7.458857368269708465e-02
7.904941423125969036e-02
1.297542557244051042e-02
2.972974759176973125e-02
1.184563739508919106e-01
6.077668128175232887e-02
7.361745736967442721e-02
8.427769585333411140e-02
4.830558349252871836e-02
2.672429433983744204e-02
1.712672426660421382e-02
2.723506124479442569e-02
3.624386838848182163e-02
3.351692784328259150e-02
1.724012824375079078e-02
8.307877697050619625e-02
9.928233665799832131e-02
2.669481500682231723e-02
3.090900280792945043e-03
5.598085972780405400e-02
9.942136182205710271e-02
1.392748505772682666e-02
1.464239430594804076e-02
-1.737213532233224111e-02
6.139506529941554658e-02
2.367688594171043007e-02
8.017214231999607310e-02
7.565948655379756138e-02
9.895455219948062764e-02
8.726669379073168087e-02
7.170991566443185583e-03
4.672530266557141376e-02
8.974351015411252686e-02
1.506296282914119933e-02
4.540614180279122641e-02
5.955749956934335010e-02
5.679516478445745947e-02
6.808497965968877963e-02
3.985650444011992755e-02
3.329516776875357520e-02
7.618588919928265257e-02
5.868764465170761557e-02
1.289960755669045944e-01
3.393828641776687471e-02
6.731781207338716211e-02
3.128510261743622234e-02
8.413567506661626116e-02
6.920609424151652478e-02
9.361649474066756349e-02
5.906777325009671120e-02
2.809564647774145940e-02
1.245151724968614204e-01
1.163210080138347979e-01
1.209055455308527677e-01
1.227245308823485259e-01
1.026338092886222575e-01
1.217394636015245030e-01
8.008346393487431047e-02
9.878730302747301684e-02
1.494883368290278181e-01
1.805613494783070150e-01
1.338450775221768363e-01
2.919407585494259577e-02
1.435123506337374899e-01
1.799059318366327265e-01
1.327291999581861059e-01
1.162187429592117099e-01
1.796249299496867902e-01
1.445626988942947666e-01
1.486672793774190815e-01
1.136350072891148671e-01
1.183103040824091401e-01
1.968054270114232007e-01
1.383700957113117025e-01
2.320536237336595642e-01
2.421150812292898746e-01
1.540260136438118266e-01
1.674030722036341234e-01
2.117607297989397008e-01
2.386161674185228176e-01
1.997588837750933211e-01
1.767322104652716552e-01
1.859415398270863051e-01
2.018696857380199439e-01
1.830666094273273314e-01
2.362295364009604492e-01
1.790664376964363480e-01
2.137530903853491759e-01
2.228735487408437521e-01
2.003956990803048566e-01
1.935724556101665050e-01
2.002339259716910957e-01
1.759631094454151834e-01
2.272663692505611788e-01
2.030816227473231927e-01
2.038171385460508522e-01
1.846221119400382749e-01
2.841990047553039078e-01
2.623508383530631094e-01
2.067733581382006913e-01
2.850178952437200097e-01
2.712833279236886996e-01
2.882603342894621279e-01
3.243825838051987986e-01
3.978840072141606177e-01
4.193452300123739485e-01
4.689192507695316148e-01
5.310317791797600773e-01
6.077938936618384469e-01
7.105779448073287208e-01
6.986808670621647011e-01
7.619956987202416432e-01
8.477121162276758382e-01
9.357442758646347114e-01
1.016344518773201422e+00
1.019566168884959323e+00
1.183694938212591641e+00
1.131010885334313265e+00
1.240873282056575322e+00
1.275449437823838794e+00
1.239478611352397452e+00
1.307198499148560122e+00
1.252749545559645128e+00
1.274502484468998942e+00
1.280005504272901717e+00
1.257787343637402966e+00
1.252142587389916351e+00
1.146113431101835500e+00
1.122089100867320388e+00
1.076948681038268907e+00
9.807622341813142519e-01
9.126565046778482015e-01
7.980226959405933851e-01
7.222421570292124615e-01
6.760941547896273107e-01
6.763587468356870858e-01
6.134562427845162702e-01
5.504993535718222253e-01
4.706964873972028229e-01
4.271215369924208916e-01
3.565645547124539072e-01
3.206553656974492350e-01
2.391619469901548334e-01
2.797356660695894948e-01
2.656189553413099147e-01
2.152906136103703016e-01
2.472889832109893549e-01
2.462547068113712379e-01
1.680964101825981882e-01
2.659588771349032932e-01
2.099475116436245181e-01
2.388263870025029156e-01
1.717297834862027417e-01
2.371136980933798433e-01
2.155528433079019202e-01
1.896983602513106215e-01
1.688300466086667395e-01
2.058553229283278663e-01
2.329296073541971546e-01
2.160584999765694791e-01
2.207221339303459540e-01
2.078124999790513239e-01
1.871307142126674428e-01
2.365037292420547610e-01
2.075851201353477449e-01
2.682290041449414408e-01
2.690106133975092573e-01
2.978707405032204880e-01
2.403042876173192566e-01
2.540267009436418810e-01
2.146531944347678800e-01
2.454786608872764619e-01
2.650760399312879767e-01
2.705042714806550896e-01
2.594463869687795299e-01
2.545280996767540493e-01
2.828487195876633331e-01
2.685592185030254431e-01
3.185698755398562732e-01
2.882927685248157790e-01
2.659131374188746788e-01
3.153646872155659864e-01
2.533371513300577416e-01
2.721695587829436880e-01
2.525747751320802648e-01
2.762299808645665711e-01
3.246021081112612228e-01
2.883072627712043312e-01
2.298426888368562682e-01
2.689092092458368888e-01
2.868704535762212071e-01
2.857787902287518000e-01
2.697616125605361570e-01
2.957480970617971661e-01
2.876791277913787193e-01
2.627479247089997694e-01
2.713832002498889340e-01
2.567870573973229931e-01
2.592196194139668730e-01
2.595845489243349125e-01
2.804830315634916360e-01
2.601314894200470462e-01
2.418458782449238731e-01
2.252445996514053084e-01
2.527667072388094516e-01
2.377550338372219629e-01
2.205908097871921991e-01
2.094696874084490679e-01
2.156151969500443022e-01
1.885864195599921134e-01
1.602329684076770067e-01
2.455455458513607081e-01
2.411880462433075301e-01
1.924176920016563430e-01
1.988271757452257926e-01
1.709669390063999483e-01
1.878205343347219280e-01
1.706229032910311638e-01
1.679952610722438289e-01
1.275599440288043285e-01
2.054473779188978055e-01
1.136225869673760519e-01
1.671136409415587276e-01
1.129657385080957144e-01
7.304045257755176213e-02
1.556884345303720107e-01
1.277120789050233129e-01
7.726257920766801957e-02
1.336263771981553161e-01
9.856667267547306044e-02
1.597565685357348053e-01
5.872934564894611437e-02
7.797674598495392406e-02
1.176463408297873381e-01
7.640518189390757553e-02
6.101614815573407069e-02
8.877327304660495577e-02
1.114833197890325589e-01
7.362853204670048723e-02
6.556890632951778430e-02
4.614259161610820281e-02
5.240113021932357729e-02
2.964061829928914260e-02
9.704367477317676904e-02
7.900565203526052627e-02
1.661777226021670870e-02
3.574144044872820669e-02
7.303223145120582571e-02
6.799007158637403181e-02
4.337645059917245860e-02
3.685220716149068682e-02
4.236077811439474539e-02
2.730275466575933507e-02
7.129239114221737339e-02
5.845718080718360909e-02
4.454808819264109709e-02
1.746276404650932285e-03
1.471767009614335237e-02
1.304676209644138954e-02
1.967955864649129083e-02
3.480902776078122207e-02
7.572428322763026520e-02
3.262205324342236368e-02
-1.492941661019822619e-02
4.590584638107085558e-02
-1.580364649884696132e-02
3.747424881180731748e-02
9.991920818586578351e-03
3.960250850665037597e-02
3.755399462777318786e-02
2.626078411873892030e-02
-1.070665405854391745e-02
1.395622052045917064e-03
3.493658435716773258e-02
2.457519213869483604e-02
7.344535327344656195e-02
2.265459531103118651e-02
4.152987745780090112e-02
5.954348140490707542e-03
-7.891622464690908195e-03
5.203092031144022911e-02
-4.021275481345010228e-03
-2.535446126147489557e-02
-2.264951435050661585e-02
2.838238631900517200e-02
-2.508895530393372153e-03
-2.748915599630586196e-02
7.592482856770081667e-02
-4.683212993939483981e-02
6.945951129868316309e-03
6.858969768435851933e-02
2.248952425468100577e-02
9.547626274232341725e-02
4.611117004069263670e-02
-1.159748263065172626e-02
4.755026024915679633e-02
9.481001765541050008e-03
2.041496543041854822e-02
-3.847453394560766682e-04
1.201373896935793717e-02
5.540321815711637954e-02
8.643014767108329194e-03
-1.983733334139448426e-02
5.304878979945199663e-02
3.609624086154452488e-02
7.390551843785714281e-02
2.634211201651451978e-02
8.320985666067670650e-02
7.734607352856338880e-02
7.489590840562983243e-02
2.256893588583587518e-02
6.506240627641009244e-02
9.784216180907359672e-02
5.817035907425432972e-02
1.594443189335641164e-02
6.276251389413867177e-02
5.887447236039704962e-02
7.339657780751512872e-02
5.256625205050674543e-02
1.234442788241139760e-01
1.227369108929131508e-01
8.146922525921442004e-02
9.986703815619102365e-02
9.071225985591566121e-02
1.354151363100317140e-01
9.452919606198893765e-02
1.025071706572322772e-01
1.345713490115704458e-01
1.093092909591823342e-01
1.879577413732798075e-01
1.187169675291922522e-01
1.646651281071239425e-01
1.712422809068387675e-01
1.044328176977863121e-01
1.401187707091507972e-01
1.230387977160436186e-01
1.771741086782981367e-01
1.482812084002298747e-01
1.776269474738328136e-01
1.999773845821726237e-01
2.027625761474264043e-01
1.186604669107082927e-01
1.153635596799032909e-01
1.153590785455464590e-01
1.851849858012324934e-01
1.745400647766066349e-01
1.739373202791837936e-01
1.725904485437556035e-01
1.477203857551730448e-01
1.682486401117334884e-01
1.832612229092420164e-01
1.866991521972613810e-01
1.769944785167043566e-01
2.612446994245992138e-01
1.974055872295162328e-01
2.456893952015714588e-01
3.317009336479821435e-01
3.504534309087085076e-01
3.245348330662292669e-01
3.423516676083201427e-01
4.280358154754373978e-01
5.184453214849071845e-01
5.772558576895657767e-01
6.389201917166007494e-01
7.247031641221406417e-01
7.776588308262888383e-01
8.754522438219313196e-01
9.386585654700718706e-01
9.177896468195503310e-01
1.047654046079705914e+00
1.095279662583685143e+00
1.159326791090683040e+00
1.184524333822220665e+00
1.174135935325478997e+00
1.256085860876422267e+00
1.271569349387997816e+00
1.191971844790942203e+00
1.284108810543930002e+00
1.234162289916051813e+00
1.142240096508973846e+00
1.090054613352790636e+00
1.074784662809608049e+00
1.011683205589356760e+00
9.604695332853355749e-01
8.873254174570800457e-01
8.191435616540660991e-01
6.970086706297813350e-01
6.561482372982049283e-01
6.031515637428677135e-01
5.217640671130010510e-01
4.886359338628967763e-01
4.468466496821120737e-01
3.403060155040592005e-01
3.202737761147075313e-01
2.671493962651306786e-01
2.373528716481571044e-01
1.729976861083422079e-01
2.116611464280543919e-01
2.665986309548703526e-01
1.784120391964519325e-01
2.232653248524719691e-01
1.850536204352878633e-01
1.180407335796475887e-01
1.497989434798524810e-01
1.588895255383338811e-01
1.570500121561880513e-01
1.143385704287602223e-01
1.441511934072583490e-01
1.905879400903897902e-01
9.694482059160967891e-02
1.781746971519050926e-01
1.864701691387778970e-01
1.037114877849582423e-01
1.405033955462089423e-01
1.553440517766069284e-01
1.942391286885459256e-01
1.724824941012416679e-01
1.599838186478128310e-01
1.830620646402376095e-01
1.977713911998670304e-01
1.838708657094094701e-01
2.412848754006470253e-01
1.971910711181641407e-01
2.218885358779477679e-01
1.712380752105871484e-01
2.169721834089753665e-01
1.937747424703938348e-01
1.965131575110065920e-01
2.603813014325167541e-01
1.966136720250109549e-01
2.029535327200051864e-01
1.682242058095626824e-01
1.950255690418242482e-01
1.718855945761194048e-01
2.591051481089785558e-01
2.354741919081299872e-01
2.490240513515139253e-01
2.389233466900072822e-01
1.960568869232718336e-01
2.489249835321628856e-01
2.179389354350919628e-01
2.401589615422641821e-01
1.395725360171151674e-01
1.841830530971893531e-01
1.970723590736881414e-01
2.253669585915060725e-01
1.666463821519855171e-01
2.795764110350129616e-01
2.464687478051883207e-01
2.446294951808409834e-01
2.454724025803730059e-01
2.152616666623981823e-01
1.614256382275185975e-01
2.051951206272218664e-01
1.726549844977713910e-01
1.762843782969794604e-01
2.045631390055309140e-01
1.575186687370980776e-01
1.513284752652870602e-01
1.938903306283741579e-01
1.356496468255962984e-01
1.459949352033730607e-01
1.477311610312030121e-01
1.625897215341606250e-01
1.619599144084168385e-01
1.148954887768690036e-01
7.941218891452919704e-02
1.627505759323699397e-01
5.159992241384089157e-02
1.260570149812884067e-01
1.072205155646467206e-01
1.112779961953293817e-01
1.075143920626814992e-01
8.599515795910017690e-02
8.554823155409019275e-02
9.304315688605377388e-02
8.610783543894792724e-02
-1.016780773963787271e-02
6.638842595303437455e-02
8.776477418783276696e-02
3.751436843230654405e-02
6.856579825795233729e-02
8.093319942315987947e-02
4.883410446531486621e-02
4.559236252503909986e-02
-2.866450735972081443e-03
3.111878665821781603e-02
4.504473386234400523e-02
1.332886427922659600e-02
1.130479870147875487e-02
3.503132397887634419e-02
2.683009884503954195e-02
2.696324184158897103e-02
-3.716639909694666871e-02
1.967876866533857516e-02
-4.386975965077789114e-02
-6.574273824284021517e-03
5.709543600460326856e-02
1.347394725196867510e-02
3.923607525505440341e-03
-3.321097632614725126e-02
3.604142492903201350e-02
-2.930790215812453803e-03
-8.376193368059453581e-02
-3.637799398201903289e-02
-9.498531724748425498e-03
-2.610506696095957896e-02
1.160184716168275593e-02
-5.620226279714991835e-02
-1.849118310763190470e-02
-4.384756481341399448e-02
-2.149653766975380756e-02
-4.386715469895070829e-02
-2.666765651526749326e-02
1.583771517901827464e-02
-7.779406587171121268e-02
3.048256707704914692e-02
7.224720922223867858e-02
-4.794588342848358359e-02
8.368874066040622728e-03
-7.338508782781395789e-03
-1.176533025131638877e-02
-5.825009635679634368e-02
-6.428204219583834311e-02
-5.071219480261269369e-02
-4.956137555223577573e-02
-7.404828145553185581e-02
-6.110195162911681577e-02
-7.546348015464665604e-03
8.369374764556215818e-03
-6.537095532784517604e-02
3.496360845353189278e-02
-8.138845820480936077e-02
-7.389071813690389900e-02
-9.490873852175575609e-02
-9.237772521138779003e-02
-3.763160043709190550e-03
-5.218406609799513401e-02
-3.884401934065231932e-02
-4.795554583488331746e-02
-7.685732273057185870e-02
-8.950750973347088024e-02
-1.038425909750338993e-01
-4.575998131966954596e-02
-2.415406476031960181e-02
-6.474384124090461212e-02
-1.035828835120639890e-01
-6.761255573314479961e-03
-1.355236805459639204e-03
-7.423395693491244285e-02
-6.648840072969065818e-02
-5.356371885975180769e-03
-8.493779116531591233e-02
-6.593123575043667584e-02
2.149624530443890180e-02
-3.574185904184547236e-02
-1.596338403434616540e-02
-4.982719703678626516e-02
2.305561597564600995e-02
-1.076589529580492671e-02
2.548068292959892317e-02
-1.748766786162761835e-02
-3.248161257561628379e-02
2.011649082064338734e-03
-1.595438069479338319e-02
-2.165172222691406911e-03
-7.989843763709134072e-03
-1.635896935199637747e-02
4.937588405882787496e-02
4.469956805923216980e-02
4.716424293669183032e-03
9.284486156132976120e-02
2.155384582003940647e-02
7.349330301385928466e-02
-2.603954444940299873e-02
4.815632487300255948e-02
5.422865020398973113e-03
3.924795337408723550e-02
8.160058797370675632e-02
8.192525233887579250e-02
5.368202401472932372e-02
8.139556976643796959e-02
9.235459218179115082e-02
6.695352762726906881e-02
1.090129688639631944e-01
9.518643357906542146e-02
7.681666472622783459e-02
1.496186061759747776e-01
8.420414613960731931e-02
6.509857399562082869e-02
1.276953391283345840e-01
1.174135140663357391e-01
3.806041231821065407e-02
3.980300794324768965e-02
1.135231682349303467e-01
7.811139096643462953e-02
1.085785376710475675e-01
8.799430251961085081e-02
1.167142868141641254e-01
1.251112092533106790e-01
4.859511044746562397e-02
7.852172827322287385e-02
1.619745647113550735e-01
1.346620816152385713e-01
1.520848815528206832e-01
2.135312935905856468e-01
1.954778420367426495e-01
1.831866599877782775e-01
1.699652107581098581e-01
2.736574271082926058e-01
3.082830248248583094e-01
3.145998608946949382e-01
4.108496476840900469e-01
4.135709169834320686e-01
4.621428160817817044e-01
5.560299658954572788e-01
5.987871325067137818e-01
6.740132803873317702e-01
6.559395810562762552e-01
8.014293790223805392e-01
8.452755198001893344e-01
9.107918355477825356e-01
9.843356572733367171e-01
1.028844900529882089e+00
1.122534863132419680e+00
1.107522276820460005e+00
1.122570238172571289e+00
1.194846979635279194e+00
1.250390370260241912e+00
1.193895692087922011e+00
1.189313658167306498e+00
1.164867790208779175e+00
1.214670299461468650e+00
1.123385303708249516e+00
1.024678099475121007e+00
9.770431288622133392e-01
8.948721225577076499e-01
9.058858112464087675e-01
7.332990057532763339e-01
6.790114602315576731e-01
6.648896059313924578e-01
6.214354186586581452e-01
5.053026688303298153e-01
4.371670099079379423e-01
3.910134998825934294e-01
3.419133049920343170e-01
3.578897893876487046e-01
2.687752368942437076e-01
2.107628594867236027e-01
2.051893472791861683e-01
1.975906090210256538e-01
1.217921924741563189e-01
1.425731032207323279e-01
1.238983213020169449e-01
8.004212080204284319e-02
9.586984866522639537e-02
9.039806058818852796e-02
8.809966927604664932e-02
1.588645090755907707e-01
1.042463135102373872e-01
1.160087841474713027e-01
1.279949166086305490e-01
1.096246534770905223e-01
1.020140532051666549e-01
1.641395756384077254e-01
1.686741212220208286e-01
1.554059582628690150e-01
1.294133288914344204e-01
1.478416608706166480e-01
1.174774622874006080e-01
1.493790617093464224e-01
1.155465524494023177e-01
1.791300562214673819e-01
2.088244319354033152e-01
1.297139302978635722e-01
2.201453566173989518e-01
1.900933770958054825e-01
1.515737556298448196e-01
1.859991185280570614e-01
2.277025031687166801e-01
2.217200376820116781e-01
2.235769157586467992e-01
1.787120937050985514e-01
1.640531675635730213e-01
1.941890855135371963e-01
1.996680118707714335e-01
1.911555839319311612e-01
1.805694086996592340e-01
1.696164936889542896e-01
2.219934820326154856e-01
1.799007621485056441e-01
2.254548451351619798e-01
1.922253767902927235e-01
1.979544211433707790e-01
1.648513473125683415e-01
2.113301465692018488e-01
1.898280833098664744e-01
1.643750655898460478e-01
1.881062371299033475e-01
1.671403476079555972e-01
1.435384864671064020e-01
2.110018209677390344e-01
1.512498873635173546e-01
1.964118923722966981e-01
2.482528653111555350e-01
1.481719127002310010e-01
1.868343577961605328e-01
1.569649110578227313e-01
1.727631354802183217e-01
1.081197444955543513e-01
1.693578528281400875e-01
1.559259488430365381e-01
2.206803251268752430e-01
8.251699971828234392e-02
1.246832449750197164e-01
1.481703932221642983e-01
1.560906811219494039e-01
1.211165232024232763e-01
1.578663724867005735e-01
1.169362017707319262e-01
1.141284858720765238e-01
5.313361674872935092e-02
1.176812101830683605e-01
1.406926076319839625e-01
6.054783194647658101e-02
7.212947582465359386e-02
3.802801279655911026e-02
8.966770826406818273e-02
6.611675563495106323e-02
9.066116215007224977e-02
5.942850743214336817e-02
5.433419158343672645e-02
5.096859071820765419e-02
5.358069723744317281e-02
4.496500865802793845e-02
5.292162245938165921e-02
7.900231566106186154e-02
6.152641219414344692e-02
8.118665063262336945e-02
-1.022198328548883789e-02
-1.363958551599576963e-03
5.119054220109112846e-02
-1.570804319162573751e-02
6.007466778257337242e-02
-6.859989845657436802e-03
1.198069120321477998e-03
-8.402975913778192030e-03
4.586461088166293720e-04
4.729209303721317037e-02
3.468112345361188537e-02
5.155872318436044432e-02
5.910579513565259596e-02
-2.516612962127580400e-02
-4.372782076452122468e-02
-1.030632039818418777e-02
-7.192790509303208235e-03
-6.279693306777454909e-02
3.669555581642371112e-03
-5.282058926280219779e-02
-3.521420380077191353e-02
-1.906360394503134326e-03
-1.114527836372809777e-02
-2.422775438891708322e-02
-2.021753569572081258e-02
-8.734078333906263036e-03
-4.736843004366737137e-02
-2.023714265525419082e-02
-3.093075651124065073e-02
-2.730833302939886936e-02
2.676143101703651328e-03
-2.397429715675169354e-02
9.644935512265251365e-03
-4.834751870111818339e-02
-3.665049166896987981e-02
-7.983796347436489249e-02
-6.333672144525344383e-02
-4.590164193146299698e-02
-2.063411326812173222e-02
-4.997958179325119599e-02
-6.775222825358635792e-02
-2.475180660174502653e-02
-8.505311816762627097e-02
-8.388779428785045345e-02
-5.946937226789424102e-02
-2.286560703034732842e-02
-6.064196983728324664e-02
-3.131339208525835138e-02
-1.139390068551207266e-02
-1.935635030777385635e-02
1.882085723325109539e-02
-2.759346124700181452e-02
1.083537498159129614e-02
-1.248787509515449784e-02
-4.222203951678480532e-02
-5.841626493776009427e-02
-2.379486666398581210e-02
-6.656499908887858474e-02
-3.294790584213254381e-02
-2.957029658952192719e-02
1.160193511948269529e-02
-4.358584053208343356e-02
-7.386061056518955503e-03
-4.801335810905270340e-02
9.078853457100556634e-03
3.057619978685810480e-02
-3.751592626456426438e-02
-5.910859702010620720e-03
7.003318012966139317e-02
-2.711091451958395210e-02
-4.567586771692044162e-02
7.791628095518796093e-03
-2.773356036505062600e-02
1.883349885355963677e-02
3.732885950317153118e-02
-1.577915469368956422e-02
-2.532375156058008780e-02
5.360471771184779216e-02
7.902864913367835253e-02
2.217130491872960213e-02
7.725009515247993619e-02
9.322352312443829558e-02
6.623168365374038080e-02
5.370957737326639142e-02
7.460101332002591623e-02
8.507758083837158036e-02
-3.616091246476067084e-03
6.494656756238721684e-02
3.389844878660401573e-02
5.069797752941604396e-02
9.197159381749539508e-02
8.388744945065794434e-02
9.205039547627814900e-02
9.128183465437590682e-02
9.351060842511044191e-02
1.024456919667597610e-01
1.531949496974001901e-01
1.289672305503940519e-01
8.439838352088784024e-02
1.018971622677823236e-01
1.380849059217705288e-01
1.115015629740980924e-01
1.367163797781421608e-01
1.220942698180218361e-01
1.302360260716675655e-01
1.630558514889908217e-01
1.375081555660618848e-01
1.839921654407572216e-01
1.064514878638515155e-01
9.915217363141948237e-02
1.389944102305563645e-01
1.212626859833170756e-01
1.327908330703090889e-01
1.412597009432250972e-01
9.434397930086511896e-02
7.146164014889218319e-02
1.637203597304457414e-01
1.062301696046488997e-01
1.434441104473582751e-01
1.657820738584079856e-01
1.839948079085589883e-01
2.291632800192903163e-01
2.490712845579029777e-01
2.642586319485660251e-01
3.071625643031348218e-01
2.974905462365556308e-01
3.494858056563546755e-01
5.289616492841142659e-01
4.799134989978557364e-01
5.608822050340084298e-01
5.634272264252655482e-01
6.867565637555201885e-01
7.263428339172858239e-01
7.883849918615558616e-01
9.272486461276338021e-01
9.890606052042489882e-01
1.006880898683125913e+00
1.074960102695260655e+00
1.109357186840686404e+00
1.131478876221893248e+00
1.204080709614656852e+00
1.233728692735480470e+00
1.271631301383176815e+00
1.260089386758057595e+00
1.202954796850372876e+00
1.150171549762069700e+00
1.170041889708888450e+00
1.099209553741432366e+00
1.084086602061984372e+00
1.042844262442832459e+00
9.757509350862568764e-01
8.849306844943458650e-01
8.407030717206239734e-01
7.996109745980147787e-01
6.995774342952635338e-01
6.303386538800467287e-01
5.380793334395724825e-01
4.981593747931867822e-01
4.826884262051382435e-01
3.839803179476560246e-01
3.304773056708851242e-01
3.365425611274938111e-01
2.605880674758648818e-01
2.539864548854091630e-01
2.180460950964445976e-01
2.073581817227058144e-01
2.010823735388283795e-01
2.020685775680154672e-01
1.866309862874303005e-01
1.923092643669813973e-01
1.371607303777620246e-01
1.065588543501527902e-01
1.376151862519403579e-01
2.295426352973448103e-01
1.424451729656709409e-01
9.214460584178858771e-02
2.314079903539580652e-01
1.614906676962319654e-01
1.347876340214655411e-01
1.293418143197058445e-01
1.734669809509818139e-01
1.965739029515236325e-01
1.991331148828591469e-01
2.106509498010133430e-01
1.435981834178868266e-01
1.577637413681957090e-01
1.973233224165879818e-01
2.361380282244469053e-01
1.934850923721961047e-01
1.419532063712304615e-01
2.401660027198884162e-01
1.353637558811172370e-01
2.071558031319986060e-01
2.491697732941918486e-01
2.514744237139880934e-01
1.821487774026011031e-01
2.617622903903816245e-01
2.784638744774139418e-01
2.593497440045892111e-01
2.344255279257977387e-01
2.575386665937882125e-01
2.229605897060352726e-01
2.786207887638574299e-01
2.929050687283367704e-01
2.352638503075328291e-01
2.719074157943949799e-01
2.791920527155674625e-01
2.416414144039486234e-01
1.793986301357560764e-01
2.518999408391181527e-01
1.534029913127868683e-01
2.937620881189662581e-01
2.619352350865655210e-01
2.343973788252962653e-01
2.686184893791995765e-01
2.024451519103352137e-01
2.696269232617899414e-01
2.393803601591267538e-01
2.370285824246863293e-01
2.137804683837898345e-01
2.138689187475979192e-01
2.360135001688307144e-01
1.880119710353879148e-01
1.738061211671130257e-01
2.394665495989055370e-01
2.187519383917615745e-01
1.697466355516715208e-01
1.973440973545413091e-01
1.910308956507918154e-01
1.634911913234374514e-01
1.869938002049160997e-01
1.748714754474267052e-01
1.981001657272127847e-01
1.788115471515245303e-01
1.453175055548719674e-01
1.397157297248111940e-01
1.649204428442684334e-01
9.313370809141344187e-02
1.084551020077649669e-01
1.319754534423555059e-01
1.288359075567465928e-01
1.578394647535532880e-01
8.110208047260465680e-02
1.056117342579019208e-01
1.143180762893363372e-01
1.004808876963617925e-01
8.347422362374742888e-02
8.259754883645131773e-02
1.051522962700012914e-01
8.540824209508503240e-02
7.836466506879377625e-02
5.056863628191744092e-02
1.508645354372616654e-01
8.309370917582742377e-02
1.225991139231230320e-01
6.356362050191603774e-02
7.246461148445075551e-02
8.100653296810225723e-02
5.918682599553305723e-02
6.364790128371614064e-02
6.443921281399793421e-02
4.828824438149208198e-02
4.932797452226354851e-02
8.103697097240175617e-02
1.870310839324226468e-02
9.805065579253827157e-02
6.127695406176995874e-02
3.327901798011889678e-02
6.744455882326069740e-02
6.382745505164913458e-02
4.694689459373905388e-02
3.253522520877968199e-02
-1.445083298532313237e-02
1.229421646090966304e-02
3.418645120330266601e-02
4.562254401994330494e-02
3.222303396624420085e-02
4.161243731572349808e-02
2.096126309656114184e-02
4.680583903020810871e-02
9.187445361925104803e-02
3.125252568334545289e-02
2.192999630657081409e-02
2.498608313738132081e-02
4.913690320688799545e-02
2.320710126758679381e-02
4.791281020820009617e-02
5.130156791540518846e-02
7.712911639458251700e-02
3.717566095359998990e-02
2.644604251451245641e-02
3.366686761901770131e-02
2.311023862804376106e-02
2.873502306352589825e-02
6.451092926441544251e-02
9.248680111778416826e-03
-1.579277894843397756e-02
2.768831476144449633e-02
2.960824089815016630e-02
5.387416111425660098e-02
1.987883599354106981e-02
1.129409055905873996e-02
6.868231961775819391e-03
6.930598965363948122e-03
1.135364293071355196e-03
-9.122219259226526517e-03
-3.813317963571726671e-02
5.293925896933484448e-02
3.506216749640751751e-02
9.310784500803052921e-02
-1.309018043200220124e-02
9.092773188260466766e-02
2.887095660074032177e-02
-1.281010216140578140e-02
-2.395071460310006783e-02
2.194011604472428240e-02
6.688443569788811438e-02
4.969192199713455549e-02
3.269571679003807629e-02
7.996651212487045080e-02
5.193240999447110845e-02
3.487533874339521917e-03
9.227496791939049370e-02
2.523244146645161473e-02
2.756245790669137677e-02
5.617530083222264242e-02
7.615889607048870191e-02
5.035103651534761360e-02
2.054737559652472512e-02
5.905265129666064511e-02
1.109883802883004922e-01
8.531731618495737302e-02
1.232307297614818747e-01
1.096805726524396618e-01
8.212424245664592948e-02
8.167058352229882023e-02
1.136268063253270816e-01
1.185070346680061615e-01
1.208337267168467788e-01
1.282847188147973883e-01
1.227398819063713620e-01
1.280357346405100738e-01
1.117720480923225512e-01
1.090594452149864640e-01
1.676364704498941594e-01
1.198582875935848835e-01
9.746171727203829793e-02
1.473088644740006281e-01
1.697435991164126801e-01
1.599518341324647486e-01
1.324276452026183770e-01
2.043897269293533103e-01
1.809687812879811619e-01
2.111292940100577831e-01
1.771879321636156135e-01
1.950622710850630215e-01
1.477005606389019121e-01
9.091767703372710674e-02
1.849988407240219235e-01
1.445043887399678484e-01
2.111644212401327103e-01
2.132527560812476908e-01
1.951159020666001775e-01
1.609579813923152636e-01
1.864233411294613785e-01
2.042778495627532998e-01
2.013601978911612467e-01
1.640191080663178647e-01
1.383378777476064192e-01
2.111661814549984639e-01
2.059589701677414508e-01
2.326210494443095023e-01
2.264563006146194657e-01
2.369725774688666298e-01
2.547590427090987153e-01
2.730529231629018616e-01
3.815097136550962276e-01
3.343456211237939013e-01
3.686725022309343403e-01
4.426033625943593397e-01
4.822655997482245271e-01
5.245207340246488270e-01
5.542731933560613999e-01
6.031811799123345530e-01
7.070058398334072569e-01
7.716068574286996107e-01
8.325912195764384460e-01
9.418150176130403173e-01
1.014395480532608751e+00
1.086923146580421440e+00
1.082571422745589373e+00
1.199118907968741876e+00
1.157896329493635523e+00
1.250643893595823730e+00
1.305457040756173193e+00
1.264832480320162045e+00
1.260064608848225021e+00
1.291352459308624301e+00
1.323689879252912815e+00
1.295423396748764056e+00
1.239605402840940451e+00
1.125540686512325195e+00
1.099103906787780138e+00
1.103583664778264417e+00
9.965852742632531625e-01
8.533553093821546476e-01
8.530550234232129325e-01
7.363283952158360401e-01
6.809313643314702791e-01
6.460194951766525806e-01
5.506546991245463429e-01
4.884538033313721161e-01
4.839984681093005836e-01
4.272624760443917702e-01
3.732254637527134822e-01
3.904855474312871610e-01
3.030516931458605567e-01
2.806943885724442200e-01
2.406007237536324506e-01
2.042036330351187368e-01
1.776188039825130627e-01
2.362633540424895762e-01
1.901115228447411432e-01
2.765440621762570439e-01
1.699553248596799293e-01
1.729692985768257474e-01
2.062304605740403196e-01
1.671095787195864824e-01
1.555972642587546140e-01
2.239351148421734883e-01
1.416075898014449719e-01
2.173232718752034498e-01
2.222757669457012530e-01
2.480755541043771495e-01
2.391719840298074384e-01
3.130213913200636799e-01
2.227775641856910571e-01
1.988494793036827968e-01
3.258836319764482070e-01
2.507644975293474299e-01
2.258452570984529895e-01
2.088479686000497826e-01
2.509540458800458840e-01
2.409087877917495957e-01
2.449330021410968672e-01
2.093927295293007418e-01
2.638988136264850404e-01
2.910184465406599474e-01
2.509481792605499084e-01
2.707303522181118693e-01
2.716909778737776060e-01
2.911802635331532940e-01
3.406518870855543835e-01
2.984446996406480701e-01
2.588601121169836206e-01
2.910152227655280477e-01
3.063581312434434101e-01
2.595410104621481695e-01
2.691200186704100772e-01
2.686489907111610509e-01
2.908178258611882061e-01
2.846760994259847077e-01
2.446414450179653644e-01
2.767010370898031479e-01
2.917663620651996803e-01
3.234409573159127693e-01
2.496636537460179828e-01
2.597553529242834780e-01
2.508904540227432922e-01
2.332350600120565165e-01
2.002229313478521289e-01
2.899070045192435607e-01
2.768781573231670068e-01
2.822602408392870244e-01
2.741779900386286384e-01
2.491648783538795986e-01
2.391273601262525750e-01
2.861115143203349920e-01
2.693198545668494259e-01
2.418176427052660116e-01
2.111666962727624386e-01
2.393404787385370880e-01
2.376571451987051220e-01
2.082636522978830451e-01
2.294159046399141533e-01
2.346684591531469355e-01
2.254504780045570866e-01
2.360950772184381707e-01
2.280300417665140078e-01
2.284568798216347896e-01
1.763515440748473218e-01
2.109203677974112456e-01
1.969812251590563612e-01
2.019857645584264838e-01
1.763615978485939262e-01
1.825120744784018978e-01
1.326068620064994041e-01
1.725853704146599610e-01
1.904184565041224797e-01
1.989182555059008928e-01
1.412658465585507894e-01
1.942486914600512204e-01
1.315080132421803660e-01
1.531592417184533816e-01
1.301882103627062803e-01
1.624900987150101617e-01
1.267330646340930067e-01
9.894335053115366208e-02
1.445885930573734268e-01
9.511545305834162578e-02
1.160857232441615539e-01
5.273153799331641717e-02
1.252717503819381906e-01
4.122822103807852190e-02
7.970736012018828087e-02
5.104187907699320875e-02
5.584156658548550950e-02
8.592191515776725907e-02
6.449901507280224322e-02
1.045464835512780050e-01
7.290835500955671067e-02
8.332326439467951928e-02
5.187389896058026972e-02
9.701476461538902085e-02
7.834252771161193118e-02
8.703828894402815264e-02
9.253501057621248138e-02
9.423436749501065690e-02
7.941316490512692616e-02
7.090455499286958674e-02
9.762792915481130485e-02
6.827187419581576266e-02
4.993385502367049533e-02
8.886884667366876100e-02
9.183329454824695759e-02
5.805853837400007378e-02
7.740758815735773735e-02
7.173202920506352442e-02
6.007225110165893833e-02
1.265703613981546127e-02
2.309650311424796265e-02
4.450441712897182378e-02
5.632254953592037705e-02
1.931240348785209088e-02
-8.627917305206934950e-03
5.069184540875922018e-02
5.364962923662044275e-02
7.899476003771362109e-02
1.107100214544396305e-01
1.167939920429863360e-02
6.240082494949137498e-02
1.232538843187072630e-01
1.213397782983811207e-02
2.214594644059558401e-02
8.039853182216950833e-02
5.672359586347978239e-02
5.914986745393324002e-02
6.932882586400521130e-02
7.276847051425862356e-02
6.313756273073722891e-02
6.666957471503694166e-02
1.423150153185794714e-02
7.952429428907634157e-02
9.686988860271830704e-02
8.312782210886662804e-02
6.472714015901995244e-02
1.062708687610500607e-01
5.517108926435274063e-02
7.927241677562588129e-02
1.001957593413545788e-01
3.840533994169573889e-02
8.856285766441671092e-02
1.521429849825014363e-02
2.316676990420295235e-02
1.951834246627705619e-02
-1.553264297470226263e-02
2.738191306572366687e-02
5.126340251578739154e-02
3.955590714383605544e-02
1.039657800098732487e-02
-2.537637897092873823e-02
2.601281740721145264e-02
2.298973784317743033e-02
1.052264199464521960e-01
4.774083900896495397e-02
1.008521129569027175e-01
2.666119835604201585e-02
7.965298927014488606e-02
5.535105509976707278e-02
2.364039707854547964e-02
5.558693772479467859e-02
4.161949832957519135e-02
3.857698196140902508e-02
-2.173313333374171652e-03
1.066694405628773323e-01
6.378136262505365583e-02
1.400839769124051504e-02
5.903621424509888915e-02
3.681463229167784845e-02
8.919829671714189778e-02
3.833628620080458543e-02
4.561636084056502893e-02
2.814430807299781595e-02
6.126171499308465801e-02
4.623571301817205187e-02
8.412971660446424971e-02
5.579316058481779972e-02
1.197704352540022443e-01
4.216102996664856939e-02
2.248544663227268828e-02
2.441968345111211400e-02
2.446320211815686610e-02
2.157575753488101544e-02
9.146798134050471152e-02
3.809181492900944044e-02
5.477308014233930183e-02
7.368071722029009840e-03
