1.234470749213406160e+00
1.267228981431409052e+00
1.290427607438777935e+00
1.209926278518093534e+00
1.156030171843147158e+00
1.138582515338276702e+00
1.088057945682513017e+00
1.026043819678857272e+00
9.124317020267465050e-01
9.221372319009544238e-01
7.676151961918273869e-01
7.136193865987568996e-01
7.030984849996646524e-01
6.542014571744927398e-01
5.405007075262567851e-01
4.802509316409821483e-01
4.287775322735913885e-01
3.676757331266329309e-01
3.429986010638944594e-01
2.975114241860554176e-01
2.672840581338399302e-01
2.597131652921959022e-01
2.518818218254770258e-01
2.545816747026991012e-01
2.171967578638193674e-01
2.087655875269910366e-01
1.939504829514501205e-01
1.704945121902981253e-01
1.910601706212652351e-01
2.091917596337159180e-01
2.083103966561579146e-01
1.751812858900861358e-01
1.941332365664186765e-01
2.245084201936317914e-01
2.138699237524126218e-01
1.866441397274679059e-01
1.731786224042293765e-01
1.411292131286096818e-01
2.603535723711503658e-01
2.940235475436148160e-01
2.517378095994931009e-01
2.081630392147116593e-01
2.287632038966944670e-01
2.234426928944690249e-01
2.369774617885260504e-01
2.600250356402742935e-01
2.681012147788266464e-01
2.294886321602207235e-01
2.713269501516002435e-01
1.845770654618532347e-01
3.115359450865484714e-01
2.298095907577084318e-01
2.754792672254540165e-01
2.912680119191422001e-01
2.848331098454110477e-01
2.957844064214559809e-01
3.212481711847192667e-01
2.651623262829206351e-01
2.915435474561477447e-01
2.666214683635377836e-01
3.204469736835928173e-01
2.822282052714571998e-01
2.829868545126274504e-01
2.799539161834388445e-01
2.963552824726245483e-01
2.826942397449844213e-01
2.816004092494975852e-01
2.714634527438695155e-01
2.736923043663666011e-01
2.826278392112848703e-01
3.080155792059499631e-01
2.859221374594075327e-01
2.583732200031606530e-01
2.580815456234837879e-01
3.146253424904401075e-01
2.177335486143676668e-01
2.197765450000247478e-01
2.338585154014945489e-01
2.718285395050407116e-01
2.220072139000414113e-01
2.168978808706151784e-01
2.687936261006652616e-01
1.918904067589627394e-01
2.517745151327113184e-01
2.633203933222432180e-01
2.432983720721726972e-01
2.229331089146656120e-01
2.327935742693747478e-01
2.850194108345984745e-01
2.023276848762795288e-01
1.972379419429325931e-01
2.547418605801036184e-01
1.684158428931953333e-01
1.727918935039696458e-01
2.300696450392034353e-01
1.985908751273374739e-01
1.271817278614047753e-01
1.630214935535681808e-01
1.762772222884312345e-01
1.470750939414876834e-01
1.408025139291963768e-01
1.000603187493623036e-01
1.540055369213821634e-01
1.926445638226986501e-01
1.372407106854214576e-01
1.493842714927462179e-01
8.979229222103075891e-02
7.976319161834376226e-02
8.377274781448923457e-02
1.122546350837111406e-01
1.027765278140098659e-01
4.673013852267997315e-02
8.103236191891960427e-02
8.921327668114517606e-02
9.457926510296432721e-02
8.291624998365910992e-02
1.040003336501950093e-01
3.334165077971588259e-02
1.263260995206812731e-01
7.844397076110697087e-03
9.806104108971885891e-02
1.033335370258505748e-01
3.098227319161827448e-02
1.154139807992702743e-01
5.121995102246547360e-02
4.808557512353367480e-02
7.816778957271011685e-02
5.301773710364240250e-02
3.304919505689048187e-02
3.523923530030251966e-02
4.975133098408159038e-02
2.416218931374938469e-02
5.662578689605842625e-02
2.387465632700326926e-02
2.408734662092787415e-02
2.332691271256167806e-02
-2.458118203813028022e-02
2.520332012228030522e-02
4.513075315336871618e-02
8.175659145261233995e-02
7.615302087916586693e-02
3.014090613953013253e-02
2.854800929793865905e-02
7.689606632809733305e-03
5.037345855168119668e-02
-1.081181408987666806e-02
-1.617877096380740398e-04
-1.933200411024535437e-02
2.210564776385357671e-02
3.091109091819845694e-02
-9.725306266805289201e-03
-4.161875420528773906e-03
4.143483021508619080e-02
1.691934053702844054e-02
-4.059953452890233822e-03
5.793180183293989566e-03
4.546789122955707807e-02
4.237019478425514685e-02
2.109186670664480595e-02
-6.288636422620143968e-03
-1.194777464464368347e-02
-2.674770212785479787e-02
7.999973772770362090e-04
4.740624117618699035e-02
6.300181852534149363e-03
2.231119602294044657e-04
4.284799066758460465e-03
2.028971249184565243e-02
6.664992811601558320e-02
9.519864679307869781e-03
2.104195765266734380e-02
5.623682962632770010e-03
7.128462613562211447e-02
4.462484652204103119e-02
6.414670281742416644e-03
1.964334838780204193e-02
6.636480625051391358e-02
8.976314625866374519e-02
4.192142315515507561e-02
8.415252733418385200e-02
7.905835773930253163e-02
1.280765346614979594e-01
4.574224915876666520e-02
1.332569349634160627e-01
1.068785191676075164e-01
6.046374940968442940e-02
1.118947132416163587e-01
7.317425953579830000e-02
1.074284080280792919e-01
1.225523412013211494e-01
9.041807263111914517e-02
1.680097721218218876e-01
1.171595371265519020e-01
1.231118599977951145e-01
1.499372923094204335e-01
1.516323834075261889e-01
1.598707437989044522e-01
1.578985014569762035e-01
2.044033535307581972e-01
1.501703568632379304e-01
1.514567693908742407e-01
1.881512260692796701e-01
1.504044482864245191e-01
1.171649043848894955e-01
1.387597852655174102e-01
1.401277382003509597e-01
2.066504061819073035e-01
1.332712919423376385e-01
1.210040694246622001e-01
1.829684344620796654e-01
2.184111718701914062e-01
1.139641656222849381e-01
2.196629722412376806e-01
1.279280961016026341e-01
1.018833015634614675e-01
1.125106068265542408e-01
1.602844880708224895e-01
1.477503476836015961e-01
1.610815495126567409e-01
1.520049641718253242e-01
1.354374808703644739e-01
2.041699692953237721e-01
1.793978102384986839e-01
2.442977914860674782e-01
2.493371854142608646e-01
2.407556832843503469e-01
2.628107086117516533e-01
2.465020215996255593e-01
3.726394128135134820e-01
3.953772142892431618e-01
4.516863247698693073e-01
4.624149335503550673e-01
5.474064567043755991e-01
5.709953934378079188e-01
6.416673726671187072e-01
7.788849583051421499e-01
7.962155614595105568e-01
8.695220781711691105e-01
8.946442856326282111e-01
9.714996725925498788e-01
1.023012219740716766e+00
1.098082951317348677e+00
1.130010450972040559e+00
1.171302496776798874e+00
1.219869182437470556e+00
1.258375800160398850e+00
1.229260383682935887e+00
1.172669473956146291e+00
1.142368766221465437e+00
1.118714808126909599e+00
1.111510096702658323e+00
1.086914796667264982e+00
1.028348175516748952e+00
9.993362872254206719e-01
8.676799448833625306e-01
7.864770733014138093e-01
7.319067726410732888e-01
6.109302021225346824e-01
5.991665832997031815e-01
5.258464096974219126e-01
4.416140383697585992e-01
4.621387817425838818e-01
3.521473873628012119e-01
3.157040852422110522e-01
2.453785251806622492e-01
2.633979199756635303e-01
2.890791415994953817e-01
2.132912472916735080e-01
2.208847425589354208e-01
1.530476181340993669e-01
1.809556238668366956e-01
1.297952061797789380e-01
1.146477357064379227e-01
1.554354778864364961e-01
1.827266111866304721e-01
1.140002439547391777e-01
1.502070443474673445e-01
8.332670213907479584e-02
1.123822157225088381e-01
2.260528257255107754e-01
1.372168475573867508e-01
1.365142420517989064e-01
1.782004929369878365e-01
1.314964328962753282e-01
1.863137631624841584e-01
1.909538518681756225e-01
1.662739076037488828e-01
2.242203732349339895e-01
1.372632658198510713e-01
1.778667188109839814e-01
2.326949883438986511e-01
2.249126383701122167e-01
1.866368572733617115e-01
1.838047436418130676e-01
2.143945232188376182e-01
1.512316568675502737e-01
2.140954583908000752e-01
2.246976648391360021e-01
1.958404300906443074e-01
2.208323663230961076e-01
2.232712630683200694e-01
1.802115211476308099e-01
2.244834369717522982e-01
1.853484464003003485e-01
2.089808108489953631e-01
2.140285224545897536e-01
2.755236401524606138e-01
2.560180255461610432e-01
2.761426881844902259e-01
2.116915097910306576e-01
2.205865581375099915e-01
2.362198563169228827e-01
2.300484532897091317e-01
2.591823962415604199e-01
2.442405511461777090e-01
2.495326156370028803e-01
2.112504347320520448e-01
2.401440845629645437e-01
2.000212957093071009e-01
2.834515144572601897e-01
1.991737483779093543e-01
2.093854073528851334e-01
2.245545529583092836e-01
2.697913701216568261e-01
2.259721854669758112e-01
1.640478824866700991e-01
2.173421545993065307e-01
1.330465203876833591e-01
1.605248049702465152e-01
1.483388992709653298e-01
1.539932436971777618e-01
1.849893629490296232e-01
1.896479372517531625e-01
1.891904897478159098e-01
1.312924309574913795e-01
9.785203658546151595e-02
1.506137760055978325e-01
1.374268191343241685e-01
7.126329894702454482e-02
1.093998019239845326e-01
8.407876543339250219e-02
4.555515796967815612e-02
1.092209235734033224e-01
7.995495868393504013e-02
7.551834111153767071e-02
9.142646496937026357e-02
2.578287394584067790e-02
4.573365616669916589e-02
8.162056696040490000e-02
8.614266746464738222e-02
1.056491740962411108e-01
6.681164166127555315e-02
7.346141080769287568e-02
5.457652967961496709e-02
7.383820808172192329e-02
8.995137465629639284e-03
1.830294666725991448e-02
3.245273548265655700e-02
3.155800697959570966e-02
-9.073783875300278634e-03
-2.317752638529604198e-02
-6.185651985473321346e-03
-4.004514489637431979e-03
2.502009952479067323e-02
-5.019901241954162485e-02
7.806991567372278951e-02
-2.008956884904423631e-02
-4.516657258790061913e-02
-3.946625987344138525e-02
-5.563277634418498790e-03
-3.192560699107108158e-02
-1.146911735034247815e-02
-1.990253399613261392e-02
-6.706813459092991758e-03
-1.514990760221525401e-02
-1.128550888039592248e-03
3.455427710170034389e-02
-2.862211695915003670e-02
-4.955182259364983299e-02
8.107693822147703233e-03
-9.158012904354306816e-03
-2.545381771056655362e-02
-1.769462979157471888e-02
-4.084850026501075926e-02
1.501850078508452230e-02
2.000159053697790623e-03
-1.929965790934514216e-02
-3.762485289393940197e-02
-8.138870705852044307e-02
-5.779860883415623152e-03
-2.703306219006922431e-02
-9.353231299008488153e-04
-7.344478521357507284e-02
-3.588106095043167021e-02
-3.856524823968665583e-02
-8.786779901008331950e-02
-7.705634747585299316e-02
-2.398845046579601084e-02
4.581940997299047136e-02
6.636931439567089752e-03
-8.655530474032507859e-02
-2.594181962596507976e-02
-5.275487261400121919e-02
-1.144511001307708248e-02
-2.703635334176015398e-02
-4.890506930376978950e-02
-4.278998808543404975e-03
-2.652405042762354115e-02
-1.989969992838163185e-02
-2.643980314975622262e-02
-2.487120204102300294e-02
-2.094265487977001877e-02
1.734831341489401907e-02
6.115761936871182136e-03
1.650478779540406199e-02
-7.790819677912186325e-02
-1.791256214697133087e-03
-4.393748085298730677e-02
-4.415484592054645663e-03
2.813023288077409756e-02
-3.685670229847516632e-02
5.509983103791152304e-03
-1.492692711313485174e-02
3.503669665644261466e-02
1.491430683441781480e-02
2.608556269520070914e-03
8.436573799525878825e-03
2.833715612568851738e-02
7.566373034297001199e-02
3.584517916942157878e-02
4.720565185342884273e-02
6.548013137890762447e-02
3.567098872072486937e-02
1.566415127378668198e-02
5.299231917777622036e-02
8.148525541642973047e-02
5.627139000044455164e-02
3.158438560187454280e-02
8.738717775630164275e-02
1.245117114982782769e-01
7.705386756694473926e-02
5.501725696721329606e-02
1.144959853062847144e-01
1.141589108593225182e-01
1.072612445491801791e-01
9.992628697254729575e-02
1.009128163635708286e-01
1.445036698506221851e-01
1.220037149390146292e-01
1.002321754470154314e-01
1.159062721493658854e-01
9.989257847363763876e-02
9.966684227943578556e-02
9.956712746794636748e-02
1.281296531775966141e-01
1.010516985163379122e-01
1.059123198576531755e-01
1.137512523896206384e-01
1.306382642949062145e-01
1.451403176535746575e-01
8.912331059108746789e-02
1.250807718390601619e-01
1.282399521224759920e-01
1.184882653716547440e-01
6.565686863760120118e-02
1.220271776434320721e-01
1.365165091311430490e-01
1.797136644724729171e-01
1.905442421227407368e-01
1.898780469303073537e-01
2.629849941336919739e-01
2.321535485185594605e-01
2.306222405062353653e-01
3.077775488911058677e-01
3.147556376625741392e-01
3.763006138619833241e-01
3.858114148039747393e-01
4.521737557362167093e-01
4.830803105769643779e-01
5.907323324360556072e-01
6.362575064607790543e-01
7.917276833453869012e-01
8.280728005964780314e-01
8.440926794504967079e-01
8.990415967597960023e-01
9.606967203456061588e-01
1.011354415676768204e+00
1.054067801402624127e+00
1.118195622168764558e+00
1.129053461820318294e+00
1.135218422088607015e+00
1.210884450794062372e+00
1.151882539737956179e+00
1.135346274167615910e+00
1.174989367349101199e+00
1.144805710586005665e+00
1.070453983574356727e+00
9.968859045280119568e-01
9.093407471294773226e-01
8.980966558623767471e-01
7.837144076264289660e-01
6.877745658396732242e-01
6.496089735025972756e-01
5.619066576439006866e-01
5.063658530813749392e-01
5.115470331002702764e-01
4.566700542321304734e-01
3.399826467188379331e-01
2.942970637060133288e-01
2.470368452553169947e-01
2.896351104743564719e-01
2.527570034591655190e-01
1.607501284492819094e-01
1.919660790736477940e-01
1.496483129937341561e-01
1.411345731603949327e-01
1.371931126695951908e-01
1.046792652111481342e-01
9.720837648146166132e-02
1.530766534339710327e-01
1.027167057217293622e-01
1.147362218107864373e-01
1.605191491483628774e-01
1.223736101003543991e-01
1.123012194055499902e-01
1.012823364295628720e-01
9.554891622505132243e-02
1.295030140547414055e-01
1.068868125336316643e-01
1.212786266353102493e-01
8.057148053330216719e-02
1.524045048558372306e-01
1.196699560533047851e-01
2.070838268077831723e-01
1.288765368843217407e-01
1.464732114274899244e-01
1.594262799552208787e-01
1.535748094342945236e-01
1.154495591502383289e-01
1.748135088060219500e-01
1.909888443546936820e-01
1.704035527197442224e-01
1.755911206316098927e-01
1.757965286224086043e-01
1.638014469531013928e-01
1.722231240912851236e-01
2.385955653414436328e-01
2.088752393804045593e-01
2.216915243644737299e-01
1.824112167316913613e-01
2.277813290563135418e-01
2.350302067163086150e-01
1.895486113902277447e-01
2.782519399867454668e-01
1.732754216727490637e-01
1.660022759952393678e-01
1.761052807488139027e-01
1.856955666237842528e-01
2.207935034508988759e-01
1.766166511782443493e-01
1.365688543789907172e-01
1.768895082465247737e-01
1.818938507366250068e-01
2.008540875635247969e-01
1.113377736047429512e-01
1.737760375726791762e-01
1.789030204778470079e-01
1.787412964732404685e-01
1.953827203326723438e-01
1.420057972525300416e-01
1.621267711915511944e-01
1.647774185127819924e-01
1.496369913822405973e-01
1.661545761032744428e-01
1.213546853389450009e-01
1.592847584026433616e-01
1.329148848002852379e-01
1.587221440172709719e-01
1.653989418766850794e-01
1.520288473654206052e-01
8.182366097371973623e-02
9.664332980188714006e-02
1.180614162032890269e-01
9.579164531658526660e-02
8.232074614076394237e-02
1.217912888139885685e-01
5.884637545637453476e-02
3.726618733750586276e-02
5.221495051210672811e-02
8.680882328929699632e-02
1.151174575476595907e-01
1.222064648075145143e-01
5.440424847431178657e-02
2.862908192676573427e-02
5.372847975116458452e-02
5.322355192338603519e-02
-6.950887415624933119e-03
-1.521168225067262569e-02
-2.862521990885234791e-03
6.856639837777489532e-02
2.032911593316460291e-02
7.899912638903223983e-03
3.564853516930112376e-02
4.935601210454653581e-02
-8.828274175394598688e-03
1.436006788948841761e-02
1.386358745558913252e-02
3.025521389631798813e-02
1.016692904762729610e-03
-4.523646159451743393e-02
-4.901642600223680979e-03
3.776751511687180540e-03
-1.300467422097351111e-02
-3.150997560646900258e-02
-5.307634136946406261e-02
1.797342237718786706e-02
4.077223995120310418e-03
-1.836404696842158096e-02
-5.200025293661698911e-02
-2.113604447770173200e-03
-4.118631754339009687e-02
-7.840867624102268452e-02
4.583722842396026342e-05
-8.972372163725847449e-02
-3.677554609001928987e-02
-7.459399428838935087e-03
-2.703595352449131989e-02
-1.152264824662773551e-02
-1.133824945684334951e-03
-6.281202108385931793e-02
-3.482274263288405447e-02
-3.721514085185111120e-02
-3.903961252622457218e-02
-1.644855022240953105e-02
-1.775568131136624067e-02
-7.216569153504034939e-03
-6.742162707947027545e-02
-2.851124340828450898e-02
-7.034055708724659683e-02
-2.547584567175397580e-02
1.073742418127014708e-02
7.211254534114232284e-03
-7.687382765699959930e-02
-7.115384157820062172e-02
-2.455436671536060170e-02
-5.412236142459392330e-02
1.030268134910014566e-03
-1.338974964991996447e-02
-2.031052788083179128e-02
-6.631942179624374101e-02
-1.015914260195684843e-02
-1.550803548455784511e-02
-3.370231945773236731e-02
-7.465505981448172790e-02
1.522974039855885114e-02
-6.231656667419331608e-02
-7.125900892102987605e-02
-1.027649460747038362e-02
7.865589538072502440e-03
-4.309317452103632318e-02
-4.719662138422538872e-02
-6.642608030524875529e-03
4.283457877619395449e-02
4.039610824195084132e-02
1.928856245823938609e-02
3.688740612528211560e-03
-8.759522844489983640e-03
-6.538724572743015440e-03
-4.635935651620570752e-03
1.362898024968468152e-02
-1.749843467547036735e-03
7.854696884466924600e-03
1.596410729706405907e-03
1.926423511274994588e-02
2.602420353792084251e-02
4.063558321742483104e-02
5.427835907552321093e-02
1.306283628373595684e-01
8.441367266069563224e-02
8.615791753326587643e-02
9.622559155974763634e-02
7.642206809587319405e-02
1.822761886630828304e-02
8.649392209324983927e-02
6.562118073617961844e-02
6.324191699997143423e-02
3.879175329341860712e-02
4.600503415422602799e-02
8.593225564153467166e-02
1.040454644196238121e-01
9.976964207750679825e-02
8.931360352545622550e-02
1.201188410479754609e-01
1.290941421496728247e-01
1.261767997488287552e-01
1.295439464777604910e-01
1.369496313814586308e-01
6.121991394836532457e-02
1.274895194703569157e-01
9.996655778778318346e-02
1.727519469234066463e-01
1.521294576242511187e-01
1.271342174873456299e-01
1.127626159666734601e-01
5.421618395470652330e-02
8.510958248760941425e-02
1.062630934311440678e-01
1.332701243347783338e-01
1.128518681119840134e-01
1.722090984507066991e-01
1.153210090085919903e-01
2.092295440574049037e-01
1.117811163974002653e-01
1.819239163169195650e-01
1.720270207434853593e-01
1.843588021632838470e-01
2.143037838433493325e-01
2.191249446400073686e-01
2.829773988524800776e-01
2.890875548354421842e-01
3.603739788620970996e-01
4.129580902151069322e-01
4.578203590345479301e-01
4.950557406737255417e-01
6.133277239909064038e-01
5.840854310211376355e-01
7.171586777124765444e-01
8.224355924018783570e-01
8.717341884882967573e-01
8.714827480586967434e-01
9.458997359092066182e-01
1.021967006055410243e+00
1.041953663063623470e+00
1.098790788990695821e+00
1.109821891846522579e+00
1.198514383233631797e+00
1.223843820693993889e+00
1.172991486356330881e+00
1.173734922527958080e+00
1.134636231138747897e+00
1.149641523534835841e+00
1.070686226889987935e+00
1.014904761062591643e+00
1.009218610016771933e+00
9.618249428311684834e-01
8.642582666607907527e-01
7.428343437290162443e-01
7.581317275517379661e-01
6.087187691357356378e-01
5.532933333830971634e-01
5.163834526711572614e-01
4.774148330157296227e-01
4.014341607589776428e-01
4.043407686887435792e-01
3.287520627964717335e-01
2.838395385711219854e-01
2.089088440919081857e-01
2.607715188326245048e-01
1.926904587615779207e-01
1.474603057163837994e-01
1.434068569850539543e-01
1.925061444956155665e-01
1.501029381123251960e-01
1.302788415348529183e-01
1.165290036303235632e-01
1.460233055624769183e-01
8.853362938546339989e-02
1.365026776379943407e-01
1.194327897122062221e-01
9.470567052030826050e-02
1.299764531878314644e-01
1.003859916833851201e-01
1.308229429851149039e-01
8.711878246654376767e-02
1.379089326096571422e-01
1.259867206119283101e-01
1.650719164226381874e-01
1.664766718285714542e-01
1.844284193955988971e-01
2.173003097185213506e-01
2.228240360151610422e-01
1.791883557603550503e-01
1.948141791157698144e-01
1.686928277989220570e-01
1.975750528620392465e-01
2.476641806193181083e-01
1.829268922980772649e-01
2.727972990284616150e-01
1.576545715014688320e-01
2.253186229937177432e-01
1.975345932949847116e-01
1.562561743932944780e-01
2.559244437056759081e-01
2.323372965473702589e-01
2.445592201889834338e-01
2.103458436373711882e-01
2.580484206364941357e-01
2.221411180778108396e-01
2.649976171974017802e-01
2.219191677772993920e-01
2.654986025522264037e-01
2.489356109639858650e-01
2.819937186266529561e-01
2.480324057137304194e-01
2.687034988289738191e-01
2.436116266484566195e-01
2.591264225402220012e-01
2.332541414170541672e-01
2.310561006168412035e-01
2.652793679180270869e-01
2.264579201325686852e-01
1.743448316709104440e-01
2.299368995432236606e-01
2.555281877388790313e-01
2.139158731037861805e-01
2.077838304593796481e-01
1.895083009760457349e-01
1.834372130094833742e-01
1.713848788866344786e-01
1.863386147843220098e-01
1.472357754526620599e-01
1.251670289391100532e-01
1.773511510538047509e-01
1.991155348264969094e-01
1.235994922012634833e-01
2.327699880666233845e-01
1.880940561142434853e-01
1.631942923511209564e-01
1.989038988519427620e-01
1.345170975552855697e-01
1.430612056872465065e-01
8.956763634712888722e-02
1.358224099440944743e-01
1.454522618366320963e-01
1.149063860864599079e-01
1.115680533168030841e-01
7.881042884295577644e-02
1.548294585567648596e-01
5.040802442147280377e-02
1.516299184558776714e-01
7.243498869994136058e-02
4.136354505558130501e-02
8.126977015777488156e-02
7.807546859959921259e-02
8.310442672635823258e-02
5.618425966563737883e-02
1.193435405100838897e-01
8.857758201724484637e-02
6.781453364376160975e-02
5.326699187569521737e-02
1.357649227302798189e-01
4.699174520202339250e-02
4.997984267548313819e-02
3.829178390322252046e-02
8.311299407299810316e-02
4.753368394212013903e-02
1.557094077999823453e-02
5.541508089922258379e-02
5.787019509122862115e-02
1.681918497073066690e-02
5.090790818143184349e-02
9.672062998559169400e-02
7.726051858967548924e-02
6.426968931619075898e-02
3.204916159572059747e-02
2.905122907637881086e-02
5.887383515072414780e-02
-2.949566837259049584e-02
1.729161609302951388e-02
-8.576507044683887374e-04
1.096528866533962900e-03
3.029336601714836472e-02
3.502377540265126654e-02
-6.759426286544823262e-03
-3.324983970218028939e-02
4.898676031405128917e-02
2.436501046539946494e-02
9.243418219284985776e-03
-1.409892859391019548e-02
2.464547397798118322e-02
-1.038737553471352076e-02
-1.420172864900419440e-03
4.055058043812147239e-02
3.117702600985529024e-02
2.768070177921114899e-02
4.481271888279425575e-02
-1.900040674732050502e-02
4.177577595191182130e-02
4.188787331743554221e-02
5.077488008195326502e-02
2.693627631141563145e-02
1.851647204255277984e-02
3.459836312193582952e-02
5.120904343342574938e-02
1.942918842219550427e-02
4.636955869322414298e-02
-7.701293900132263892e-02
-3.056158201338230254e-02
5.273057163370280936e-02
3.405273189755279872e-02
3.817484612722774756e-02
1.329027344286108289e-02
-2.307187001545844829e-02
6.637195815723302694e-02
5.394258976648620696e-02
7.217837898289927723e-02
-2.523153796705202706e-02
7.054129963980078355e-02
7.066995960345975880e-02
6.193820374954959324e-02
5.038140138000072460e-02
3.171336166059343653e-02
7.127729494071020910e-02
4.481852643768476085e-02
8.292961756794353656e-02
5.168213659841664614e-02
6.173782537714529728e-02
4.793899172406405895e-02
7.698247101201653730e-02
8.320168483776463342e-02
1.243086201888557868e-01
9.502965825728794391e-02
1.172242828668609849e-02
1.755803137138436942e-01
8.783109107085018685e-02
6.043513658854592074e-02
1.474945864072141344e-01
1.455968531399478572e-01
1.146257370784510010e-01
9.249462700070147647e-02
1.413752813291955512e-01
1.259767972153272020e-01
1.435346196806136509e-01
1.483543985133608523e-01
9.273967043129986709e-02
1.367552421335927471e-01
1.433284949350090987e-01
1.576478371253220989e-01
1.638428433037233123e-01
1.164247717938208387e-01
1.493194580757058465e-01
1.618196000823192426e-01
1.641320422580895555e-01
2.041170294562072163e-01
1.950600027296419681e-01
2.578986525379982631e-01
1.430652387158851957e-01
2.031479912710572600e-01
1.860922464080700389e-01
1.666836354245275764e-01
1.872297295466325007e-01
2.128392866545977258e-01
1.699796209385328327e-01
2.114562537400265785e-01
1.924397272782359114e-01
1.899406899641020441e-01
2.643000188864275124e-01
1.741112672232913439e-01
2.322546327768624241e-01
2.576809147624425367e-01
2.544337123046565008e-01
2.525392778940165894e-01
2.926631424226019407e-01
2.733885348652983494e-01
3.221292842311390126e-01
4.130724647073589773e-01
4.149058054924849026e-01
4.486645962220475736e-01
5.471211352343398060e-01
5.800596398763359085e-01
6.724277148142108196e-01
7.796494071509277868e-01
7.870420207667312429e-01
8.457012671051389319e-01
8.945141546724291182e-01
9.666685896620430540e-01
1.038823914007566129e+00
1.061656893110241695e+00
1.183381922750216697e+00
1.184708911552374344e+00
1.240420745478290732e+00
1.255879456115994053e+00
1.266417028178099313e+00
1.241828734756594388e+00
1.260735294388287242e+00
1.238645531591507254e+00
1.181474233706905963e+00
1.093810735694486169e+00
1.115652122854576378e+00
1.002435285695441713e+00
9.857798153808634556e-01
9.030522256472643949e-01
7.942316638260410455e-01
7.638613712787174492e-01
6.710378632785851671e-01
6.051364055229709882e-01
6.007696345099881041e-01
4.657818987548093537e-01
4.534443793396490952e-01
4.323641244548109275e-01
3.639960309625725476e-01
2.993158429370930129e-01
3.109460320801761268e-01
2.523261936055770649e-01
2.355351494503610255e-01
1.667865884973226409e-01
2.443556104175962918e-01
2.235675645673432799e-01
2.170327016220658101e-01
1.642952252791564094e-01
1.557078021466595796e-01
2.026437963488811334e-01
1.939710080810001236e-01
2.476422582719638166e-01
2.111248332937138150e-01
1.685899786187382288e-01
1.699258764370280561e-01
2.113689931887914042e-01
2.276152120408780899e-01
2.455146790503446863e-01
2.278290717691083267e-01
2.022450303874128441e-01
2.127746330303940947e-01
1.939859443063142175e-01
2.714656269326371496e-01
2.413134503558557464e-01
1.508694257883586853e-01
2.659571594900474456e-01
2.514547364211491831e-01
2.408617745098097229e-01
2.682057541188169747e-01
2.715171424987778415e-01
2.886178338755076567e-01
2.834110292579993251e-01
2.837115358309379443e-01
2.650861617859529562e-01
3.080858226186248272e-01
2.212295581286145285e-01
2.921535333972106740e-01
2.517700798180579347e-01
2.801650370339058282e-01
3.056309047376751797e-01
2.790666629155820755e-01
2.838897728977319845e-01
3.156757264534196250e-01
2.531228036954943916e-01
3.137128144934026586e-01
2.846823707891035782e-01
3.310015129544324752e-01
2.652742795578464929e-01
3.043835396027127493e-01
3.001347071743908912e-01
2.303358694408933482e-01
2.921132885153381320e-01
2.998391434598137728e-01
2.629679694840554305e-01
3.158205250551121002e-01
2.348881279704977676e-01
2.341423637578896044e-01
2.482433319339203415e-01
2.378453741565439428e-01
2.689356233418622733e-01
2.777698649371803663e-01
2.148346885589803301e-01
2.313845508653472605e-01
2.327553703494829596e-01
2.510925718079853874e-01
1.973492494785121509e-01
1.898655744989451444e-01
2.239634681825951323e-01
2.273507127735747146e-01
2.401766578290956411e-01
2.838554483069713474e-01
1.862429664788662897e-01
1.769018537384371148e-01
2.089971031971004645e-01
1.953425142379143498e-01
2.164141855341824294e-01
1.688002205860552052e-01
1.508559526493535308e-01
1.943080713433498474e-01
1.682673243640624983e-01
1.933262084050861862e-01
1.582330776637534409e-01
1.566002158811191092e-01
9.864344013998538330e-02
1.203688125235661821e-01
1.640310183675323941e-01
1.982685408115817394e-01
1.747824850521277062e-01
1.789524970651636682e-01
1.178244888354665898e-01
1.329834127123303011e-01
1.257066846949408123e-01
9.690568415341796471e-02
1.097025986023018734e-01
1.128021263168152710e-01
7.662189027295301935e-02
1.118394192494704953e-01
1.111143278067534546e-01
6.867812433092330970e-02
6.503111729869985591e-02
8.696116301976591911e-02
9.128136176888354547e-02
6.499963179873768926e-02
1.233647704928117067e-01
1.619782677991978281e-01
1.822239743283289859e-01
6.311328228928451967e-02
5.888772643513218163e-02
4.787823335085195087e-02
9.704276005985093545e-02
4.325775417364885467e-02
8.518433522450580275e-02
8.337282350396693631e-02
1.000300051034075655e-01
9.090077402814250584e-02
7.362115496411585081e-02
5.253996547649727317e-02
8.707572382233695618e-02
1.056607952800372452e-01
6.629708664081214453e-02
6.792149067167814469e-02
1.698490465287169626e-02
3.577413994135921621e-02
3.669400260151201021e-02
4.152959752355295242e-02
1.070245622922385009e-01
4.344115103568189917e-02
6.253650684664653625e-02
5.343568717216667929e-02
7.390692596397413494e-02
4.011863481272753829e-02
1.175351687017343189e-02
8.731497787671853306e-02
6.602469684525752447e-02
8.525664291349777102e-02
8.983871356210060277e-02
3.291873299245529072e-02
6.543837153023507325e-02
3.544378283668144641e-02
-9.150834833767468313e-03
4.278580329201525645e-02
3.840321311231233159e-02
8.401967819528657899e-02
5.566182771575817201e-02
8.330400332368936844e-02
8.404450906477284322e-02
3.123041231157247175e-02
3.659305432494981691e-02
8.332605215034498414e-02
3.365678409914910768e-02
5.160909031185551693e-02
1.098094779935354925e-01
7.459880700498756900e-02
2.212037573090139958e-02
4.212309344069442574e-02
1.240278456325548256e-01
1.105699300954711417e-01
7.817740399426210962e-02
1.044051673786145773e-01
1.289065743124200580e-01
7.774048959395625513e-02
1.232738327118773070e-01
8.735893970221600413e-02
1.305903062139486259e-01
1.539297599689175566e-01
1.623174344762366994e-01
1.245877393292065538e-01
1.571716472395260356e-01
1.540906375933042693e-01
1.275552469688962243e-01
1.098852430570101402e-01
1.919296218662318032e-01
1.569640861310531987e-01
1.550635274654307283e-01
1.820199120973820806e-01
2.340337884034392746e-01
1.121300826073151624e-01
2.349733370812636946e-01
1.776942378284109003e-01
1.878961741656213769e-01
1.585256476400238035e-01
1.431644654618011159e-01
2.068384304971337684e-01
1.847969499416073358e-01
1.792013565953301524e-01
1.723741712153147865e-01
1.448469115371728011e-01
1.964360732574302326e-01
2.053250894098685442e-01
2.228899259214885409e-01
2.089255149419894653e-01
2.032865349319313009e-01
1.694485456566246218e-01
2.300285389462638219e-01
1.919343337087302814e-01
2.092231114812072024e-01
1.826277929162591629e-01
2.328084920230230614e-01
2.460941167789922335e-01
1.965774216897476778e-01
2.687223771703929343e-01
2.589034825742013157e-01
3.017390940381679543e-01
2.949215989907455482e-01
2.728628516986796315e-01
2.572386685901200676e-01
3.332649200659240640e-01
3.028770494824268855e-01
4.174594399453916971e-01
4.356129062452677725e-01
4.581923194223442852e-01
5.192338595493252162e-01
6.223188347517055741e-01
6.552517326888427363e-01
7.053902998709831174e-01
7.618981785949253682e-01
8.455915747529461068e-01
9.327022842949573844e-01
9.896496458468867496e-01
1.006476809538747741e+00
1.110762722011054526e+00
1.120160366959161102e+00
1.193130460688056615e+00
1.167753735426449113e+00
1.242269519677918987e+00
1.248349607003049533e+00
1.235228309394127422e+00
1.250775797344987783e+00
1.270075071361682628e+00
1.190826137748188573e+00
1.130280457112194048e+00
1.171203310211762050e+00
1.057838681790860491e+00
1.046165594481453187e+00
9.131829117022668418e-01
9.071502007679415058e-01
8.320771380850432442e-01
7.634099020660584101e-01
6.891217359064736314e-01
6.395659259131653007e-01
5.446746258494366000e-01
4.867773241990723809e-01
4.652286613800993842e-01
4.491181342305736734e-01
4.462671957642930232e-01
3.291123282985828902e-01
2.717669526743626274e-01
2.664261396654939995e-01
2.277563604633334460e-01
2.325390326951429498e-01
2.204544408705574887e-01
2.207598382484403376e-01
2.170733515277482872e-01
2.107176063431988877e-01
1.562233659670300978e-01
1.755204404152044539e-01
1.676653765316139522e-01
2.197560565860413040e-01
1.447128214247972444e-01
2.439717088607845086e-01
2.279625952770414632e-01
2.197880652851664507e-01
1.842046070024725701e-01
2.199516972835056650e-01
1.805959682698491386e-01
2.561371133016588919e-01
2.350806952847729336e-01
2.864297478085915394e-01
2.880603238920259046e-01
2.550475203457853723e-01
2.766643538679542935e-01
3.053484751668502084e-01
2.148843077447732952e-01
2.554717573341552805e-01
2.632309385300684590e-01
2.941243003998005312e-01
2.805917344100058997e-01
2.814134784441081338e-01
2.381500591602175587e-01
2.592824942273121436e-01
3.025536007627184221e-01
2.845035854260608010e-01
2.754531630643086149e-01
2.810118948237692593e-01
3.169794677677488237e-01
3.047789162650317296e-01
2.727474993639910639e-01
3.500781931468748831e-01
2.919576260370062015e-01
2.703676607784823438e-01
2.681230413299454107e-01
3.060241395125352093e-01
3.179875993550150270e-01
3.272903960286556724e-01
3.113627381650878601e-01
2.966181774926092141e-01
2.511805357677289741e-01
3.087459071712168601e-01
2.858088234380453674e-01
2.984425899171276320e-01
2.789172343837610368e-01
2.636384577505277438e-01
2.623063842368237863e-01
2.702767275712770756e-01
2.533060232349559349e-01
2.095841768087542412e-01
3.082906941402286383e-01
2.183268904883650663e-01
1.849194645725018571e-01
2.201774270880975937e-01
1.965091116701048191e-01
3.126285054042269307e-01
2.148734664136656980e-01
2.434226273782588157e-01
2.140055314886099291e-01
1.387885658832147540e-01
2.305244668613398440e-01
1.588950591392737366e-01
2.031460843230062652e-01
1.395720572357848355e-01
1.844338875980762738e-01
1.690142931983300845e-01
1.614456864939397274e-01
1.620972831779856627e-01
1.399945650350908066e-01
8.273742637973294234e-02
1.703046793066211873e-01
1.769701517147020398e-01
1.469858642893837053e-01
8.881211280493531146e-02
1.157741905800045573e-01
1.308084888362327225e-01
8.881678683078694791e-02
1.330017152726684637e-01
1.384093433113617322e-01
8.503718988894269637e-02
1.391099757201968434e-01
8.240802403141195276e-02
8.991169507688326346e-02
9.113820707487105266e-02
1.234229373863373613e-01
7.821294768800993169e-02
1.219659915072637685e-01
5.274399220739098282e-02
1.444640832874687364e-01
3.112726351251243403e-02
8.667652506539666457e-02
5.488974227064096628e-02
-5.149049662454680681e-03
7.498963388666675389e-02
7.764557915236745822e-02
8.824423823225169272e-02
4.075824109658342242e-02
5.713300767737587715e-02
7.527836923150299508e-02
4.405703207465302973e-02
3.182224944292953023e-02
5.169096409698098471e-02
9.215426581304320131e-02
2.717327260538331818e-02
3.565874856675865789e-02
1.056690850287760053e-02
4.340746804132222803e-02
6.933780282808701956e-02
-1.031584866834343861e-02
2.820239130105963582e-02
6.571649928718724387e-02
1.981766899894365705e-02
1.459454311865723657e-02
1.559171950032944842e-02
5.172630236033365358e-02
3.592048356619704369e-02
6.472724716186986638e-02
1.783464353822459755e-02
3.312135901195348980e-02
2.750351819097559408e-02
4.258437263689645452e-02
-1.760987278570389641e-02
3.064085027086654173e-02
4.296187858965920536e-02
-6.708335688254551954e-02
1.315824443020597277e-02
2.922456343177986388e-02
4.492565971330727409e-02
7.043602828716072350e-02
9.877932915871243114e-02
3.683745378304949247e-02
5.184263006609307611e-02
2.761981119609029783e-02
5.703627586790231685e-02
3.196677102216159694e-02
9.652238126267789764e-02
8.216253901098061196e-02
4.479198605632130070e-02
3.099609147526427577e-02
4.912070726787731711e-02
3.246272840058242459e-02
5.354382501021531793e-02
1.500373344614956347e-02
9.524557350813872558e-02
3.777951770192335829e-02
7.766277855601524949e-02
-7.012766441874776491e-03
3.958067260088769801e-02
1.212847650493122792e-01
8.303510767857542885e-02
1.244096191232266779e-01
7.730994194950663312e-02
7.279551932607977727e-02
1.158433175922017055e-01
9.544847464328656828e-02
9.068033025400827618e-02
1.512435011223980386e-01
1.540729238044689364e-01
1.507370025378199085e-01
9.911504046684205260e-02
1.909921934434137547e-02
1.002767072402881293e-01
1.186853875703900996e-01
1.034167118145819797e-01
1.172210357257061492e-01
1.597425417106814460e-01
1.029370285115665112e-01
1.129719864074205243e-01
1.344857920701285348e-01
1.478096957599635830e-01
2.085514628316668673e-01
1.409374614152322236e-01
1.983916955495845513e-01
1.578047909558239481e-01
1.756608898954846176e-01
1.893412412663945943e-01
2.342281460519107239e-01
1.391711463247973513e-01
1.759405499617061330e-01
1.864028130428464214e-01
1.246138806813073957e-01
1.147447455443972031e-01
1.097104271291555744e-01
1.011242773548882978e-01
1.413723403902032716e-01
1.848748101686815137e-01
1.470898832057419281e-01
1.593866233035557689e-01
1.580749135408225092e-01
2.017218398121324863e-01
2.027903280315920542e-01
2.019003994040665939e-01
2.494971135379835669e-01
2.117236249485992261e-01
2.563131470355468067e-01
2.493762911934960524e-01
2.559310211162184046e-01
3.382205324342910102e-01
3.611299717370520801e-01
3.975265138851275526e-01
4.604608040229972166e-01
5.111851901857835667e-01
5.589472668332747807e-01
5.669673543896870394e-01
6.665852026673925179e-01
7.528455385421097823e-01
8.315126106287177299e-01
8.985462461747990570e-01
9.258810866421628427e-01
1.007493269477486075e+00
9.779249536990903824e-01
1.131551972500582037e+00
1.188838508779446856e+00
1.230496533965514727e+00
1.178476018413873172e+00
1.189625494645678572e+00
1.250664764680750274e+00
1.242521283893158968e+00
1.173631166794915526e+00
1.152679614321694412e+00
1.121790359182453845e+00
1.014091954853103994e+00
1.011799917495952883e+00
9.610484810597389460e-01
8.579262807468486240e-01
8.482963076232226118e-01
7.177259008700472842e-01
6.086914609038717172e-01
5.910571350920978961e-01
4.910067746838762126e-01
4.873184240910383158e-01
4.524646757596085811e-01
3.372743775913121245e-01
3.525192405975173804e-01
3.100519492300337077e-01
2.370988022034181963e-01
2.262195390531740180e-01
2.132906792926343720e-01
1.950323340540122408e-01
1.647922222282975357e-01
1.448994297321296310e-01
1.203389502379473147e-01
1.229080729956535945e-01
1.298829705517484667e-01
1.710915355712128716e-01
9.242264044069138651e-02
1.434224495413378431e-01
1.911167890986847639e-01
7.935742288605697470e-02
1.637490239293593608e-01
1.458438502799812575e-01
1.620993308236616248e-01
1.631095287046898379e-01
2.068462537985362726e-01
1.609690978685120732e-01
1.700124702342264149e-01
1.709267080732278787e-01
2.009760194186109294e-01
1.810174622535933309e-01
2.026630181797808294e-01
2.233521499089618223e-01
1.991733491921809096e-01
1.814014833754198919e-01
1.381529142555240064e-01
2.529969363468062005e-01
2.361585709346974427e-01
1.905252947923460893e-01
2.150221184068174807e-01
2.826913693587999044e-01
2.005545822865658079e-01
2.597501039760886643e-01
2.803474274055116622e-01
2.221847723451887968e-01
2.003446924261178541e-01
2.412464435726016376e-01
2.272490752802862057e-01
2.429688505314610836e-01
2.177080566673411099e-01
2.176996250139347500e-01
2.524625008706911089e-01
1.746818439063830830e-01
2.415245665746654780e-01
2.136055986632128534e-01
2.323260567285492795e-01
1.789067657246735665e-01
2.843040656046117443e-01
2.300515202877835563e-01
2.519200842141789409e-01
1.867741557012977116e-01
1.967471792910343298e-01
2.152461579881244647e-01
2.095807029820685452e-01
2.169048844055983249e-01
1.996231095607507167e-01
1.951277803864595317e-01
1.966847884858481943e-01
1.856692916729745790e-01
1.742262914226421211e-01
1.635071662383566493e-01
2.029856775300709071e-01
1.431886949150646404e-01
1.283284513546350813e-01
1.606182978030869235e-01
1.711302317240174786e-01
2.555919162392452648e-01
1.252861004291874192e-01
1.432811339843784171e-01
1.228770355753383281e-01
1.308161602654915878e-01
1.424289052280662826e-01
9.503135988408663304e-02
1.244875515889021234e-01
8.394915468111194268e-02
9.023504513004611260e-02
1.228664659705633461e-01
8.209189799565595747e-02
8.391290654353364409e-02
1.151427938323036360e-01
1.427959430837436872e-01
1.051716384382188202e-01
6.988690482343096200e-02
3.995596959297051387e-02
3.745894965307521723e-02
2.433747329661513706e-02
3.092870833067266553e-02
4.636190961313077508e-02
3.687901514280328419e-02
3.197634592147569066e-02
4.942650576728058187e-02
4.732453638919062455e-02
3.508318424629311427e-02
4.202010542893101774e-02
1.093172824208586552e-01
3.617424378481180758e-02
4.814622896306999106e-02
3.751770023843754853e-02
1.756930322216514184e-03
3.600550896441034876e-02
-1.482348379853432388e-02
-3.197449622981065470e-02
3.390436155533449458e-02
6.224362410372311083e-02
-1.607868973626530584e-02
1.301129967121672157e-02
-4.857972313455287405e-02
4.728044994681974977e-02
-1.871382458430101425e-02
-4.584015375870307413e-03
-2.119621288663648545e-02
-1.790703672710761835e-02
-6.212573477978798608e-02
-4.332844634849369880e-02
-1.839597506639910340e-02
-8.520453677338196696e-03
1.049962053737946849e-02
-1.983629200866401238e-02
4.830213203822796009e-02
-7.189708138245338304e-03
-3.753227679566574493e-03
-4.611185673278167529e-02
7.004190295551174228e-03
-9.514501367175919738e-03
1.896295191598782598e-02
-6.779194144496747398e-02
-9.917297112574563478e-02
-2.489680839839380350e-02
-6.266229598608306917e-03
6.123337414936785850e-04
-2.573379861115789383e-02
3.749625202277555996e-02
-3.181401044392517807e-02
-2.873153792123925993e-02
-1.677251111661649113e-02
-5.693522082252901184e-02
-2.598709004204951406e-02
-4.379940794497724776e-02
-6.934455799623692740e-03
-3.063961930621511912e-02
-2.690046233917260665e-02
-3.184905967486659217e-02
-9.058185823950293258e-03
2.134830586303403110e-02
-4.210181194341967165e-02
-1.545096889094956655e-02
8.903684371053537105e-03
-8.717908923359801721e-04
3.378287757270114627e-02
-6.763229168374869371e-02
-2.452546137555796854e-02
-5.785829194886987770e-03
1.541167290473623858e-02
-3.983054323281491615e-03
-3.185498085222795983e-03
5.515964612530850630e-03
3.083628546667722958e-03
5.478460482803687581e-02
3.137953683927761916e-02
1.942399041236541474e-02
3.794704613666514958e-02
-6.006324407534381626e-03
1.947603355399275815e-02
2.436081168712728173e-02
7.879623368599374122e-02
9.113803860706234938e-02
3.410950352285177511e-02
9.504558394809878297e-02
6.960002472360188319e-02
6.022749433438626121e-02
5.557833296998766076e-02
6.776684852334974307e-02
7.453103354439388761e-02
4.102801640191360011e-02
8.004614287844474818e-02
9.107152341942886808e-02
5.543339491878192249e-02
8.188475445042717182e-02
8.599966456974172946e-02
6.085471039233813356e-02
1.393581030509902230e-01
1.053701107380937141e-01
5.628564200181918747e-02
1.262654397866531109e-01
8.732827885950231184e-02
6.909966287458013667e-02
1.065765202665422406e-01
1.618134724693481852e-01
1.088210355803810592e-01
9.092049081561631718e-02
1.304079363975034489e-01
8.612841984506014459e-02
1.564136425525604057e-01
1.087271679664255086e-01
1.331274338558095516e-01
6.485379350082953742e-02
1.211420408543111282e-01
9.330415313259013410e-02
1.252779151951412540e-01
1.512776275947219917e-01
1.450527404672797005e-01
1.613706897081584879e-01
2.387595799363200766e-01
1.543671778347946999e-01
2.753012993860054491e-01
2.807615299336339021e-01
3.079782436684876945e-01
3.572434522677814805e-01
4.321480368455429821e-01
4.950985999489181388e-01
5.211908885764191535e-01
6.113564633446987306e-01
6.087548918364182882e-01
7.657274463285244082e-01
8.109176317818829194e-01
8.270555291397653219e-01
9.676500640436728196e-01
1.003693106185322703e+00
1.051995681617981404e+00
1.065723634243428641e+00
1.091856267340305164e+00
1.129848299990806604e+00
1.254131648371997532e+00
1.163128925086304166e+00
1.187913590549244613e+00
1.172550283381290193e+00
1.174730305104463524e+00
1.097579256976279671e+00
9.987210723732788953e-01
9.695784780821802284e-01
8.979970191666216683e-01
8.693722555546584685e-01
8.128277082205009885e-01
7.444671724115332623e-01
6.771303233208382233e-01
6.512080421500267002e-01
5.513531628465575540e-01
4.168376369753254984e-01
3.844720283357997426e-01
4.055462357663184858e-01
2.948327870644218973e-01
2.753379145667986250e-01
2.157790555557344003e-01
1.631551977551507215e-01
1.872741831432628845e-01
1.927962966410090018e-01
1.340947144541552172e-01
6.157409940928005448e-02
1.126540339194390117e-01
1.037164064889034287e-01
1.062283703999669926e-01
8.705703400721184759e-02
5.656065236721024431e-02
7.958157734714982334e-02
7.629948432749839027e-02
1.315682568894811222e-01
1.115518277335024178e-01
1.364746489725989775e-01
1.077057396991992072e-01
1.052396360923135987e-01
1.156360704377115411e-01
1.065733232713245715e-01
1.527504590769580561e-01
8.512219222539142705e-02
1.352933698242627936e-01
1.373935810965545568e-01
1.448888992999517178e-01
1.699659383283530500e-01
1.090985409085696162e-01
1.774828630405807239e-01
1.743416740394511111e-01
1.859573530432171995e-01
1.909758754342196219e-01
1.725873284801029417e-01
1.870851158335440911e-01
2.264514692167067522e-01
1.356104324029745734e-01
2.340768478181667334e-01
2.589595535532073223e-01
2.206875671359170843e-01
1.896288347606701896e-01
1.977716534253143033e-01
2.295442793862649267e-01
2.230217018232316384e-01
2.111610273276109950e-01
1.696851467070136787e-01
2.444495823953368174e-01
2.196052321337020607e-01
2.130696953273384375e-01
2.304394002478712122e-01
1.943047840813263150e-01
2.075363554708554159e-01
1.789183695672696139e-01
1.863881090367543736e-01
2.084391797076201036e-01
1.905863611295075533e-01
1.904978661220950442e-01
1.761444901481587777e-01
1.246720240389696810e-01
2.147940869815760101e-01
1.480409371339742597e-01
1.955384794478921828e-01
1.656253273859713548e-01
1.743710248719572142e-01
1.505514676461586487e-01
1.412193497534779962e-01
1.189723267027398002e-01
1.827310250282210002e-01
1.615114427308242395e-01
1.482984788782545915e-01
1.523177454914848572e-01
1.374387849304361531e-01
8.548357687892069179e-02
1.326768110334083650e-01
9.713230630096648943e-02
1.202273486535354180e-01
8.046582340133753841e-02
3.229452772611576122e-02
7.584497356702227244e-02
7.022773943608806579e-02
1.217550644104605367e-01
9.739140903232551549e-02
1.595690471944248567e-01
6.796816866256830125e-02
5.741381832204423691e-02
5.173820609125201475e-02
5.182736428123702055e-02
5.069284168322699125e-02
2.315047191334437815e-02
3.258416880675502059e-02
1.705128786314562273e-02
3.119998487568527434e-02
7.827905923809830302e-02
5.894507117691974440e-02
1.119912920757578922e-01
2.087064359603351543e-02
5.226428504982392337e-02
1.977012782918861900e-03
2.300230536219910471e-02
-3.023793541316412148e-03
6.681633541852294300e-02
-3.831882695817426243e-03
-2.289200014334435290e-02
1.611557356769981186e-03
-2.352464460580935487e-02
5.083260264631299374e-02
-3.244921896033030329e-03
4.668226884151546741e-02
-1.040793410064241170e-02
-1.216288203131177248e-02
-1.293840784241670483e-02
-1.468680766854479208e-02
-4.306016111743977970e-03
-1.066740757287527180e-02
-4.943196703728398866e-02
-2.684174425068577841e-02
-3.758502118443690643e-02
-4.510606285734027054e-02
-7.862775234732580221e-02
-7.290611425978460458e-02
-4.387018016909367824e-02
-4.358326507726707072e-02
7.694964633574663537e-03
-5.298379876878153705e-02
-8.127722810306525769e-02
-7.516232916264253827e-02
-4.059640916393611465e-02
-1.419626581424868195e-02
-8.976944747679259373e-03
-4.388778421999533358e-02
2.022519175744207087e-02
-5.444202019039548479e-02
-7.510888262384167458e-02
-5.159348089131984838e-02
-7.380158122742326576e-02
-5.096423327937515263e-02
-4.638423008174791251e-02
1.010201703793097566e-02
-6.837281574505227333e-02
2.353057537051874565e-02
-2.646311179947056016e-02
2.177029960274644294e-02
-8.974685440251817248e-03
-5.098972244033461027e-02
-4.314307621492269318e-02
-3.676093443990852139e-02
-4.172823277813136195e-02
1.834283768939160703e-02
-3.897874569850105775e-02
-8.272453331543813682e-02
-3.188786272271198347e-02
-2.973886786428997162e-02
-2.803185035592297564e-02
-1.628753990515555833e-02
-7.842690228433105148e-03
3.256519005745023287e-02
5.966275821058943107e-03
-7.124582229682563383e-02
-3.795469502137847201e-02
-1.133390997424950364e-02
2.307769803919516860e-02
1.635909872506108309e-02
-2.143705993562562001e-02
3.327488227344492511e-02
3.611903534302073060e-02
5.501689107715903443e-02
1.221607782588498420e-02
5.260258428612524240e-02
4.373535702934516767e-02
-5.557758958427000406e-03
7.012289001904956076e-02
5.161581311927686266e-02
7.338382593521314279e-02
-7.184517018355270068e-03
5.912211392674329713e-02
4.943390792377472254e-02
1.082636441268652605e-01
6.910905945200046530e-02
8.269268756871706039e-02
7.907716601685610414e-02
1.006775232636785145e-01
9.360377654860058128e-02
7.983212222437668926e-02
1.142377068972504628e-01
1.017455089338614171e-01
9.163148888677943860e-02
9.501205274356776254e-02
1.338387676128481307e-01
1.209070824077641410e-01
7.163170893543799322e-02
1.116662516723504750e-01
1.597584125825162737e-01
9.468362060970539340e-02
1.187623613830277591e-01
8.642821582905027555e-02
1.033355773079417395e-01
1.098454868989149347e-01
1.342611525207255685e-01
1.011945195218755256e-01
1.646212363587675753e-01
9.116047509263172643e-02
1.340477818129419130e-01
8.537169952593270938e-02
1.413401569508975497e-01
1.792645959655660703e-01
1.690132823664502182e-01
1.381212075939432515e-01
2.543022908214382372e-01
2.480328871492423481e-01
2.344441681857222515e-01
2.802620414606407651e-01
3.198657343619650817e-01
3.112702877310575267e-01
3.840044843107318084e-01
4.596716824011746749e-01
5.585989205496516563e-01
5.588114259056865540e-01
6.375691987126037574e-01
7.384763652127822597e-01
7.988186335090998735e-01
8.886178533501096766e-01
9.338545091074933469e-01
9.835161219762046381e-01
1.040465903117207658e+00
1.119625280265173384e+00
1.103483320627203668e+00
1.177706842477892257e+00
1.164041937965988316e+00
1.177497361209787430e+00
1.195184117055702711e+00
1.177220276703340840e+00
1.137641009505711231e+00
1.117228927434421593e+00
1.078339904890244894e+00
1.046179613137051989e+00
9.731022554589395801e-01
9.228981935316005192e-01
8.554783979211071365e-01
7.594290221957800124e-01
7.189651065987359146e-01
5.665137883664230767e-01
6.330104156912567115e-01
5.779943676502268257e-01
4.606763857868232948e-01
3.825113773550613550e-01
3.673887022434795258e-01
2.699860187412694290e-01
3.126463778661970894e-01
2.549194127192339066e-01
1.905998966676668016e-01
1.531909488311506418e-01
9.848527197645415288e-02
1.693216515427979352e-01
9.749240994002705829e-02
1.245641863456611043e-01
1.299231792138296204e-01
1.118214475860175305e-01
8.507847524099503012e-02
1.276038480924198970e-01
1.282080858822794434e-01
1.256575587128949401e-01
1.841082055297977860e-01
1.930952281484687449e-01
1.349352263646709238e-01
1.699042705850411783e-01
1.349989387823449793e-01
1.089171097542238204e-01
1.699863056601350897e-01
1.212818123618039645e-01
2.006841845543933245e-01
1.710475541885733142e-01
1.679527951690973631e-01
1.518580379653036994e-01
1.859201811828104234e-01
1.788998341036462103e-01
1.467795213848016589e-01
1.918075968456603164e-01
2.021231804578051405e-01
2.202556494920070163e-01
1.937368731682816425e-01
2.093998544785629079e-01
2.019327247916426482e-01
2.042592436752627971e-01
2.095584657301065024e-01
2.308756780524657271e-01
2.146660833808668456e-01
2.171465005796842096e-01
2.579863065494414354e-01
2.306780639893746543e-01
2.565839103743199345e-01
1.841237917566052318e-01
2.803617495825446726e-01
2.407556414362156672e-01
2.274216556515932797e-01
2.534625708894339691e-01
2.782981234683780669e-01
2.034790092867573286e-01
1.687368801843359412e-01
2.330827539072932719e-01
1.774554083747379996e-01
1.922585086944833266e-01
2.821487730484737444e-01
1.847159249600317243e-01
1.753315599623733456e-01
2.333670740956887424e-01
2.316411469051145866e-01
2.471433752505217130e-01
1.582728008988767976e-01
1.888071594056231484e-01
2.144951818724066261e-01
1.773933723396551587e-01
2.275559701789752476e-01
1.682852345473504208e-01
1.686108742740065614e-01
1.629782484310232649e-01
2.037167335445438932e-01
1.757353210345505012e-01
1.482792103055914357e-01
1.305586508604777429e-01
1.536776755257755478e-01
1.565409015908167389e-01
1.475675990693804396e-01
1.359355174750623008e-01
1.396986033833925167e-01
1.070043054057556869e-01
1.265195110283236501e-01
1.122165666759444846e-01
8.062583918571537833e-02
1.085617168585299719e-01
1.036657236628863998e-01
5.988924267715621530e-02
1.216418342092326216e-01
7.620742784707859596e-02
8.688740138898096155e-02
5.897219013110164415e-02
7.251029739735784241e-02
1.381024514283790972e-01
8.427454323732015695e-02
5.886569511160153617e-02
2.718935736955139376e-02
4.836419144141651527e-02
4.168727694702675096e-02
6.476499057335786957e-02
2.991518831784982513e-02
6.930444408105077003e-02
3.757660053582090320e-02
-1.452467294541575846e-03
7.085447732223314199e-02
2.501216677216489687e-02
1.055665636223461490e-02
3.046302297078984714e-02
4.169013180242713001e-02
1.232731045222452103e-02
4.540048863393611467e-02
-3.088784474545402340e-03
5.757608124359475665e-02
-2.675624856535482529e-02
3.677832142813104461e-03
5.034236474978508874e-02
4.845132759764374502e-04
4.314490431541738794e-03
-3.122287785174409497e-02
4.270435896571051632e-02
1.125986655729287883e-02
3.405236825490041974e-02
2.226476443316515938e-02
-4.143580362818790469e-02
-4.487566759001161698e-02
-8.327691908238267493e-03
6.292956974423215277e-02
-3.638753350814840932e-04
6.013864249726354194e-02
-3.302643143311246449e-02
2.707220107819386518e-02
2.801395545520799293e-02
-3.135738316150034344e-02
-4.783285848052998973e-02
5.204186456182902099e-02
-1.879644484995283624e-02
4.501547911713332101e-02
-1.264819155564123748e-02
4.091476928713784489e-02
5.047540613758011094e-03
3.676697826235106326e-02
3.258768490597648004e-02
5.579702148655692889e-02
5.472565865046214589e-02
3.468252863699386457e-02
5.553650687392099224e-03
-3.744558406007791190e-02
1.184515465128536081e-02
1.037210255733806569e-02
6.558338125128225504e-02
6.190193125824478698e-02
2.691598579572628339e-02
4.242410178910506480e-02
8.078017618832913915e-02
7.851984873275080073e-03
3.970032865258902449e-02
1.183884249567910239e-02
5.915200588492049855e-02
2.492527608520316018e-02
-1.022524448803609383e-02
8.241413949931998550e-02
4.739589167578988488e-02
9.515441307229774437e-02
9.438584672055227998e-02
7.030117525109952359e-02
2.100058869580236770e-02
8.177624227613497498e-02
6.185615606975571751e-02
1.465853405745888016e-01
9.947373175613175023e-02
1.317404525259570913e-01
9.979546003159062151e-02
1.389913963974639399e-01
1.212277577278306900e-01
9.656903815586738438e-02
1.464453411414247397e-01
6.899563867365572645e-02
1.652345370037330285e-01
1.721917429761046781e-01
1.466799229629237866e-01
1.186278903160921938e-01
1.048187938656982565e-01
1.679014827156483092e-01
1.646269866686320416e-01
9.122828684346200034e-02
1.406995693963571381e-01
1.078087336308100053e-01
1.566869937120673462e-01
1.445994593676150075e-01
1.644471631212434670e-01
1.328633270003174716e-01
2.075250898384853326e-01
1.174470941125027035e-01
1.969924767372791263e-01
2.031966373609002119e-01
1.316730710051418896e-01
1.571836960430563201e-01
1.727641473652654358e-01
1.175672307403573397e-01
1.651899504691348719e-01
1.285294574342784601e-01
1.679291068303009893e-01
1.572453300245059971e-01
1.848222325873761784e-01
1.716145038477668305e-01
1.993759186409825301e-01
1.760971190404044262e-01
1.067276976070749422e-01
2.129997210855726908e-01
1.950508073500550610e-01
2.880529787420481047e-01
2.476211812425139214e-01
3.460319424842182023e-01
3.667715303474111677e-01
3.941133181433185140e-01
4.711686945361046042e-01
4.106424115581449041e-01
5.369420696120297265e-01
5.989566233526466554e-01
6.506083540594542747e-01
7.301261272907411115e-01
7.907558412046169494e-01
8.237661681953162285e-01
9.470062973910243764e-01
9.807133593883341494e-01
1.064749272545314929e+00
1.111774302244735724e+00
1.185826652861484698e+00
1.248683628077057239e+00
1.170848093463722650e+00
1.274178491896887477e+00
1.267556144075162594e+00
1.253091565085651560e+00
1.255134146883754687e+00
1.251808901448821620e+00
1.144530538495555971e+00
1.216305870316550575e+00
1.024906294267572848e+00
9.943467214617605077e-01
9.588232847111245460e-01
8.578765746204416454e-01
8.017296931207507082e-01
7.531487508597914937e-01
6.765516426886016843e-01
6.576634766835381951e-01
5.863793210420450430e-01
4.734528549925948737e-01
4.469463572560617437e-01
4.197094844714190365e-01
2.879729070713662464e-01
3.213122123525516405e-01
2.729307219297041343e-01
2.576076323179183336e-01
2.949515959992563552e-01
2.471892586383797052e-01
2.222711127454503888e-01
1.773340433618233458e-01
2.272034545574946607e-01
1.541843484676982956e-01
1.809452812613586148e-01
1.965142005123330926e-01
1.927857336889689244e-01
1.749996466013110652e-01
1.677675091333410418e-01
2.457612413290006514e-01
1.584397340414078759e-01
2.282812334268786714e-01
1.964716552482909939e-01
1.808821499511087116e-01
2.044012706904441146e-01
2.111575229179427915e-01
1.884767751764293009e-01
2.704845255174063157e-01
2.408300740312032118e-01
2.060838482825594342e-01
2.186511915886067692e-01
1.904988064428661254e-01
2.589413059158917618e-01
2.423232052594132269e-01
2.118863429920102848e-01
2.317501608340304664e-01
2.455596416407461735e-01
2.418024567725703400e-01
3.473212308339662657e-01
3.033484739752626558e-01
2.378013511363915311e-01
2.969690337446365680e-01
2.752133874408121961e-01
2.879601693764316517e-01
2.727951743935764783e-01
3.046773395938275342e-01
3.267036158386841249e-01
2.911531821961376720e-01
2.592868812746023655e-01
2.892744975554067399e-01
3.118055306071940702e-01
3.148365018105162561e-01
2.784453253536447459e-01
2.425839798975757688e-01
3.190043804160482277e-01
2.780135295459216227e-01
2.936351341564683581e-01
3.387332918410501104e-01
2.946715666625659980e-01
2.952476917185055116e-01
2.675826753795161883e-01
2.908045114647090368e-01
2.012523153887873784e-01
1.950422354102006595e-01
2.654207668753753024e-01
2.089535566446825143e-01
3.026255547093568143e-01
2.790631173268722787e-01
2.928911020939203302e-01
2.282484630362713873e-01
2.443753838027361847e-01
2.279806434267150350e-01
2.162456131358182487e-01
1.907997773365515681e-01
2.074306602874742278e-01
1.876650205604331323e-01
2.212914329400417768e-01
1.846364185429832383e-01
2.351736591584828451e-01
1.669587672390435984e-01
1.790995698004415881e-01
1.932361304628705256e-01
1.753131675007469359e-01
1.547494966699528851e-01
1.909192271509795591e-01
1.527899782138627538e-01
1.909460609662947672e-01
1.508406203942001811e-01
1.672756230499046204e-01
1.576226577492317316e-01
9.034496643415484973e-02
1.913864378545476475e-01
8.521620107339733519e-02
1.593534815524549064e-01
1.116949760783879086e-01
1.188991042423934302e-01
9.731590424071343004e-02
1.417061364316459238e-01
8.645448359826687912e-02
7.204835421054868461e-02
1.429802169040049475e-01
1.406963173545448531e-01
9.323163970977832449e-02
5.779534594129041164e-02
7.689955161539593909e-02
7.550398852680231809e-02
1.150550714810639891e-01
1.314320842489375418e-01
9.816680344521377943e-02
7.339641689658794876e-02
4.364410889446428132e-02
9.138707610663271419e-02
9.429830814814682549e-02
3.008188692314691867e-02
6.457869053789304370e-02
8.982826077235087081e-02
5.610616121949052459e-02
6.662506599847116406e-02
9.179221837256837380e-02
6.438904676892939771e-02
-6.717946072654544520e-03
9.545844589793357760e-02
7.347936493564143079e-02
1.191013969096259978e-02
8.571404804276175349e-02
3.159834586613451818e-02
8.336272086249615909e-02
1.562478312030098765e-02
7.337338326547931944e-02
6.264602370228587735e-02
2.485386092420733758e-02
5.619749683827502534e-02
1.008726399241887117e-01
1.123329626851363727e-01
4.516080446101161661e-02
8.479327913600386013e-02
7.043093667983474360e-03
9.419625204780929240e-02
8.490539912716171811e-02
1.047873450001820805e-01
3.928573478140362507e-02
3.947580586031872868e-02
9.082233631703501286e-02
6.646112897582956425e-02
5.741642862682565240e-02
8.224918319400648103e-02
7.911593134948008421e-02
6.095063683986518682e-02
8.963843570134849559e-02
7.618384608092312882e-02
6.301701536651391211e-02
2.161271063054148039e-02
5.379481631574203893e-02
7.656041414922257204e-02
2.602956227096139136e-02
3.249838402000568283e-02
3.131640608972401790e-02
7.443488078599833080e-02
7.657170190225404127e-02
4.199258169353019265e-02
5.483859923592231123e-02
1.231002916325581731e-01
1.082247221821920347e-01
1.107282713960358878e-01
5.828806685379701868e-02
1.157637593987289604e-01
9.224576799458511500e-02
6.504115677989061317e-02
7.551277513353632509e-02
1.485258179073853935e-01
7.030924027597582060e-02
2.041155981686839371e-01
7.357051566032297985e-02
1.672946264618557222e-01
1.486351106939670930e-01
1.674552141170515818e-01
1.688787395570695571e-01
1.848495155754629748e-01
1.560313580839924330e-01
1.731573438268877441e-01
1.767595376317113720e-01
1.876795303617765920e-01
1.798038428754860640e-01
2.112620262601179189e-01
1.449384622191660088e-01
2.053747842330556905e-01
1.743835284459373247e-01
1.930578770981307979e-01
2.612470253284122634e-01
2.349454753316913835e-01
1.478018127905995072e-01
1.866674112874323610e-01
1.786552537273151664e-01
2.209860499276510570e-01
2.378572483259490666e-01
1.721324483574282749e-01
1.956048899440900601e-01
2.064406767572076751e-01
1.846034837371490489e-01
2.064771316918931066e-01
2.268426813434157308e-01
2.191143650302170842e-01
1.896755709574778903e-01
2.542723759175544163e-01
1.447503271691916726e-01
1.514906196749862544e-01
2.086178551501532141e-01
2.413712875870245855e-01
2.113066950126755716e-01
3.305524123104497392e-01
2.809859767784256279e-01
2.938635722375143589e-01
3.557662261765022205e-01
3.110665865804904118e-01
4.373481329576984766e-01
4.004796104770336762e-01
4.453870426773055557e-01
5.397950612551201122e-01
5.766955016258186184e-01
6.771243129217374701e-01
7.065256364345123830e-01
8.119174209141020171e-01
8.719739828506998247e-01
9.313063412471638269e-01
9.865740311339061819e-01
1.036199949188336245e+00
1.099422997991280404e+00
1.157484888385908572e+00
1.223645371182616293e+00
1.237484698089812651e+00
1.236923320798894332e+00
1.290856797146905599e+00
1.255531958377923862e+00
1.303186490330032310e+00
1.254217758803663152e+00
1.248327111758725794e+00
1.164931161970068407e+00
1.135540006997106222e+00
1.058369419061365502e+00
9.798377227105748988e-01
9.529978600915693931e-01
8.465989820949382239e-01
7.774641838229705559e-01
6.756992188742629857e-01
7.012842177585064674e-01
5.869331198964733431e-01
5.267407532264516412e-01
4.675684921604769673e-01
4.233506223138766567e-01
3.698713739816454904e-01
3.185064185672763504e-01
3.369692215755008546e-01
2.713391725213577521e-01
2.962552249043373664e-01
2.503092018430977950e-01
1.697870955013094374e-01
2.383960459252150721e-01
2.117706807901213184e-01
2.078705478536581608e-01
2.219467999491681054e-01
1.747168650872049644e-01
2.371647143935399216e-01
1.884083855272330466e-01
2.513639010440061883e-01
1.683291625598866137e-01
1.762289159528347693e-01
2.165149904464891695e-01
2.258991312927075279e-01
2.166198986253921599e-01
2.278468255424459521e-01
2.556726980422813211e-01
2.238509824237154833e-01
2.043430467773943160e-01
2.827282313136368352e-01
2.802257195402047540e-01
2.801255221353468605e-01
