1.233200139766327919e+00
1.245462245186401695e+00
1.267103878036271114e+00
1.195383799522528046e+00
1.204112865360277285e+00
1.103961579670496684e+00
1.069060372716340579e+00
9.956884490691805256e-01
1.001668513520107107e+00
8.957359891450685785e-01
8.203894759434160466e-01
7.353645416294137815e-01
6.596483026992925325e-01
5.830246346225914644e-01
5.925990080923804193e-01
4.485850078258384332e-01
4.351170631085397589e-01
4.266327067179795929e-01
3.093989522517774371e-01
3.298110573936605672e-01
2.682801028222799311e-01
2.699872486701526686e-01
2.434193561547506601e-01
1.642070388943497883e-01
2.380245957496802955e-01
1.794924380358746130e-01
1.856839789899139559e-01
1.990490577021181429e-01
2.061680120540923533e-01
2.073287427895787183e-01
2.179818853802075185e-01
1.216499114549345062e-01
2.124336646270333917e-01
2.012097295272515518e-01
1.877092728993158266e-01
2.159889587217820872e-01
2.397917262033846530e-01
1.901205026379911012e-01
2.628260096976740012e-01
2.595575050654442273e-01
2.406795264786677491e-01
1.972591447406687182e-01
3.029168321783597406e-01
2.510279268910746708e-01
2.510634351392843078e-01
2.540124298768378641e-01
2.710257873087749125e-01
2.859414787595443430e-01
2.608893467580192804e-01
2.276832468227380224e-01
2.991384896900288193e-01
2.465454628234587109e-01
2.435559361826274416e-01
2.742529823654680232e-01
2.647163376336202911e-01
2.917716121676571794e-01
2.992021251628024237e-01
2.694650377580234957e-01
2.884090409558404677e-01
2.711453684217868254e-01
3.093712564201814286e-01
3.014600454829887144e-01
3.083852183979755024e-01
2.781649263833168573e-01
2.939915642752535807e-01
3.008170537932364219e-01
3.069792341873497366e-01
3.031239395638186673e-01
2.780096562910679969e-01
2.453940400764154373e-01
2.928658611813638180e-01
2.890558169638331454e-01
2.399311814442912916e-01
2.955213226219860490e-01
2.717699868794414275e-01
2.599594792573561852e-01
2.667614159356292425e-01
2.846197306625940504e-01
2.995829250881008599e-01
2.471795074424733007e-01
2.376702455232666267e-01
2.584532624314053728e-01
1.955133181794461994e-01
2.569484995995858778e-01
1.856819442199251213e-01
1.802349153206564414e-01
2.631127782811656934e-01
1.490011907460420115e-01
2.456006899004860022e-01
2.480221430639243940e-01
2.062219263894154164e-01
2.089817595193338151e-01
1.383432999124544760e-01
1.655438010949977501e-01
1.858247548353414713e-01
1.797212893671362721e-01
1.779685741575460223e-01
1.693339162698558331e-01
1.549787075456486307e-01
1.126265924847503347e-01
1.548362607264848478e-01
1.052357239294289815e-01
1.235414510102965102e-01
1.714784796530227917e-01
7.810311368609651472e-02
1.167214925047084240e-01
1.420156776410290700e-01
1.307549489888627237e-01
1.164969766336261259e-01
8.285820089161448354e-02
1.384665369600379947e-01
5.850580816263764583e-02
1.122176796451275493e-01
9.234705021119406221e-02
6.060448677690653818e-02
6.910427374458102956e-02
1.318076225521773170e-01
3.942870503183202452e-02
1.843652067890462834e-02
4.915710766063577375e-02
7.786618823932059397e-02
1.054919517037844479e-01
6.095205876346075635e-02
8.866932443864317809e-03
5.823199572568883708e-02
7.879298870011303135e-02
6.058697857957751759e-02
6.374430405176947922e-02
-9.168242005715303289e-03
4.885601263365381419e-03
3.938391711491973091e-02
7.575046211472015456e-02
1.649509817837222642e-02
4.483747673200619288e-02
4.228341288892434324e-02
4.695277552780201258e-03
1.264651804035352677e-02
3.280973565949896198e-02
2.150126193050034412e-02
5.606150763443286389e-02
1.786243114537013066e-02
5.620682654972139480e-02
1.791434900004774261e-02
2.872254871023482981e-02
5.130165791108753925e-02
2.345048926321744234e-02
1.330710192773460962e-02
2.350097308642299168e-02
5.192381624909793436e-02
3.468832790986097619e-02
-3.992233859989516298e-02
2.498049494247658875e-03
2.570656743400290267e-03
4.136599194678461378e-02
-3.366682737915425994e-02
3.225179935999232528e-02
4.306098238033436582e-02
4.327255145056421726e-02
2.194561278028409057e-02
-2.359640632467488106e-02
1.766065781888160463e-02
7.019481486115659863e-02
8.820421040193636777e-03
9.295675888383356233e-02
5.282654455599162385e-02
2.529270962912164716e-02
3.758360822720115818e-02
4.341432133116481656e-02
1.638765392082949107e-02
2.296059827829810551e-02
9.704672795781121852e-02
8.395342661069819801e-02
3.002901603914472778e-02
2.032567318312093405e-02
-1.605203989851993265e-03
1.135563809705692623e-01
8.242746303380152351e-02
9.209916728278660925e-02
4.157695031789258172e-02
4.293385213246701110e-02
3.705138509879814246e-02
-2.647210515729840272e-02
4.585768341944061743e-02
8.557355790443066379e-02
8.744039218158447535e-02
6.560289796987106570e-02
1.079064794800210642e-01
7.228342194326728420e-02
1.198231852485531213e-01
1.237420525465297155e-01
1.299763555516744995e-01
1.118976741348743642e-01
8.942962071288916570e-02
8.230507199939687824e-02
5.707691131647775473e-02
1.487891372397983913e-01
7.928798075698842429e-02
1.294262692928608571e-01
1.434351502110688403e-01
1.080172482527766431e-01
1.393466345054101829e-01
1.553031490360399502e-01
1.399434917852353799e-01
1.640720786275352561e-01
1.387338856956153721e-01
1.452401578852038910e-01
1.281021030849275044e-01
1.515852337298212171e-01
1.564355993590119676e-01
1.288757338526382301e-01
1.695728377929267283e-01
8.268281188891653255e-02
1.889504442056083866e-01
1.138035078894336638e-01
1.874911416055292379e-01
1.751036073767870405e-01
1.875190245359240893e-01
1.246667205814445956e-01
1.545712618033689978e-01
1.729355101664123151e-01
1.819559957471454104e-01
2.012535322394810033e-01
2.048718317703026870e-01
2.116802609089869780e-01
2.274767141331111853e-01
2.522887942561593544e-01
2.555643834466463926e-01
3.170887481449021217e-01
3.130277673286510631e-01
3.023356653122681315e-01
4.333959222946489609e-01
4.582091974441906412e-01
4.927823327112471063e-01
5.582795870502529345e-01
6.615617782552155601e-01
6.838809225044595319e-01
7.929546949750172491e-01
8.287655155252641181e-01
8.702875636715824426e-01
9.062451763649144176e-01
1.008873755111843629e+00
1.100805735255897755e+00
1.092719220583874051e+00
1.160929318839980962e+00
1.226724099018241088e+00
1.147878289877229951e+00
1.222399063577216172e+00
1.225211522042284118e+00
1.206136016765112728e+00
1.120321291967855792e+00
1.114471336144790881e+00
1.031295969859193029e+00
1.003004516682403757e+00
1.009964598697934646e+00
9.118611442129205269e-01
8.800196237154059853e-01
8.102091503271486861e-01
6.850475788555626666e-01
6.563532684980271092e-01
5.384601634463002107e-01
5.323444285796157249e-01
4.789706325379683438e-01
4.062976529553350979e-01
3.146211712753714251e-01
2.777212306749434201e-01
3.612321285257309444e-01
2.714105577861617435e-01
2.171951647822167597e-01
2.317972010919352455e-01
2.288456617394753201e-01
2.065382062331486690e-01
1.533297437997951651e-01
1.409777776006613248e-01
1.692556268685246335e-01
1.348340209240720400e-01
1.761482129445372524e-01
1.432979154213672168e-01
1.646616288944208473e-01
1.739004248102493377e-01
1.063331289195127149e-01
1.528201299162381954e-01
1.864657706287001226e-01
1.316880062035863663e-01
1.435344659657375455e-01
2.002328957149524524e-01
2.143196303758588828e-01
6.715209044144782036e-02
2.130605109999984814e-01
1.116068969969886415e-01
1.836346785625085631e-01
1.480315315650997665e-01
1.771347508393862069e-01
2.005295802027839136e-01
2.169697278969004439e-01
2.474271379985334141e-01
1.675044080935030322e-01
2.456743578414612994e-01
2.055751161437304741e-01
2.089194719301285808e-01
2.701077523018187709e-01
2.466160352925666766e-01
1.728794792935163527e-01
2.227567529081739828e-01
2.041775031706555832e-01
2.148105642114548908e-01
2.248814269667993859e-01
2.434258020816236767e-01
1.923001837360135691e-01
2.234631833512001620e-01
2.181535282739257564e-01
2.411212358632433272e-01
2.273326090699198110e-01
2.561046118488100598e-01
2.345067575911100877e-01
2.433554933119874697e-01
2.304868107791575860e-01
1.869958274104800144e-01
2.079700843109085207e-01
1.966286362124653464e-01
2.366980780302463949e-01
2.364842266266874438e-01
2.052683579995742968e-01
2.086536208092658884e-01
1.532787115597765981e-01
1.851450340155599006e-01
1.177684797820690438e-01
2.129264475888959507e-01
2.511836492836672652e-01
1.638360275892319917e-01
1.820794914550354915e-01
1.829923416048125362e-01
1.315301593654576995e-01
1.567387330870410600e-01
1.696870147032895626e-01
1.556267459684014809e-01
1.471877860244356073e-01
1.313073092134719455e-01
1.104801484231707764e-01
1.499862870894505817e-01
1.772520009722889367e-01
5.901479243746807213e-02
4.932783682710806250e-02
7.226166569736505729e-02
9.026687936226943099e-02
9.048348776828935014e-02
9.706772289079683425e-02
9.038987665173639496e-02
7.908681220340975371e-02
1.165192430329138329e-01
4.577149527409477003e-02
9.604625193453333876e-02
1.237595966963372096e-01
1.556864707274272994e-02
-3.221892702644765794e-03
5.653492690065520937e-02
6.618064146665844638e-02
4.378840401993883136e-02
-2.502635326168600044e-02
-1.568948387663170185e-02
1.596362290469606482e-02
4.009127779233997990e-02
1.352196042852214439e-02
2.722251844324884845e-02
2.316744331276741897e-02
4.245601606439546732e-02
-2.326806303146879140e-02
1.135859052986711720e-02
4.915258620439900278e-02
-2.031349007448357558e-02
-1.790855029859497738e-02
1.111870244069522451e-03
-3.545557020771981926e-02
-4.082226579172358594e-02
-1.835546603022607942e-02
-1.720780594136169656e-02
1.081293857691389276e-02
-4.038019412238901679e-02
-1.421804070172554002e-02
2.033445492922633657e-02
1.707522208676535980e-02
-2.286424479104269547e-02
-1.519786637803787269e-02
-4.924977933399608127e-02
-1.457728817930229598e-02
2.159165762655622378e-02
1.365794044658107109e-02
-2.692262836848305710e-02
-1.674304016063489498e-02
-4.998306575486120840e-02
-5.654255807069885620e-02
-4.024616980616319700e-02
-2.179961903443554741e-02
-8.805049906334860149e-03
-3.331764484099779267e-02
-1.814817366418923841e-02
-1.082550742951781109e-01
-2.686984086540001454e-02
-5.080470200972678207e-02
-6.986824329304090753e-02
-1.879674588441817076e-02
1.100027340006679011e-02
-3.274599965108566935e-02
-5.778582784106173209e-03
-4.445541183432270144e-02
3.000066450833589055e-02
-7.843659144260020644e-02
-3.364147483122341409e-02
-7.430594190923935083e-03
-3.014614922218179088e-02
1.294402741828490355e-02
-8.954507942981655699e-02
-2.956286549433692970e-02
-3.244522304087688047e-02
-2.687076995848523830e-02
-6.949799671698991821e-02
-2.904550608574438947e-02
-2.856807344086201295e-02
-9.122727180853627826e-03
1.872103768313141542e-02
-8.522336746660391649e-03
3.197128393361760301e-03
3.109247264284492607e-02
3.191775517717203997e-02
-7.224565814435929267e-02
2.642122796188628442e-02
2.960880616584803116e-02
1.542587629603561772e-03
-6.629980011521596772e-04
-1.695613249483486629e-02
-3.736323960578414455e-02
5.044018552463361282e-02
5.207724162819267477e-02
3.039024477241504540e-02
5.902106840166008311e-02
7.282035891867988386e-02
-7.341309911375742958e-03
5.844034779280658787e-02
4.809473712053716210e-02
7.272219603100113505e-02
6.966172295693066896e-02
9.139781615493866584e-02
2.493344179719550469e-02
1.158177661343467446e-01
6.450606148996325395e-02
7.981795981373972226e-02
3.447796084462387972e-02
8.734328481760891827e-02
9.283647154804039459e-02
9.364756537047924656e-02
7.633568424622924620e-02
6.389763709237875067e-02
1.214909231933481437e-01
5.159310748777728300e-02
1.289950948363186578e-01
1.565489345555998724e-01
1.727999845462233897e-01
7.413327353493714966e-02
1.245163384407646512e-01
8.993714667120800144e-02
1.435274293360563336e-01
1.186250337881558647e-01
9.830755948976843683e-02
8.037231455400523084e-02
9.777528653102762757e-02
9.062124012743241752e-02
1.132034258171268071e-01
1.192475281703908457e-01
1.080758855425131282e-01
1.138530773316232259e-01
1.630806674167666337e-01
1.794256295111119337e-01
1.517132541224637532e-01
1.961290185794766494e-01
1.979085168933721051e-01
3.329035966742394659e-01
2.623164210427127996e-01
3.391991939114354926e-01
3.912320832048880592e-01
4.092607043213306039e-01
4.594698542436072564e-01
5.371198467380410291e-01
5.831745497270269807e-01
6.808197695918668524e-01
7.169603072869257243e-01
8.140315305454881578e-01
8.133005468037682872e-01
9.134813203249859681e-01
9.828198096192545252e-01
1.076901082571346313e+00
1.035199238025893864e+00
1.155867167652282479e+00
1.169960413177671299e+00
1.110595278516431250e+00
1.183087376999715223e+00
1.130518925686152087e+00
1.155966886737043398e+00
1.127668672588449050e+00
1.092858511691134904e+00
1.003763689280446014e+00
9.860950822915032221e-01
9.509285317439618579e-01
8.310359802026578979e-01
7.674243435574769068e-01
7.253139298230267817e-01
5.507599184890846766e-01
5.406659772770833206e-01
5.371807856262145187e-01
4.522366568180861135e-01
3.863104285052716969e-01
3.146488980446904837e-01
2.990644343250765669e-01
2.430511406020397225e-01
1.725614737702474144e-01
2.351189951458830529e-01
1.510547314495099824e-01
1.440250040668236420e-01
8.296688665603532686e-02
1.082510866315334191e-01
1.454472078502712928e-01
1.368518483414702391e-01
1.056208903746731764e-01
8.396975711444390478e-02
1.029178013441512385e-01
1.180240467383820852e-01
5.968132796133462231e-02
1.146535439172250009e-01
1.333004152006157239e-01
1.121400596491346768e-01
1.173552378582709277e-01
1.003854949589447487e-01
1.354939333515873812e-01
1.793250531352849064e-01
1.778096964594010343e-01
1.228948422923427097e-01
1.334340282942020339e-01
1.900788704048352040e-01
1.713149366125304440e-01
1.749518563797227699e-01
1.075699412174895009e-01
1.932267431030069427e-01
1.611718309967819507e-01
1.802192705729407374e-01
1.554929867971748814e-01
2.293865690978806604e-01
1.536829837667759990e-01
2.443196291039917700e-01
1.891876278326461991e-01
1.856529199719555157e-01
1.662827505713768694e-01
1.789412994967268800e-01
1.901142554488107483e-01
2.015836987069787589e-01
2.147833847047555256e-01
1.931289808391294938e-01
2.160603805388829901e-01
2.356214429074413030e-01
2.318616739545027450e-01
2.185863978748179282e-01
2.142051353972770356e-01
1.665249937230346700e-01
2.034683396354513840e-01
1.632592441700135288e-01
2.246502877156937861e-01
2.008814698016489486e-01
2.239486053132828669e-01
2.229075318329917510e-01
1.982398861133393142e-01
1.618456039043129069e-01
1.117727155826781782e-01
1.920402046512965366e-01
1.672226947258685370e-01
1.925994662990301864e-01
1.856868175084628314e-01
1.786769900394489241e-01
1.639741581563133044e-01
1.024972378590666977e-01
1.857438093261827294e-01
1.055783023544459298e-01
1.192275204162001750e-01
1.240008641098807179e-01
1.296603735719394079e-01
1.146684126881103716e-01
1.026510363267197634e-01
1.384460911145959372e-01
6.944063457306605402e-02
9.196249507146250779e-02
3.649908320815708346e-02
6.348313321289304756e-02
4.255033113497853903e-02
1.065268064402908471e-01
8.521286667983132834e-02
5.049527994050503205e-02
-2.599173510846561341e-02
1.947356073466220694e-02
2.762912779196897983e-02
4.521586495096068664e-02
7.428789730589686890e-02
4.007279690221556001e-03
2.359931652560223747e-03
-1.157581191396806625e-02
3.471470976502567113e-02
-3.440240149005122788e-02
-2.612500176505549304e-02
3.724867946759576748e-02
6.522534868079621351e-02
1.793663376390562669e-02
3.249783854928675608e-03
7.478075793388108683e-02
-9.313166684260548722e-03
-1.219355532934478931e-02
-1.559325520925888137e-02
4.278739728895644689e-02
1.132787420032251025e-02
8.522536531706058349e-03
1.000207017162260681e-04
-2.564742870085897491e-02
-2.377842713647727868e-02
-4.504315738562389426e-02
-2.990227013837921596e-02
-1.134566249478650979e-02
-2.738798537812235298e-02
1.154487812291042637e-03
-1.674748060075933326e-02
-2.033309414962886780e-02
-5.337553339217293580e-02
-6.535714635103390124e-02
-6.348708515254516960e-02
1.885362443877110217e-03
-8.353588821254639973e-02
-2.691779179506401457e-02
-2.771853342225824926e-02
-5.470312247959872864e-02
-3.592520663231614508e-02
-3.031430548560064969e-02
-7.064127440900741517e-02
-6.013939609248931950e-02
-4.088327563448864582e-02
-4.029934806908111455e-02
-8.013430376516045284e-02
-3.759027083706947131e-02
-3.660282174655789950e-02
-1.044773025959876145e-02
-4.109654274810146252e-02
-5.250042551001775359e-02
-1.726246808546885725e-02
-6.683941760275625976e-03
-8.138388995021898775e-02
-5.525823489668285626e-02
-1.025776118056415942e-01
-6.751334772479218593e-02
6.442019175608000581e-03
-6.965915362943495004e-02
-2.271742345252613510e-02
-2.350946546884157343e-02
-5.233718287270872072e-02
-4.734161153528440580e-02
9.292542515412331727e-03
-2.811389787491361258e-03
3.750093806465022023e-02
-1.046263087853202267e-01
-1.017436534227719042e-02
-9.580342654266098268e-02
-2.342248772212044208e-02
-2.668596687026264860e-02
-5.203544072514518920e-02
-3.322970655756172370e-02
-2.132277920695176132e-02
3.695372845655922611e-03
-4.072204151699527347e-02
-2.519077359721478768e-02
1.595746548165151435e-02
2.554415302659965997e-02
8.662315503413037243e-02
1.666835735623147657e-02
3.468162380248795973e-02
1.314760434717539284e-02
6.626967458620387774e-02
6.429479354762707155e-04
3.113244212344290496e-02
4.527461841600695369e-02
5.705659458549880436e-02
7.518436662349703425e-02
4.571197571143809091e-02
8.330913311222271078e-02
1.877786840408023072e-02
7.340635011008524169e-02
1.377383805700751335e-02
6.807388511252049357e-02
1.541987063829162730e-01
9.133891685002279437e-02
7.303825353617260374e-02
1.065834561701682892e-01
9.328826514280968984e-02
6.428585206900824800e-02
4.574948821268308430e-02
1.034902422551944312e-01
1.005065987036631581e-01
1.009033750483871450e-01
1.356995736142675713e-01
1.537029277413130557e-01
1.355393546817790784e-01
1.047027651769434770e-01
1.195171350959511047e-01
1.493864978998558080e-01
1.430901199357784981e-01
1.342958852676225112e-01
1.027663146125852855e-01
1.508434902726069338e-01
1.608185242435776763e-01
1.462697446128616297e-01
2.118873914723652108e-01
1.489556429748397082e-01
1.650894310564755274e-01
1.557026782394739239e-01
1.404275289152149830e-01
1.193096173126486637e-01
1.446794319455526889e-01
1.615065562114114672e-01
1.683307562295848769e-01
2.205634358136362161e-01
2.584522939776414674e-01
3.282282723069678831e-01
2.956115885974678337e-01
4.030319192853891730e-01
4.339690330381805183e-01
4.917473705437870324e-01
5.365015871037889239e-01
6.648066235592260398e-01
6.439545612710001476e-01
7.180129037657776436e-01
8.059630434983573455e-01
8.809812047098064536e-01
9.400234712481111421e-01
9.918383569501962871e-01
1.063519272812857519e+00
1.113006862635407268e+00
1.132531264856369901e+00
1.217888076099101324e+00
1.194623886071903840e+00
1.180622326511068465e+00
1.222394917377647161e+00
1.109213207822464353e+00
1.110579722433735483e+00
1.102471702046724511e+00
1.028558288714663593e+00
1.035627848662717509e+00
9.760085927099187986e-01
9.385857572804002791e-01
8.059541740445389513e-01
7.724108012797152867e-01
7.258363332629702569e-01
6.256847964050653577e-01
5.862367831864826462e-01
4.929821589525258396e-01
4.789946732517572636e-01
3.650984322977055552e-01
2.949196848636858048e-01
2.889595484848262452e-01
2.618705302317420602e-01
2.469869349896525734e-01
2.216589486743755222e-01
1.656843575615384034e-01
1.400191657467826090e-01
2.055136313091308065e-01
1.426282675895483576e-01
1.253841845872653848e-01
1.445603517634831414e-01
1.032904714861750811e-01
1.100332609748996826e-01
1.557245459790278230e-01
1.031438041291067170e-01
9.620137745325485490e-02
1.286014659116108128e-01
1.507624625272578622e-01
1.883470664983446508e-01
1.617192626746895845e-01
1.715790713883764140e-01
1.301284803943375257e-01
1.711890847028950668e-01
1.367974667733382055e-01
2.026062549337204755e-01
1.832639989953986359e-01
1.829349913512451353e-01
2.041867133947722068e-01
1.787021217669794992e-01
1.831341803554492609e-01
1.732640297846218813e-01
2.591610629403160448e-01
2.026459063208591593e-01
2.035592906560726167e-01
2.372029393832556232e-01
2.198752884503703542e-01
1.527828813191295376e-01
2.857888761287155077e-01
2.131458044138049845e-01
2.045234079991046783e-01
2.267569312705170481e-01
2.178131774560413958e-01
2.197812066055697677e-01
2.392990292254388307e-01
1.808563521428874499e-01
2.592742871177120545e-01
2.661493041417293259e-01
1.868565072641220348e-01
2.509497865943698391e-01
2.110685033476847050e-01
2.228068134424185942e-01
2.454180531723419711e-01
2.595187090765213034e-01
2.418589379913605453e-01
1.883985820261034616e-01
2.298996287195632093e-01
2.403211310764944708e-01
1.998883717151266615e-01
1.949044198894027136e-01
2.151340075861811751e-01
2.312822491125002267e-01
1.936765274792464075e-01
2.143160528943542920e-01
1.655430477910117271e-01
2.075738498720043623e-01
1.407723480725530940e-01
2.005326639689290757e-01
2.133841972583680469e-01
1.775326709193266461e-01
1.947645728277689059e-01
1.808241616281192343e-01
1.275052783780132593e-01
1.286847810507959489e-01
1.485101220725510707e-01
1.501374514152908901e-01
1.263222586941028514e-01
1.083876947282131076e-01
5.450522399867740314e-02
1.856162788302803679e-01
1.817896792762403457e-01
1.005740687147324702e-01
7.802842312178646933e-02
1.602641030625940599e-01
4.845761921949846146e-02
1.383903973518152142e-01
1.222397329424730894e-01
8.831550607743045289e-02
1.363522724511105899e-01
7.062313779294765448e-02
1.115867643128993780e-01
7.494400331636488777e-02
4.210704805765690811e-02
1.361795248720423512e-01
5.004143146538501952e-02
5.493947812153222865e-02
8.886264363315153625e-02
9.843589648310460682e-02
1.855356105846022938e-02
9.835430538287762148e-02
5.207706618861826509e-02
4.688981855455968961e-02
4.188740555018888312e-02
4.391452986855972490e-02
-4.737317918031176689e-03
5.198483389522189774e-02
4.377654586856679492e-02
2.460786699184155588e-02
3.988739489015920986e-02
2.576325781021843522e-02
2.800199359475880750e-02
4.116413825547330513e-02
2.037063962073027909e-02
2.440506022034978281e-03
4.723251329127279435e-02
-8.984949584039059189e-03
5.370103921450555817e-02
1.082056074350904763e-02
4.646359876692000845e-02
6.246624387930713174e-02
1.676908586352131997e-02
4.400537557598625804e-02
3.611901789761144677e-02
2.213029247885648157e-02
3.423359427352720002e-02
7.329102089937376656e-03
6.462049937977172587e-02
1.759474853788847368e-02
-7.078096281383252503e-03
1.641000241827092303e-03
4.117706345228279441e-02
-1.310666139726845980e-02
7.128149656128131284e-02
5.377011317201503549e-02
-2.218802841324158531e-02
3.815885330040976603e-02
-1.379338301652771083e-02
-9.414291171837983058e-03
1.950464295186429831e-03
-5.747126354321089800e-03
3.887247478510037074e-02
2.538908630586615006e-02
3.122288667620378919e-02
1.949135478754169398e-02
4.523257143433890778e-03
5.804779519157789169e-03
5.576974643444900653e-02
1.343021791031338841e-02
6.718359887048587498e-02
7.798055957583652914e-03
2.992601666357342510e-02
3.965451852491225226e-02
6.780491791671783286e-02
6.355428667603849058e-02
4.597942042284154651e-02
4.144394260870474384e-02
1.455365076404877694e-02
3.882118133315645009e-02
1.154253231475350638e-01
2.190886143332155048e-02
3.707727125405319013e-02
1.594825396192965303e-02
3.861781963892781111e-02
2.932643322466589250e-02
3.198518173906086254e-02
8.253150430209199584e-02
9.898369977790209828e-02
9.200099859123538060e-02
5.523464221039155186e-02
3.992676541541996527e-02
3.374587621003798110e-02
6.323733795007208114e-02
7.378467259973596482e-02
9.558150306373433547e-02
1.220009103838825548e-01
1.072963839673763686e-01
1.711555930473714904e-01
1.974783728953270201e-01
1.296440886070481524e-01
7.985576933573293457e-02
1.254688258560440195e-01
1.376985337346609828e-01
1.702141747585488307e-01
1.132673219983102442e-01
1.081342607668701605e-01
1.679044785410275242e-01
1.465778404206978525e-01
1.487516204417106691e-01
1.415830024266745146e-01
1.578950872170880315e-01
1.777043818179677714e-01
1.010552798742593156e-01
1.747654227684740658e-01
1.957593933646181728e-01
1.891701463612098233e-01
2.394138421961411467e-01
1.633991410197911109e-01
1.740385644224445028e-01
2.154225055669171940e-01
1.794571920276651911e-01
2.240254018448546158e-01
2.050063254063358709e-01
1.873210092181937791e-01
1.863216594985948604e-01
1.847729618633645043e-01
1.977829995358480475e-01
1.827394369559922904e-01
2.404172870057076361e-01
2.926807762735367247e-01
1.996802665974178603e-01
3.122566936311877983e-01
3.114883096472687019e-01
3.677230856951940741e-01
3.560203177078257175e-01
4.106429495391588635e-01
5.016976451705006390e-01
5.149049491051121974e-01
5.984028853472309617e-01
6.172891632490234981e-01
6.934903577794930829e-01
7.814030737483073086e-01
8.459183844209949843e-01
9.258335114025738610e-01
9.561406339291099732e-01
1.028234738226910139e+00
1.114117813502315979e+00
1.178543516475387687e+00
1.152323204288308034e+00
1.246145891029611485e+00
1.210257845608959215e+00
1.251474460490448415e+00
1.254368712930415075e+00
1.220658168003471156e+00
1.208351838058441929e+00
1.128673737123380594e+00
1.162171799326594535e+00
1.082578095145634078e+00
1.033308761569457612e+00
9.557504361267852300e-01
9.293977770759677126e-01
8.456104364892914615e-01
7.374535492076342846e-01
7.012211943094497357e-01
6.082505908100095393e-01
5.777264847592571417e-01
5.393770268699473736e-01
4.710609258511261888e-01
4.297411755548602441e-01
4.051331519341985210e-01
3.109078590129504271e-01
2.896015085703854686e-01
2.210857625802363502e-01
2.407283420124999296e-01
2.150784792614390817e-01
2.383715176977772021e-01
2.213326546015169927e-01
2.442857042886661945e-01
1.785851452392585581e-01
2.020952818287679031e-01
2.108127767712384693e-01
2.572581639458061398e-01
2.027242948915882748e-01
1.903295839636819919e-01
1.984186206537423836e-01
2.120756550781933703e-01
2.432272897011098223e-01
1.934930565242186373e-01
1.893878397141933734e-01
2.939769859701904520e-01
1.862024158267314711e-01
2.503947583963944123e-01
2.419214835782607653e-01
2.437578174868773595e-01
2.018610881947355551e-01
3.244563313298764462e-01
2.528549529608831725e-01
2.363480389410233529e-01
2.160009940128631567e-01
1.994888812175425186e-01
2.846817029149645850e-01
2.419796048817113021e-01
2.624120533133703081e-01
2.555162575023469662e-01
2.926315815455561298e-01
2.908589931642110993e-01
3.041690215399864838e-01
3.074987176434045288e-01
2.642415619389825165e-01
2.469887103838273867e-01
2.843350211054904153e-01
3.054390727502698244e-01
2.940221117823026975e-01
2.352737247203159909e-01
2.933778097252162098e-01
2.616577671233640823e-01
2.920824503522933546e-01
3.198205053203427850e-01
2.152767110912054971e-01
3.342097704418204862e-01
2.562673471478318366e-01
3.159151365006988010e-01
3.094012340139185580e-01
2.730165541748286739e-01
2.933239798158633893e-01
2.560491710198549153e-01
2.224930761324229178e-01
3.053616476603549512e-01
2.474865464979260077e-01
3.185602050395697216e-01
2.873970705688234095e-01
2.317633234164225009e-01
2.707906213404059903e-01
2.648521799751943351e-01
2.964355880306114854e-01
2.257089785479411692e-01
2.289143610380989513e-01
2.442857333627504457e-01
2.271491369944294569e-01
1.801388173477138921e-01
2.474721528585836494e-01
2.601031023920528096e-01
2.118507426151148287e-01
1.641394343267551237e-01
1.939802533956262731e-01
1.651467614453304977e-01
1.797135256422993654e-01
1.881316892714315347e-01
1.973608966198744930e-01
2.149848520393895235e-01
1.868427786921719735e-01
1.315469324935979456e-01
1.790652184172271677e-01
1.454334665410828842e-01
1.442942752891501756e-01
1.446256900941919887e-01
1.447558928892585528e-01
1.668374303590658414e-01
1.472228327872018572e-01
9.271892229902367610e-02
7.929900819765606235e-02
1.400602104645401469e-01
1.330241423204877038e-01
1.511252960129509104e-01
1.068864949967178180e-01
1.149113886895195974e-01
1.176278873959731991e-01
5.358976107449070492e-02
4.889285950103124112e-02
1.164982861600794284e-01
1.027808455144339356e-01
1.295083787251893881e-01
1.419396250899949141e-01
7.525298492273878315e-02
7.144245026019704903e-02
3.918449224907805811e-02
9.339846359311626545e-02
1.419017010931714062e-02
4.501404141145735199e-02
8.167094544997781369e-02
5.103168790006964994e-02
6.786188224931791191e-02
6.164363900164433752e-02
3.315890331312351669e-02
3.293355739749523337e-03
8.510571333966718277e-02
5.768279961705052861e-02
7.219839258586675801e-02
5.932409731260225583e-02
5.793080670123722242e-02
6.433743148443114845e-02
5.294223983848050236e-02
4.790348680035434042e-02
2.732064878086172544e-02
1.314219271681258960e-01
8.669374234594795503e-02
1.008148172428729450e-01
9.381682633501722823e-02
4.709108914983738126e-02
4.979988334820652923e-02
5.518476274785686503e-02
4.408356631649691659e-02
8.132083815835747242e-02
3.062195063880753659e-02
2.313146383844229270e-02
1.642867823022088614e-02
4.585886309052862597e-02
4.176121747701031645e-02
3.777417580469440150e-02
5.935966584114704681e-02
2.247269974170363824e-02
8.041527335903754514e-02
2.603765158764233950e-02
2.467854725457535592e-02
4.157351583916227972e-02
5.788755306937449358e-02
8.911827488007370568e-02
6.246792169963564373e-02
1.811068283665744072e-02
8.256495004750513678e-02
8.382643824604474325e-02
5.435887184008780793e-02
7.904725991691605169e-02
1.192746336009094937e-01
5.279264641083158960e-02
1.101830429601206029e-01
1.221540631215376760e-01
9.245138928343019091e-02
5.346440558449278013e-02
1.328644090774934450e-01
1.246219139280214522e-01
1.172353522561323524e-01
1.030031633425115001e-01
1.432279825358921677e-01
8.706644792111087328e-02
1.424621194611865316e-01
1.113819976474652862e-01
7.511261823424794648e-02
9.971255642731363666e-02
1.464662264876100684e-01
1.455447827104053848e-01
1.567186316342793762e-01
1.369399264981269182e-01
1.587778734450706053e-01
1.756473831103990413e-01
2.320331877017411393e-01
1.537128783102068019e-01
2.003254356523356261e-01
1.929270705725309454e-01
1.809694113158511197e-01
1.418010921925047796e-01
2.258576957659858553e-01
1.946940241242983149e-01
1.722981725540890241e-01
1.660019887473051792e-01
2.025728805723586712e-01
1.685067155501748237e-01
1.811703935556926437e-01
1.817689081821471098e-01
2.018749890564075777e-01
2.192044255685432486e-01
1.921094883033165057e-01
1.955084958697132502e-01
2.052353469895508709e-01
1.795689042472786989e-01
1.844847638122983080e-01
1.883287578502381154e-01
2.115668999376698056e-01
2.522947254089159541e-01
1.685255472114637887e-01
2.159711959810789450e-01
2.061622207562325559e-01
2.139155887217099317e-01
2.124338900929129970e-01
2.719089871179529716e-01
1.784776318692070374e-01
2.342104442275564635e-01
3.219060910311415946e-01
3.494016738117136089e-01
3.972041411815910306e-01
3.885445441416704448e-01
4.339262195758193386e-01
4.089029378088682720e-01
5.153206352762144116e-01
5.872504847491734070e-01
6.153383173679332074e-01
6.902759222871324152e-01
7.956873401935464774e-01
8.695762095092202104e-01
9.006892024912106498e-01
9.576582297629331331e-01
1.044203396124048222e+00
1.069968173236150566e+00
1.165094445435950421e+00
1.163291325076492022e+00
1.238044055951689426e+00
1.241615767828915029e+00
1.239640188407537424e+00
1.273842252356831350e+00
1.244831872681293028e+00
1.268824792763160181e+00
1.180940665928451372e+00
1.179488845114759821e+00
1.104065213851422200e+00
1.107956477923550231e+00
1.033344102643053875e+00
9.461917421563252883e-01
8.799474279142547317e-01
8.625997307683561655e-01
7.667519995134086663e-01
6.547835274274800277e-01
6.416858560950811086e-01
5.366002188678237195e-01
5.022899416337476275e-01
3.838658521182828909e-01
4.255823571299965913e-01
3.406999322403166386e-01
3.195158296394925990e-01
2.540303290926829716e-01
2.761617017324207723e-01
2.522787671718095259e-01
1.954273446472714892e-01
2.217739728686975442e-01
2.031755192178863467e-01
2.409510140466298855e-01
1.784350639208737710e-01
2.114923367084170502e-01
1.520763071626097529e-01
1.989873170396467827e-01
2.087810798326197870e-01
2.125857652995602753e-01
1.997633146098957979e-01
2.587404679329392554e-01
1.997971825001368662e-01
2.291553812590907124e-01
2.095227672098608773e-01
1.982005230726203993e-01
1.921301132444599158e-01
2.047533788404697908e-01
2.547095735128977467e-01
2.807243233256669912e-01
2.631947505034932799e-01
2.392403272899126243e-01
2.344476922733929047e-01
2.620836334501078224e-01
2.296150404009459634e-01
2.908921306154952369e-01
2.788003500629171461e-01
2.418205552238993916e-01
3.185214432750689828e-01
2.403017099696089232e-01
2.805169361382016113e-01
3.062161032798323412e-01
3.052252905006161976e-01
2.661847413099092674e-01
2.740456338275059078e-01
2.589570316650630089e-01
2.951381848303434863e-01
3.138495361100887004e-01
2.323627236191971313e-01
3.064383401233702342e-01
2.748443938871600878e-01
2.863746642598623549e-01
2.565034895703329765e-01
2.688930707166602430e-01
3.459618980940920574e-01
2.745089193113260939e-01
2.825331924016350471e-01
2.533562296207130249e-01
3.559762586089001979e-01
2.899106236153005112e-01
2.724928296841208630e-01
2.977232437156435152e-01
2.775151949206942081e-01
2.582451296954190734e-01
2.559012763571916205e-01
2.097244585957541985e-01
2.409075421852804322e-01
2.325201429967124200e-01
2.529618399696431097e-01
2.324855013128685477e-01
2.547884243634018775e-01
2.324654194380073868e-01
1.993906811022695402e-01
2.643518726446372202e-01
2.030731406395740180e-01
2.262141582221785518e-01
1.651154406823130694e-01
2.223710588859853232e-01
1.449782348025997203e-01
2.469403400086524758e-01
2.041342188215260200e-01
1.718370663990302638e-01
1.902902729334124687e-01
1.299388848666375162e-01
1.567398120595167033e-01
1.800508010036827311e-01
1.698419352237866276e-01
1.474293383900401322e-01
1.522105204908642540e-01
1.703237397871401881e-01
1.548395085433951768e-01
7.212749653021216512e-02
1.236852496260279211e-01
1.200128666085990559e-01
7.757930175404173512e-02
7.917143958882649768e-02
1.516278623350328092e-01
8.091176192925189636e-02
8.608903624945665745e-02
7.102167010380888712e-02
1.037542740888852816e-01
9.620147496579482815e-02
1.425626949635056817e-01
6.502557291359134517e-02
9.366380385449322998e-02
1.830805504954481980e-02
2.944363347457915753e-02
1.091334345194913125e-01
9.965580554498754129e-02
7.725134257444168928e-02
9.527591007382008037e-02
2.686548074466374447e-02
1.064804833186529659e-01
2.372616880118657082e-02
6.247121549677723401e-02
1.339782606313938140e-01
2.253176529449205448e-02
8.771283027363135920e-02
7.460840611243582665e-02
2.805389289928037974e-02
1.052949757639757705e-01
1.385789668264375378e-02
3.880219407937146592e-02
5.791732118874477059e-02
3.464877475310199073e-02
1.296871184996211956e-01
-2.324575363377316684e-03
8.301136821798799081e-02
-3.427608366681797469e-02
-5.395238784026969159e-02
3.361606240358443187e-02
5.345138366381380068e-02
7.541577028372417613e-02
7.839978045601950218e-02
3.564624205292535319e-02
4.415816252484622284e-02
3.612041592646168114e-02
7.429867521537888986e-02
-8.786549432143627575e-03
8.157882602241414705e-03
5.368260763789754753e-02
5.955277314684907092e-02
6.839260185631643174e-02
2.603542943424293210e-02
1.342593003555478913e-02
4.979287708287279124e-02
-3.818715775468259355e-03
7.958005029370308903e-02
1.511871953057352704e-02
2.263322597959816634e-02
5.431908538664351194e-02
1.096289731491599702e-02
-6.245677262828354392e-04
6.967724647416330408e-02
5.184808270817322512e-03
4.580300992458768289e-02
4.033850343630741853e-02
-1.544533340731647775e-02
1.213978110226542756e-02
5.635279196558932308e-02
8.504333161596426549e-02
2.769926747276901455e-02
2.666532255378182073e-02
7.503571541518785915e-02
8.316847930350547424e-02
9.031681581168199413e-02
7.226235871597594396e-02
5.322023206761183900e-02
9.628636542130869502e-02
7.403470526683264552e-02
1.005823221003631224e-01
6.889984313757001322e-02
8.227250422028808963e-02
1.088193210366047436e-01
3.529236036502739204e-02
1.414572835889325586e-01
1.040948477817565665e-01
2.536848209050611772e-02
1.192705354326126510e-01
1.054382044977100336e-01
9.132979803106264227e-02
1.853965500862798099e-01
1.557123811135435743e-01
1.296533809666836901e-01
1.396407569734952614e-01
1.494355340608299609e-01
9.576612270293018148e-02
2.264322577285698690e-01
1.515896778489884689e-01
2.069165618801688256e-01
1.293327989006080869e-01
1.741857299855382457e-01
1.225748609249001780e-01
7.281665494519556914e-02
1.872827196220129553e-01
1.665970015665842463e-01
1.451752223246872697e-01
5.994100149233903829e-02
1.470197567826899698e-01
1.691897626349379846e-01
1.285037673128321123e-01
1.647365145362365835e-01
1.419610331589739038e-01
1.256193158280705102e-01
1.587336758747060483e-01
1.001636234475545006e-01
1.837793034244656620e-01
1.767287324859264375e-01
1.989121563295422890e-01
2.239708223839433077e-01
1.946846167371624747e-01
1.370448385927627577e-01
2.291197717835933567e-01
2.257729877116006478e-01
3.309671024155503294e-01
3.096118788976237601e-01
3.838446285744763209e-01
4.455248791554425325e-01
4.275240931706338343e-01
5.054224440319232681e-01
5.620462754481875267e-01
6.886373301728138108e-01
7.250239119547516875e-01
7.216514306984761484e-01
8.024915867712251183e-01
8.734156595595984340e-01
9.272548595737698518e-01
1.002609395945651682e+00
1.051300658493887985e+00
1.116493339499722515e+00
1.151883501277805699e+00
1.220444197276138398e+00
1.183103809774984638e+00
1.165011041737399333e+00
1.198123456255078212e+00
1.181109630421225409e+00
1.219428321079925048e+00
1.166157497530950105e+00
1.136138224298133714e+00
1.074561267503882256e+00
9.284884041424075196e-01
8.990822103440931912e-01
8.133146722739614809e-01
8.370881957004867591e-01
7.467663195507331375e-01
6.660729258496551619e-01
5.719024358767758054e-01
5.134351129896416177e-01
4.435692663094757404e-01
4.358504921029761059e-01
3.715554490159132528e-01
3.466570275853095295e-01
3.011302601657441236e-01
2.812776402590996816e-01
2.449158612354285225e-01
2.400287715403080779e-01
2.109514823250845661e-01
1.589428070437695073e-01
1.780352243535686385e-01
1.645590444438281008e-01
1.440036374505109518e-01
1.457629750930013735e-01
1.748134145491844205e-01
1.606097372466946949e-01
1.732443496751358836e-01
1.484040739520452734e-01
1.842914933150334722e-01
1.761571181215724202e-01
1.323370714001814996e-01
1.496571487074496443e-01
1.389878951764116910e-01
1.363101622845455663e-01
2.533714314519863176e-01
2.273364790049403894e-01
2.162579334217592519e-01
1.993021865122414915e-01
1.737390742665816390e-01
1.608218332018801211e-01
1.917219426358467982e-01
1.802155529679658474e-01
2.268958396999907201e-01
2.135295201553330802e-01
2.379629308423181211e-01
2.226589420134049979e-01
1.675763259492798751e-01
2.158172798698053119e-01
2.350843985785248391e-01
2.339392196532452672e-01
2.110467182458951041e-01
2.147290461302871767e-01
2.109659491974438250e-01
1.820449791652806737e-01
2.322324278050253155e-01
2.571691885377292985e-01
2.199390699126690940e-01
1.970932401069164785e-01
2.640470689064426391e-01
2.746854296077427260e-01
2.198986122629182360e-01
2.040115127757571312e-01
2.265644625587285854e-01
2.378282848656255166e-01
2.141452977743258379e-01
1.784979818019878373e-01
2.521301438249478055e-01
2.280412841355938247e-01
2.644662610637333877e-01
2.162640426159919693e-01
2.559335838828990517e-01
2.015283469191616328e-01
1.865457160421258864e-01
1.858275048999547541e-01
2.515404651765383859e-01
1.869926654679592848e-01
2.357175857198847424e-01
1.699309574866479933e-01
1.376036037216602503e-01
1.953577981374028383e-01
1.502863423047710034e-01
1.736813039714770190e-01
1.655615240070391347e-01
1.600072200459927707e-01
1.987093776883913088e-01
1.516069332913392298e-01
1.423787043294330867e-01
1.228804975935280097e-01
1.443834815899833757e-01
1.363513060803004384e-01
1.056651182253367793e-01
1.407352358310155205e-01
1.011257893901800209e-01
1.195078651855601970e-01
5.720956642112391688e-02
1.193536320188377242e-01
6.542531548909009953e-02
1.023274987119894563e-01
1.156726073554893153e-01
8.481949307913444480e-02
1.024648569883526428e-01
3.100391464673687286e-02
5.645036209052689546e-02
3.518394906072576378e-02
3.059264383325001335e-02
-1.008998711660179237e-03
4.478454017548690047e-02
6.674704090225917763e-02
7.279352453129073197e-02
-4.872291981936130445e-04
1.334592838591323535e-02
2.169728216429120393e-03
-3.103943788775632984e-03
9.172334448421456954e-03
1.568670775419735847e-02
3.538189107074447143e-03
-3.226892307153293726e-02
3.596412405780440025e-02
9.733411457076051460e-03
1.381490790799929508e-02
1.326945427323925064e-02
1.606088156352728294e-02
1.121168695449002717e-04
-3.144759809697522668e-02
3.715189156133269499e-02
9.087087866111356882e-03
-3.866407582165728996e-02
-3.981058541494902209e-02
4.490270644569799297e-02
-2.107044836898381082e-02
-3.784333607416371509e-02
-3.466906001441767693e-02
-6.391244567403881610e-03
-3.527784625965491028e-02
-1.802720390303762937e-02
4.630489998376668276e-02
-7.098865267745216312e-02
-3.684461011062301061e-02
-2.357266434131433108e-02
-7.901383116820032138e-02
-1.120081233038607016e-02
-4.090249191563699593e-04
-6.941174525134830020e-02
-3.062871919965923576e-02
-2.305615181331967245e-02
-1.160497366387824511e-02
5.099254200227062994e-02
-5.147488520116881572e-02
-1.320212302425255446e-02
-3.316121594123217636e-02
-3.821645793856270901e-02
-2.863775748409733146e-02
-1.656777269783650530e-02
-2.827746090930259235e-02
-1.988508683621163786e-02
-3.003720526423789283e-02
-5.510841640300741251e-02
-1.493242653774394524e-03
5.400529329555182889e-03
5.017289233703349505e-03
-3.078334845392896590e-03
-4.533777582514531002e-02
-4.927628411891227245e-02
8.344221768292719998e-03
-5.356851812520115746e-02
-3.615649761466688955e-02
5.080036789404591968e-02
3.829629406086762500e-03
-4.277090457734535056e-03
-6.210120723260863229e-02
-2.398869811828167192e-02
2.408750887881921932e-02
-4.246181468849198615e-02
1.731593555708122595e-02
-3.286682352096988863e-02
-6.600341442792388713e-03
-3.141829568161091241e-02
2.244768822438486522e-02
-2.748498153640480113e-02
2.507810909369276309e-02
5.091547591874356904e-02
4.199680095903545601e-02
5.426420200980347497e-02
5.146443634443009091e-02
4.636261855096030643e-02
5.144584660792611563e-02
6.668594649903515637e-02
2.949829232288429109e-02
5.466897667798318455e-02
1.317769800771717570e-01
8.939296267917640204e-02
1.162822656144570366e-01
9.281197145019851047e-02
6.424876048876407286e-02
8.046092238964837329e-02
4.049057419384208961e-02
1.368972738459667549e-01
1.251606667244663795e-01
7.554979486536625433e-02
1.256152925231389106e-01
1.246624848600179220e-01
1.081701996802179877e-01
1.212600429053675155e-01
1.249052719267066403e-01
1.198975680047511538e-01
1.132130513039304037e-01
1.113780233213239046e-01
9.178615951585888943e-02
1.360136171588021137e-01
1.682306006699153811e-01
7.541723359893320877e-02
1.106466337017655288e-01
9.118372223503223850e-02
1.292943695292277928e-01
1.286689947416722601e-01
1.244322387685156822e-01
1.089574113230780406e-01
1.210137126641781524e-01
1.235151135591245619e-01
1.089012265655056322e-01
2.151808395032495103e-01
2.201184247209870271e-01
2.649304148395937863e-01
2.466900849304818344e-01
3.078304289457138299e-01
3.088736582238978956e-01
3.636010482751589890e-01
4.936130731963198626e-01
4.770852582503491424e-01
5.769975076000932734e-01
6.197858267815649080e-01
6.364696676747412241e-01
7.415573304516789310e-01
8.240664191699739183e-01
8.995435100123130301e-01
8.869783436224705220e-01
9.692004620049138319e-01
1.058739374663394628e+00
1.064720441872634815e+00
1.164029542746485291e+00
1.150075075128969226e+00
1.180235019854479095e+00
1.206994494040836807e+00
1.122855301718592935e+00
1.153285546936826833e+00
1.113103532952270935e+00
1.074080903479512017e+00
1.014042447144099635e+00
9.700762604786584697e-01
8.164811386012058581e-01
8.765211277102457066e-01
7.316244743696246333e-01
7.565695783670798313e-01
6.070167518858188282e-01
5.397050238435185943e-01
5.185579820868621015e-01
4.552871692615423904e-01
4.059148217830998995e-01
3.534750245814550773e-01
2.938827188132905333e-01
2.478921241725606794e-01
2.424850304586792515e-01
1.754407868937848114e-01
1.757212748894388110e-01
1.016647461825672394e-01
1.444767811965189663e-01
1.277143014642740937e-01
1.145456432564492533e-01
1.606535631203891701e-01
1.502824335246096266e-01
1.307417285857965239e-01
1.295242342890185472e-01
1.066368465237997332e-01
1.144253023576327077e-01
1.207237508890774691e-01
1.289795822642139378e-01
1.166764752291925694e-01
1.347727319616086883e-01
1.246678569455711705e-01
1.397604600928982199e-01
1.591188741156207287e-01
1.164270267840535472e-01
1.446003673537973322e-01
1.473908185637324564e-01
1.189844344354140382e-01
1.955913389549990000e-01
1.333070998661588513e-01
2.051371479174777523e-01
1.258255521806639632e-01
1.249770705620979194e-01
1.633924627477541525e-01
1.888233800103134574e-01
1.918710565105677390e-01
2.218977926917949095e-01
1.627936245429133788e-01
2.162292379957420074e-01
1.410133578819302291e-01
1.638297692547471263e-01
1.867595101717004491e-01
1.632081105652631869e-01
2.139286538991561903e-01
1.790146388184262471e-01
2.293948195043284122e-01
2.258443975456066455e-01
1.797401515973269248e-01
1.893615001618022542e-01
1.969027450961907955e-01
2.395949200652830458e-01
1.697979320675569448e-01
1.256976817590748363e-01
1.827758914531908696e-01
1.662039883092237547e-01
1.458977997372379598e-01
1.885450623693652183e-01
1.520125157865247212e-01
1.946760392917929738e-01
1.455592295610967368e-01
2.671267527672085973e-01
2.069839993884689811e-01
1.497002639982362437e-01
1.448500616943913244e-01
1.584077400948692427e-01
1.821521316130486068e-01
1.424439562568676765e-01
1.167015157281336979e-01
1.035648810028090283e-01
1.419668122842659697e-01
1.161241470497427625e-01
1.416019766845091343e-01
6.448812049182145456e-02
1.375615755636238058e-01
1.088171352972060746e-01
6.083590264770277062e-02
1.193289592126520055e-01
1.184031907786275151e-01
7.422612562913155632e-02
1.128103057875586568e-01
4.745043896271380207e-02
1.462098435034495103e-02
7.345635674614726940e-02
4.707651265483897562e-02
3.149538697822293343e-02
8.124880977482958067e-02
6.590382151107106179e-02
1.040796197406820833e-01
6.288398475160789092e-02
6.255228928921541254e-02
1.546729505113482450e-02
-2.674055942939245617e-02
9.271190585852745469e-02
4.417879508533406607e-02
7.365071700040141944e-02
-1.365700179284137089e-02
4.836710133092708697e-02
2.333985798397147232e-02
4.316933887428185679e-02
2.546329103261589510e-02
-1.941440498964566719e-03
1.035435355965389631e-02
-1.153830082427132614e-02
2.141833927513328573e-02
-3.019952323783083731e-02
-2.990414820761318898e-02
-1.603897575959813138e-02
4.967172773742249692e-03
-1.404173234017332822e-02
-2.749725199177728910e-02
1.207633873808898473e-02
-3.779903043772472881e-03
-3.693597293954996308e-02
-5.604512841184214333e-02
-3.156180373576990966e-02
-4.642202299166239832e-02
-5.221189043424906417e-02
-7.800738733538953307e-03
2.375455792573533120e-03
-3.429489053820096445e-02
-3.367580211249639882e-02
-5.661180663907778438e-02
-6.715147270357574305e-02
-1.214299775672714188e-02
-7.482275059239618109e-02
-5.591236631569790339e-02
-5.742836220131341401e-02
-2.565097971003607938e-02
-4.471814440069997454e-02
-5.624294191818338118e-02
1.327625352415942594e-03
9.225153676325772989e-03
-2.816075500260575501e-02
-3.564103876396382264e-02
-5.509000113373430096e-02
-4.051068774518348098e-02
-7.600712180757740466e-02
-1.002728130353377350e-02
-4.339476751996033943e-02
-5.975060691801806212e-02
-4.866760348688461274e-02
-1.704558392829763624e-02
-4.535350656575411199e-02
-6.060969520965410473e-02
-9.890127392264352890e-02
-3.768468424928971688e-02
-2.309617910860849860e-02
-4.797617441897562146e-02
-5.586450063818877709e-02
-6.445393193937784537e-02
-4.049519727369978173e-02
-6.101529177866983622e-02
-5.944213492956848532e-02
-3.827126130657458603e-02
3.468778710719089275e-02
5.046700879823901725e-02
1.814418419749040667e-02
4.713816495690567598e-03
-7.000835963048943067e-02
7.132360045248924141e-02
5.882403913943456963e-03
-3.560679971353579443e-02
8.138978900872576028e-02
1.434847926180732314e-03
3.316566012524428675e-02
2.604878067131527475e-03
3.311536404571446823e-02
4.085677152350108976e-02
5.037479377715912282e-02
6.748858966596499309e-02
3.815130577334235884e-02
4.437333903254615797e-02
4.128556779771728330e-02
1.608263332096389331e-02
2.496444263211226172e-02
4.755549571257382951e-02
9.933478446418791963e-02
8.020512094040443962e-02
6.782445595944773531e-02
6.714351606420354557e-02
4.435053113110224571e-02
5.654772018387002608e-02
9.213094883888704734e-02
9.150590552084095219e-02
1.181518306610626762e-01
9.160843891344289114e-02
1.181596574438276981e-01
5.794949241372968768e-02
7.785960236394418033e-02
1.164016914090453825e-01
1.108251614537270613e-01
1.339984645994546919e-01
1.483697244540617688e-01
1.506914542645769739e-01
1.623291282423414694e-01
1.698607789851790673e-01
1.048789599856738419e-01
1.848063266899440948e-01
2.027714768880055918e-01
7.743803772272400687e-02
9.956783002935731819e-02
1.292450876873683652e-01
1.273272566317910637e-01
7.267925174103626040e-02
9.898684252513159643e-02
1.398224634158302115e-01
1.346629406862001888e-01
1.701490860844233621e-01
2.234213381479000504e-01
1.440023991737340858e-01
2.711739533435583716e-01
2.828440680182958689e-01
2.039304179580819221e-01
2.541349966201713051e-01
3.172287635978376374e-01
3.453629709352067367e-01
4.411858982350414515e-01
4.974046574065461579e-01
5.416239306741036375e-01
6.113282543831018989e-01
6.616271895661439695e-01
7.447774480017685939e-01
8.579098259054783737e-01
7.955443360109354378e-01
9.317533711401938534e-01
1.005083765080858615e+00
1.042394556123243943e+00
1.101765285040544162e+00
1.166833427041627402e+00
1.144215352268256103e+00
1.244277380864605043e+00
1.140684423335579289e+00
1.199753797091228202e+00
1.165444704656074304e+00
1.147621414574440113e+00
1.126671387022834425e+00
1.040371518566882481e+00
1.039432922214322152e+00
1.006868778705824807e+00
8.755318236341920191e-01
8.022601419437573878e-01
7.878250027078093076e-01
7.113994496893377706e-01
5.683590676589035384e-01
5.678214593280540567e-01
5.139136130901500454e-01
4.326794270536516440e-01
4.278281506032524106e-01
2.883435684023018530e-01
2.309425098493241291e-01
2.916965381433664350e-01
2.048285350600710375e-01
2.025528434638208530e-01
1.485387447206768796e-01
1.911934330748391031e-01
1.626698299756822452e-01
1.385719861377958662e-01
9.846195974249104255e-02
1.260766131450601346e-01
1.383220216688811899e-01
1.114806649932709171e-01
1.130148452574365470e-01
1.298801210995553235e-01
1.522912539971182921e-01
1.479932322801634226e-01
1.742798038135812133e-01
1.404192687731809497e-01
1.778923518797982106e-01
1.171145040126637393e-01
1.687438970497192603e-01
1.719147327423924398e-01
2.370732779768994769e-01
1.509995258888055247e-01
1.397759634056022771e-01
1.573192961202311557e-01
1.659801449939916074e-01
2.016333874962670247e-01
1.557708937872879784e-01
2.080452213416612572e-01
2.026330550341504388e-01
2.327796581406009757e-01
2.274684029178749012e-01
2.370763005739852103e-01
2.300843846345854427e-01
2.532783168404660334e-01
1.761860392463313885e-01
1.796516801822763965e-01
2.248673319973521212e-01
2.299226996717577132e-01
1.983182754124648561e-01
2.472243668243995218e-01
1.923947771902833892e-01
2.243186319699927156e-01
2.323782989205329386e-01
2.503608234268219213e-01
2.180804496669267456e-01
2.693966891059775826e-01
2.827876789180444606e-01
2.777019591099592066e-01
2.847089579800726189e-01
2.611046772870821431e-01
2.459653877684284118e-01
2.031689762135980848e-01
2.066109421672938651e-01
2.496488785204774574e-01
1.651781319572028506e-01
2.555120211325852542e-01
1.946062878548120989e-01
1.935555425232186322e-01
2.294501870904979701e-01
2.110021943857668947e-01
1.862511138361959140e-01
1.676084575477278515e-01
1.458368653599186882e-01
1.217963508833055514e-01
2.262830467836912940e-01
1.714819597140054830e-01
1.468130606859382736e-01
1.914379454486326015e-01
1.408623968752731881e-01
1.367419808479687082e-01
1.904738551261099810e-01
1.722482764689080570e-01
1.506971307645114111e-01
1.237685035775815123e-01
1.425997442418286965e-01
1.482183830045716300e-01
1.337825902152609825e-01
1.577453336203690493e-01
8.659114310371875123e-02
1.042591912082621725e-01
1.241439689835158594e-01
8.576011361110508213e-02
1.271075514232279935e-01
1.344721888124329745e-01
9.172730954437818829e-02
9.728669980394459571e-02
7.549659621772131235e-02
6.904214944617222127e-02
1.124955164268424401e-01
4.519809400862965371e-02
9.149004700104357291e-02
4.842502188953003162e-02
3.449059859251703275e-02
8.686383783332174424e-02
7.440742430834704213e-02
3.093108204771071942e-02
4.262131163851679005e-02
4.119764063425278983e-02
4.937221585499272647e-02
2.514479874827686007e-02
8.955339468366457778e-02
1.944505001339014855e-03
-1.241034869105191174e-02
2.753779251914091272e-02
-3.048185885521709909e-02
4.042024209667637383e-03
6.668625442013942015e-03
2.452485009664177526e-02
1.666553994041601594e-02
2.828107491458214592e-02
-3.490693172960288460e-03
7.361211078734255543e-03
3.496879640206412149e-02
-5.149593858418808484e-02
2.826985168202758580e-02
-4.954772831194557969e-02
1.433098429940992714e-02
2.890755859477631834e-02
2.191154381328284592e-02
-6.486174954801852965e-03
1.933815906911431209e-02
-1.706213266911569756e-02
5.231036768780433083e-02
3.549458107235263504e-02
-1.814447617239511173e-02
5.146482246451515585e-02
1.589241629932853367e-02
-2.387807572579192864e-02
4.505999389970008484e-02
5.942426759229989947e-02
2.594916624828095576e-03
2.146373664240804752e-02
1.037651972442654724e-02
2.850874468267060660e-02
3.540449984455247556e-02
4.165161128058335327e-02
-4.277458721030597683e-02
-2.206795842648141479e-03
4.306840338266075541e-02
-5.972534152724837814e-03
2.635364857135957459e-02
-1.048262912875913555e-02
3.853039740911819860e-02
2.061991904586757407e-02
3.904156470514982824e-02
3.432753908144169086e-02
-1.798576467732766054e-02
8.885400534014453733e-02
-1.124657837182402309e-02
1.046863579776560749e-01
-3.238978787020435623e-02
3.691643488485667202e-02
-4.732092411100161100e-03
8.875694938244041432e-02
1.281118237789346560e-02
1.352390939605345281e-02
5.069883930487228962e-02
9.605039065272233390e-02
9.376373558507022921e-02
5.389052578445018005e-02
5.490766758452939045e-02
8.426442992367975948e-02
7.110363357074249435e-02
7.963157681686722222e-02
7.743457658733587934e-02
1.045724677441006029e-01
1.044410656562664991e-01
1.412769360784565387e-01
8.129414119198599686e-02
8.580862712293323147e-02
1.072036720572353274e-01
1.086910883534135813e-01
1.453728372223092591e-01
9.250017410912013405e-02
1.668145436887663591e-01
1.246250247475567396e-01
1.728992982098637721e-01
2.175284082507227545e-01
1.763216562946560151e-01
1.679912583178028163e-01
1.861939766944469832e-01
1.471140429289390372e-01
1.667737671458925930e-01
1.413657427342912554e-01
1.456183866997322329e-01
1.751660295101158393e-01
1.705102312539103770e-01
1.820003476214431537e-01
1.742125495658016221e-01
1.625751817112896513e-01
1.993864939630777544e-01
1.535973546063434669e-01
1.799907220942653652e-01
2.071995192193346047e-01
1.944578705107583017e-01
1.729444643052256703e-01
1.209780348766776731e-01
1.663256212975040282e-01
2.428030405637376932e-01
1.753294462300755419e-01
1.878197251126245138e-01
2.001325566291770330e-01
2.172182164748224231e-01
1.968164026751366702e-01
2.544657453875879272e-01
2.628789221748850657e-01
2.219160192468252468e-01
2.247280730228526369e-01
3.172437312586844360e-01
3.344067054329478705e-01
4.226057209767523637e-01
4.498826480547170048e-01
5.280010514978286107e-01
5.857829057616941171e-01
6.025061725783981137e-01
6.863278296968604586e-01
7.473926678968534354e-01
8.596572813476330843e-01
8.936275059966900525e-01
1.001715014126836722e+00
1.065156007562236384e+00
1.078566185166077052e+00
1.114914475171734365e+00
1.148442393041914977e+00
1.228792414700899727e+00
1.227046487691636489e+00
1.219850196001855069e+00
1.269022672743855606e+00
1.258681937114268123e+00
1.180914801158728933e+00
1.188053957751207923e+00
1.153342767919235401e+00
1.137032867805632064e+00
1.024557339304639880e+00
9.677725644012360462e-01
9.221750585528847299e-01
8.728879588046941640e-01
7.787325520117257538e-01
7.061944381240148338e-01
6.173785346385357586e-01
5.624262405819310251e-01
5.095656550393725670e-01
4.815951778819829721e-01
4.255938606574671823e-01
3.483118471405212691e-01
3.566757917245804710e-01
2.935460472099096219e-01
2.664295079540175970e-01
2.712762820222898719e-01
2.564998033204897165e-01
2.254744477976755590e-01
2.600814137991718233e-01
1.395439485200392626e-01
2.191997069502277518e-01
1.568840520712875275e-01
1.848216935076750778e-01
1.860289942722787027e-01
1.849883080858245599e-01
1.615484703851817194e-01
1.510553615627183432e-01
1.376094571717703663e-01
1.929905770505016271e-01
2.075335667886426538e-01
2.257913092728794091e-01
2.474259429000704724e-01
2.424985593046121990e-01
2.516658284767686604e-01
1.967305049231059810e-01
2.645563239135603206e-01
2.472636615933122006e-01
2.015679356537142808e-01
2.770606748750459314e-01
2.227280549144448063e-01
2.222141744297136401e-01
3.035052364072926556e-01
2.681617376751018189e-01
2.332609703322698624e-01
2.517653397469780674e-01
3.027835942455830431e-01
2.379394824900951944e-01
2.723993796853542704e-01
2.748277457017236358e-01
3.629619548853927347e-01
2.394972253071321611e-01
2.424162455303582042e-01
2.693025124912211132e-01
2.682520109147117360e-01
2.893681532449561833e-01
2.747614339744732237e-01
3.146249034338938766e-01
2.918896872367963691e-01
2.600444822001068967e-01
2.813603660919551386e-01
2.795965900375114721e-01
3.209542914729762164e-01
3.112752668783875798e-01
3.051371861108147510e-01
2.600689335145187631e-01
2.891718901160196253e-01
2.428910420308678375e-01
2.944325364813304979e-01
3.085363833380241338e-01
2.064170880417832976e-01
2.632670245177975987e-01
2.598057064970603069e-01
2.861029194486965355e-01
2.374160546478952805e-01
2.330448765059574545e-01
2.519616942862779041e-01
2.611659218263823745e-01
2.447539797646396398e-01
2.605417907065155081e-01
2.502025251000901118e-01
2.093606597127058710e-01
2.208552830442616077e-01
2.318383027458880696e-01
1.867506131692636129e-01
1.852501883631012813e-01
1.569649545769259413e-01
2.312283492112428840e-01
2.559446043081180511e-01
1.656887764282760356e-01
1.983830195614289527e-01
2.137255635241069041e-01
1.364188480121031610e-01
1.771217157749306048e-01
2.017996024185815807e-01
1.494595177255019225e-01
1.504553119209515732e-01
1.898366162951861946e-01
1.313110283509333343e-01
1.224970811770634688e-01
1.299877071589785049e-01
1.860872194485418685e-01
1.514425510273372522e-01
1.398197579853590888e-01
1.357209720764527561e-01
8.281727413612323396e-02
1.297105413707652644e-01
9.679526443428268512e-02
1.005691755085633549e-01
9.584986723974800449e-02
1.285631771581750293e-01
1.523257129816497080e-01
6.726790521771165710e-02
1.241653390420680847e-01
8.509726066624405394e-02
1.109097066216227501e-01
9.484024123852635713e-02
6.520709989589969224e-02
6.264179189047228147e-02
7.317455515316359516e-02
8.849765083446081704e-02
9.086271622666536318e-02
1.634119237365475041e-01
8.912603041374583812e-02
3.238556016452881492e-02
1.076832434672240352e-01
8.654236539419134233e-02
6.257333431183642602e-02
3.307820515068723988e-02
5.691151034374851425e-02
9.942447204970086827e-02
7.835887947337333292e-02
1.032800401010363495e-01
1.009236838450719154e-01
6.728224877188115904e-02
-3.400942182784070372e-02
3.282432321769405970e-02
1.314414693959140013e-02
1.014749227034498491e-01
7.399649617769682441e-02
5.174595435813125754e-02
4.233350247719819964e-02
9.028048400075611157e-02
3.065689541331009793e-02
1.882387153294172444e-02
1.624046973328126253e-02
6.081888094546829271e-02
3.325888633697798857e-02
8.782075342661230244e-02
5.766811560026464945e-02
1.627747744100570965e-02
5.122055296715433137e-02
2.956037936936713531e-02
5.554802625227468066e-02
9.263981144995553363e-02
5.603359475519331667e-02
4.149599597691607661e-02
7.581915777607491080e-02
5.081492264469419928e-02
8.091959296397135959e-02
7.611429832403214524e-02
3.620620297407214222e-02
3.012121004860951121e-02
6.023604847187384592e-02
8.564833255972936765e-02
1.273908220495636734e-01
4.380460185422914432e-02
4.994848427828997572e-02
1.120103009247336023e-01
9.123294451568358943e-02
8.302562367339971772e-02
1.117231887519450489e-01
1.321279052137027399e-01
1.295238586169877304e-01
8.098017576435045939e-02
1.190377898474826585e-01
1.437497729371103317e-01
1.052311914204738658e-01
1.293343477158682975e-01
1.048471394470719686e-01
9.825612220364554616e-02
1.437678937161656345e-01
1.635799878010161523e-01
1.633625848461825458e-01
1.049310045858498630e-01
1.890298596270884035e-01
1.716417165483095086e-01
1.925258091893386481e-01
1.352432042404992651e-01
1.926922028418694977e-01
1.908115144938376806e-01
1.376729434653460871e-01
1.926771834854754395e-01
1.521239947742089593e-01
1.868758625803202122e-01
2.590545547505023749e-01
2.010257357765414532e-01
1.914540861039866204e-01
1.525661463108308746e-01
2.077159323426603366e-01
1.960782067698140785e-01
1.416198184008446437e-01
1.702000618077027794e-01
2.303579422038042890e-01
2.428605572969906867e-01
2.066030111165517436e-01
2.348502604830417506e-01
2.055960287691034616e-01
1.820128252931693946e-01
2.710057115965806007e-01
1.632268639850349978e-01
2.194321945344476221e-01
1.891221199805144249e-01
2.053479779575481112e-01
2.635785210072633666e-01
2.232880907866904852e-01
2.203767458894000386e-01
2.243904680649473626e-01
2.713194602897009977e-01
2.431942361930678476e-01
2.954831589621771393e-01
3.139961383410841966e-01
3.246449123312152851e-01
3.402501975150592495e-01
4.245038293397529472e-01
4.577943383749715212e-01
5.262601794175444381e-01
5.098690477925038600e-01
6.207722597666649467e-01
7.232932238774932854e-01
7.139834779769735906e-01
8.868896957798958480e-01
9.088462590193324697e-01
9.596674945778748134e-01
1.030224197996876478e+00
1.060009957113539070e+00
1.180738151268324598e+00
1.188599898786517839e+00
1.221518388563506363e+00
1.276043750069982607e+00
1.273337782009663188e+00
1.245919196729384115e+00
1.258574699675702790e+00
1.258755980504082217e+00
1.215024751187079977e+00
1.134618193668628594e+00
1.170123525151647081e+00
1.078676659962699569e+00
1.001875428414326530e+00
9.688125532948392848e-01
8.673013256693367090e-01
7.678321470398330462e-01
7.455954056753738568e-01
6.993461505928656452e-01
6.074206709282536920e-01
5.485418238785195744e-01
4.942436002462301525e-01
4.459860445338854618e-01
4.079433509446281914e-01
3.872763010978974574e-01
3.505282140777388755e-01
3.596326050806187280e-01
3.260348868466586558e-01
2.274222502250287103e-01
2.300008274144067777e-01
2.457395159138615059e-01
1.607589410092651883e-01
2.171214182725969000e-01
1.775233675220497520e-01
1.991034730258067764e-01
2.001786334229634368e-01
1.471680840029370718e-01
2.743223793567045599e-01
1.879048453608079816e-01
2.502618875766271511e-01
1.615588124513064883e-01
1.947751343115181888e-01
