1.378079810187154974e+00
1.299660706801571086e+00
1.259814075714081660e+00
1.212077376054815803e+00
1.160430971173908032e+00
1.213840399133014003e+00
1.077851105270266174e+00
1.000546639207169575e+00
9.711331018619205890e-01
8.944458169635309819e-01
8.208037514493413678e-01
8.085853852510963558e-01
7.070815621638111281e-01
6.598879301089944915e-01
6.396594145775962303e-01
4.887082118243875062e-01
4.662060017703345549e-01
3.696628153785593840e-01
4.152823406414031249e-01
3.261540330966818946e-01
2.084061548278843268e-01
2.344988724200647856e-01
2.974255272595391908e-01
1.804967418546622182e-01
2.185917909055617725e-01
2.260838662165137181e-01
2.207036405906364074e-01
2.755783837477862597e-01
1.934962961120110791e-01
1.657126545230261094e-01
1.684716984235704595e-01
2.310419328424424268e-01
1.245838415443789871e-01
2.081180222884979891e-01
2.537447862739107829e-01
2.109282996775836971e-01
2.517688057212734143e-01
1.522426912129781207e-01
2.590872542919884780e-01
2.313440677108569710e-01
2.133975690615167731e-01
2.182484786146505484e-01
2.905609374370088371e-01
2.175162479595720011e-01
2.231884265824444491e-01
2.990468715811225864e-01
2.634568432559907802e-01
2.730248894156536710e-01
2.307175315831021534e-01
2.335892771684214275e-01
3.208820626214333172e-01
2.810318765114604989e-01
2.728517942919346240e-01
2.661421409710782449e-01
2.735586540558524460e-01
2.565894838417464574e-01
2.936308360223287561e-01
2.633163394490822817e-01
2.718876512801835510e-01
2.993451578114311173e-01
3.284643396033540275e-01
3.234260713914294816e-01
2.669368830493243916e-01
2.799199625114212053e-01
2.349036515622357768e-01
3.037999376795743611e-01
3.061716924276357554e-01
2.828990282609494811e-01
3.191577099579776533e-01
2.612452943707503361e-01
2.798942722669154337e-01
2.398482230731959763e-01
2.680456336877919954e-01
2.549259081287981177e-01
2.843714371100344307e-01
2.516357310415553439e-01
2.953736343226893157e-01
2.048914175815669259e-01
2.690381079343561743e-01
1.652416596766508317e-01
2.404315264662195695e-01
2.749698376025672686e-01
2.317331922710487158e-01
2.668940978668529751e-01
1.956854498095412231e-01
2.261080751817280132e-01
1.911196474685852298e-01
2.550851546123463209e-01
1.801503145310666687e-01
1.711129507288403073e-01
2.333009397967570342e-01
1.523366911068194385e-01
1.599045661315275646e-01
1.960592657031728914e-01
1.809984568978502406e-01
1.479405706875326076e-01
1.603788258586767157e-01
2.123560442108401169e-01
1.231264934363389546e-01
1.484985910514332874e-01
1.346752260325609629e-01
1.685825781488884678e-01
9.672479461426525260e-02
1.085439228124808753e-01
1.141772648291611986e-01
9.901306290370388841e-02
1.280424400286621356e-01
1.316709279485766548e-01
1.190878425910376903e-01
4.924727670459159989e-02
8.822604058054030196e-02
8.688545526603570768e-02
5.614826646989887898e-02
6.031915714900368264e-02
1.364188570114377441e-01
1.040511431033161460e-01
4.020215213442269314e-02
9.292869757622834737e-02
8.777028608467493664e-02
4.393468701887921768e-02
7.935266120420744751e-02
4.802844272632947331e-02
4.829814276121478095e-03
4.357657636510182952e-02
2.229874855518258758e-02
3.418357048216304900e-02
6.590194958668539604e-02
6.396105075281918739e-02
5.826448438685145198e-02
5.439763671271730106e-02
1.172107158380725558e-02
1.839107303654662767e-02
7.565827731936976275e-02
9.301863740838972605e-02
3.816700999263025057e-02
4.633021541367501189e-02
1.000999801666924705e-01
2.268922893603697588e-02
3.968106772310856650e-02
1.418450916401117930e-02
-3.017993838488567532e-02
1.522880535375070038e-02
4.393640379393577711e-02
-1.493822055836476620e-02
4.732544952942463468e-02
-6.459131690975408735e-03
1.395148893213737050e-02
2.691793277029846942e-02
5.481701204842126182e-03
3.468428265024384866e-02
3.108009735205502846e-02
3.745290363238733267e-02
8.053540248499499454e-02
1.296517738193798258e-02
5.317895105817636858e-02
1.797102261868310097e-02
4.252209520178437674e-02
7.287833472340909946e-02
7.577809457464904086e-02
3.443852705491169675e-02
7.799679815607468703e-02
6.184156673779438174e-02
5.974141572196783878e-02
6.732817744168116680e-02
6.143053525874844073e-02
3.931408763508008331e-02
6.469768427859490245e-02
1.153759112171638818e-01
5.754464815508996550e-02
1.771569767056473677e-01
6.147687236006191269e-02
1.142683315735282534e-01
4.848556602818630129e-02
1.089678935512923275e-01
5.086559292801840632e-02
1.316812548220259171e-01
1.102332994584416248e-01
1.433968345920420551e-01
8.169456160479376949e-02
1.279021677295252568e-01
1.443925137091640332e-01
1.480497438127105769e-01
1.069965895435164571e-01
1.416746948067196810e-01
1.253144421416306498e-01
1.498283041158195161e-01
9.666457838667094626e-02
1.938782047513749607e-01
1.336541015700782598e-01
1.684864332361546702e-01
1.208568491944977813e-01
1.073175262159151017e-01
1.784777119133173773e-01
1.787029250764706756e-01
1.853775026252507951e-01
1.709111489216047775e-01
1.956829323133850718e-01
1.705724979786209516e-01
1.324736282329098125e-01
2.321568756161523361e-01
1.350350892047874063e-01
1.856692232095641104e-01
1.761554609102450319e-01
1.945630852772222141e-01
1.624228674810747897e-01
1.791311877465628921e-01
1.556847368211535798e-01
1.994129427116537456e-01
1.534769238282894799e-01
2.430142655724281120e-01
2.917964519087145603e-01
2.745474270276144213e-01
2.039065299328462200e-01
2.795035196175829073e-01
3.593835325457756524e-01
3.362002080543681770e-01
3.745310673613620467e-01
4.696964171035413749e-01
5.069145858940493632e-01
5.656114021217875099e-01
6.041492333433833295e-01
7.643435854361034787e-01
7.536387845616305814e-01
8.401465555536726804e-01
9.349492071342745403e-01
9.824204661470689048e-01
1.037784383996938509e+00
1.137514410015190158e+00
1.170329884982286073e+00
1.210317035665212648e+00
1.219372804542659949e+00
1.213212607333516102e+00
1.296048942418518646e+00
1.237302291725893344e+00
1.203672811895626582e+00
1.207950538729141376e+00
1.180573995100816509e+00
1.094598204303012245e+00
1.069579904780868285e+00
1.021830027293642917e+00
9.177845949522152047e-01
9.206292412711497564e-01
7.771692044105186215e-01
7.642871062665740345e-01
6.791978232925132142e-01
6.830468231958840564e-01
5.443038980776534475e-01
4.403737453080252551e-01
3.893156739543295330e-01
3.680006073710026526e-01
2.584430021679683387e-01
2.540543425165212033e-01
2.799781831706059099e-01
2.980154933547732865e-01
2.066784341738170383e-01
1.589814115778961923e-01
2.066608715006900965e-01
2.034260131370974056e-01
1.421850550397308899e-01
1.686545122661843865e-01
1.854077662575232821e-01
1.542842306009244713e-01
1.232796334570972763e-01
1.291425031674331148e-01
1.096162326615809368e-01
1.256133907754071188e-01
1.709431267436355706e-01
1.491616719575169225e-01
1.139763403634593691e-01
1.739588915435333616e-01
2.009826608059429309e-01
1.668597555218537531e-01
1.740118633260926695e-01
2.249060891328300560e-01
2.202724601818451533e-01
2.055757397210201676e-01
2.359799147506637385e-01
2.324356884064782691e-01
1.974948661564856489e-01
2.162773221992128070e-01
2.117871071101322944e-01
2.708216532088822404e-01
2.274838232468770205e-01
2.280962734922357682e-01
2.762836521020929914e-01
2.278072274847012524e-01
2.147989494697340740e-01
1.620097827186874895e-01
2.156820806776243715e-01
2.357827741028796498e-01
2.607488438000736819e-01
2.320021528646290798e-01
2.069926004038884770e-01
2.452105156974227207e-01
1.804374753400238562e-01
2.722171496106423616e-01
2.758393965098446254e-01
1.795709517692084534e-01
2.058401714728400889e-01
2.405267682695795550e-01
2.812742465910342271e-01
2.250740347270117347e-01
2.363120748956890060e-01
2.299180978258265895e-01
1.731872094940600237e-01
2.067634467574994694e-01
1.912055289009708114e-01
2.177818021766144141e-01
1.867827887071173698e-01
2.045959686194437355e-01
1.982126908998825543e-01
1.966659348676675911e-01
2.235913496438279580e-01
1.987859738694591760e-01
1.753719775795796187e-01
1.929841093404275898e-01
1.570767851707804141e-01
1.361702122413710470e-01
1.957002185468811328e-01
1.387177672048320876e-01
1.229889551044455881e-01
1.937434259750658028e-01
1.693283469177649936e-01
1.321894004318968641e-01
1.592263938317932392e-01
1.132302714292296869e-01
1.363494013089373014e-01
1.183098881042643491e-01
1.004983400148121847e-01
1.139796361804645414e-01
6.745368677014496051e-02
7.882103898825409960e-02
2.936124241019637260e-02
7.613237844463330295e-02
8.864921603215561441e-02
3.294060342504223637e-02
8.292028255484364119e-02
9.463129647454687765e-04
4.467680599506147071e-02
5.496009523554019893e-02
5.297157417893648412e-02
5.640339456830756326e-02
-4.378992807435234946e-03
4.638826487116749081e-02
5.797814788316328627e-02
2.045221218408294420e-02
2.305583475480804320e-02
-1.640661334793401538e-02
4.934732660961024808e-02
-1.779111998462874072e-02
4.957525218560712016e-02
8.010995461295075670e-02
-3.541750889744007397e-03
-1.444545646784154563e-02
5.517130726170847710e-04
3.353097955347293657e-02
-2.605136439734019940e-02
-6.534118748542222521e-02
3.086090361520234249e-02
-4.355461077616876175e-03
-1.377034793091740789e-02
-7.054000009632004770e-03
-3.499075085648996331e-02
-1.771221830203347294e-02
-5.529110579743513887e-03
-1.357005961015386730e-04
-1.497564514428393473e-02
-8.950317908601526651e-02
-2.785197470597207403e-02
-1.758540739970330599e-02
-1.586069428104553564e-02
-3.346981106113015164e-02
3.765998119352432366e-02
-3.503354729472262646e-02
-8.578888424909645455e-03
-3.610979375205478070e-02
-8.149566742783755091e-03
-6.665303540256722892e-02
2.317717766691570341e-02
-1.180005953530508661e-02
-3.732962178635932521e-02
-3.293337668943618901e-02
-4.230266244510869078e-02
-2.996637167424600484e-02
-1.890048642050500688e-02
-3.394642326454697101e-02
6.291664497434339143e-03
5.244018160550008995e-02
-1.925946383376805557e-02
-7.757210052880969542e-02
-1.901783347747781211e-02
-9.553998737873724972e-03
1.871219038735029427e-02
-2.266595501070857444e-02
-1.936001839281028050e-02
-1.717955991366506077e-02
-3.112169270046037661e-02
-4.269859850202777779e-02
1.676140478435522024e-02
-2.563135000219985554e-02
1.245561353808689875e-02
4.505238987208615153e-02
2.000158420179080909e-03
6.793472148344098516e-02
1.588984606009510164e-02
-3.560658306774135140e-03
3.393919301829405322e-02
6.107748889695497480e-02
7.922611851963609619e-02
7.096626513439988071e-02
1.168522768770212661e-01
7.406509646607184472e-02
5.655204708236828692e-02
7.486379903716960937e-02
4.142941074182016070e-02
1.093062101263712615e-01
4.622680950042534764e-02
6.007014505511999725e-02
9.016778707242675828e-02
6.862671561507829865e-02
1.109007155866482963e-01
1.107397314639449737e-01
1.258049207862338426e-01
1.230910508363493305e-01
1.139015451444587157e-01
1.058283264290637155e-01
1.301416300118329872e-01
1.096323459901624581e-01
1.519496086299982895e-01
1.369163233060373686e-01
1.019328184500061241e-01
1.457332309482065602e-01
1.553169372255977509e-01
1.741369948504317977e-01
1.453566859445509785e-01
8.067130264840380316e-02
8.627142270426435555e-02
8.694747306651690044e-02
1.536257492314915540e-01
2.065837681379165403e-01
1.505741724304051898e-01
1.529134968490869217e-01
1.820053884258409360e-01
2.030243801996025610e-01
2.471625989656986155e-01
2.194721171824268735e-01
2.836386200171087113e-01
3.325924240396880838e-01
3.591966834501622574e-01
3.536951044480277084e-01
3.982762082723456110e-01
4.724140272565272580e-01
6.103629801466755600e-01
6.910393123936584558e-01
6.798808459949857719e-01
8.075062934250487601e-01
7.919005453531048344e-01
9.024236530357107045e-01
9.966510755339309524e-01
1.070168286806795654e+00
1.077385173826768350e+00
1.138992956247007804e+00
1.175040553762333628e+00
1.161515830411575800e+00
1.246206095323578067e+00
1.221910710656185284e+00
1.181839584512324626e+00
1.182016200959991936e+00
1.184271906955381981e+00
1.084611859300431913e+00
1.023080158748569612e+00
9.659416534278710831e-01
1.007089634428407710e+00
8.935852932396377568e-01
7.670776048292198279e-01
7.285250015152056058e-01
6.621691850301558713e-01
5.877274367962110890e-01
5.034522222838034855e-01
4.173406987954366154e-01
3.807898200749234019e-01
3.357356235892444141e-01
3.300333223944010852e-01
2.699300226832814786e-01
2.465838613796444978e-01
1.664466480161230499e-01
1.679624778876055435e-01
1.869105432175222903e-01
1.009699013570602155e-01
1.774873252653015876e-01
1.209236151214880539e-01
1.304322764781136179e-01
4.967992082094428719e-02
1.262395994205023075e-01
7.785273229633990488e-02
1.068185621291058984e-01
7.035892402365807874e-02
1.389093480926223700e-01
8.023550418534114437e-02
1.296818767583061971e-01
1.303419848662667191e-01
1.318191931751155621e-01
1.226335196844700881e-01
1.490151768723954606e-01
1.352639755624544526e-01
1.335341050979488575e-01
1.681225326940807840e-01
2.118952633628717330e-01
1.537941217126865268e-01
1.189444718082943026e-01
1.546561672898259243e-01
1.859386063151525215e-01
1.599190115881003738e-01
1.309602889691099115e-01
1.851314380912275626e-01
1.746681095489405477e-01
1.647998529165404236e-01
1.946967495286136551e-01
2.158910231930986356e-01
1.787643257692296261e-01
2.176084573801635724e-01
1.982525771317489860e-01
1.663799583120867953e-01
1.396977257502296510e-01
2.056578948580653210e-01
1.977883948831555272e-01
1.785176779181738005e-01
1.823207605218168936e-01
1.649140268716845492e-01
2.075998928835942337e-01
1.673414672180382201e-01
1.897879614106102175e-01
1.825279033108871407e-01
1.503044138688759412e-01
2.119213776877654221e-01
1.864828555811814392e-01
2.609026861714136558e-01
1.610589613769417006e-01
2.378615466957347824e-01
1.829336788526450264e-01
1.639061345277763870e-01
1.451982062539995955e-01
1.312439252487604402e-01
1.482058376650192411e-01
1.414209262778231835e-01
1.469060552473974990e-01
1.333208754153415165e-01
1.777455591374998700e-01
1.139123633460627505e-01
1.194942136901473023e-01
1.294245151008850958e-01
1.075855671490494325e-01
1.556819448493492464e-01
9.474431428803650745e-02
1.077768781764610606e-01
1.005603622289148041e-01
9.580145475999943261e-02
1.663175738034621820e-01
1.346346397566069997e-01
1.069588810768891673e-01
9.542482671080526613e-02
1.370769082658279681e-01
7.143471007685767149e-02
6.290322429912874325e-02
6.480460943966984133e-02
5.829534492000415513e-02
6.655914898965092918e-02
5.485040258483619979e-02
-1.605950777193307366e-02
5.169805245198245275e-02
5.383632941223363833e-02
4.924856922201963083e-02
1.150794110226666805e-02
-1.433564422051873677e-02
5.786240286140240108e-02
9.672237584423495904e-03
2.814233726991050011e-03
-5.037252575968723112e-03
2.470738055041943326e-02
3.377185671984936355e-02
1.540046840439060483e-02
1.138286484520207448e-02
-1.355549858306544925e-02
-1.848564474558334059e-02
-1.946476677629359678e-02
1.416343661383254182e-03
-2.915318064769827772e-02
1.869969864584722363e-03
1.780870824631068661e-03
1.059422034304702276e-03
-3.307680442738294979e-02
-4.817728264434133212e-02
-2.356673875898627341e-02
-3.973552559661379380e-02
-4.541698958595063312e-02
-3.633543866989427662e-02
-1.152782454571606163e-02
-5.597717201440179785e-02
1.887110017480243818e-02
-1.668830268663742261e-02
-4.684882642732603880e-02
-1.219766891206768705e-02
-6.074865513860291250e-02
-2.986754848590038314e-02
-2.189106971480218877e-02
-1.556655271774115556e-02
-3.948628424719290847e-02
-6.757629011185051215e-02
-3.541552733006590736e-02
1.800682750931315024e-03
-5.464102785997666800e-02
-5.511723717974283121e-02
-4.049298570384555346e-02
-1.550060898238970683e-02
-6.447813746681568814e-02
-4.889802538946073918e-02
-5.982623561895406006e-02
1.309818371960105865e-02
-5.433471746773685385e-02
-2.103214684223962683e-02
-4.268321840322317207e-02
-9.075048084182274488e-03
1.013790237929255295e-02
-2.109353011106176318e-02
9.409666049443765612e-03
6.806523643420103742e-03
-3.552389477673167928e-04
2.196201685042185187e-02
6.632742242675088162e-02
3.954596525061539192e-02
-4.145616071056847790e-02
-3.125180968459328329e-02
1.131981402383971935e-02
-4.263568509393334677e-02
1.791592110469979182e-02
-1.876882791312352305e-02
3.599210136669804549e-02
4.727864532678428822e-02
3.578044254349922737e-02
3.448306760845234326e-02
2.833639954956602980e-02
5.703894202422903070e-02
2.244491694199963333e-02
3.620558364002664231e-02
8.048748350314821609e-02
6.168507869517706604e-02
6.240726113829268146e-02
1.091414765371519352e-01
8.309132450523486202e-02
7.391268354105701155e-02
1.118447942020509428e-01
6.788252145564739604e-02
2.100964673110029823e-03
1.415363618564625947e-01
6.736407915568598526e-02
1.548747566193293124e-01
8.995826662894923498e-02
5.166458212325054922e-02
8.138206475010167917e-02
1.214268344094565771e-01
1.576390452465635250e-01
1.382707069603495709e-01
1.421236670869895358e-01
7.408873817780872728e-02
1.369562401420835185e-01
1.057509006584995970e-01
1.663620617533224377e-01
1.288833429914373330e-01
1.290526224036089575e-01
7.910667381194536052e-02
1.444466188400112538e-01
1.135588211059704866e-01
1.609330114220247909e-01
1.462819745760015611e-01
1.513517144003424797e-01
1.997300589207453292e-01
2.111960279042411348e-01
1.954737877138778002e-01
3.099650923988410689e-01
2.949134413968795276e-01
3.689700191340342661e-01
3.870879538600313641e-01
4.170381762923900948e-01
4.952381267652239405e-01
5.799990327557210668e-01
7.017446764006921578e-01
7.284160752942896444e-01
7.519540988517717794e-01
7.931843777300833231e-01
9.086722277125103275e-01
9.756586058584497678e-01
1.065237817589082203e+00
1.130580186956956057e+00
1.157453959722223313e+00
1.205641282461185515e+00
1.199454104086851380e+00
1.248536028737153192e+00
1.237809639295335051e+00
1.282175722427030706e+00
1.211169821230956067e+00
1.169863607600003963e+00
1.159421145701920342e+00
1.133934353160227504e+00
1.056707865561387516e+00
9.831774651860732961e-01
9.020718891204804191e-01
8.075040952441195907e-01
7.984258185372743455e-01
7.278032367764512012e-01
5.599035712875790605e-01
5.312989352672681242e-01
5.157862264484143200e-01
4.212526579336697274e-01
4.000287909346528781e-01
3.060596349824433182e-01
2.687738485375489317e-01
2.228673629398796874e-01
2.228287822349821479e-01
2.001045324849419771e-01
1.424461710122086056e-01
1.306702546673297327e-01
1.353741554963535099e-01
1.279053306730531803e-01
1.079551372487255467e-01
1.443979428930431685e-01
1.111941880089661883e-01
1.276200470907890572e-01
1.357953134970414921e-01
9.820287903928501261e-02
1.433937832171868765e-01
1.355361715515265020e-01
1.370758869781115719e-01
1.133990658189365092e-01
1.701698850366912541e-01
9.829489584980746764e-02
1.480058978847224593e-01
1.314681694051375582e-01
1.489607910060788409e-01
1.240000018220050182e-01
1.495742691436095784e-01
1.422077354040673369e-01
1.350191032357889731e-01
2.001305223142583189e-01
1.669530416789862803e-01
1.862535773819691820e-01
2.071360174444547286e-01
2.085057999081967872e-01
1.991156405003587648e-01
1.861595782567312396e-01
1.980598756508691882e-01
2.183666840591484415e-01
2.468651974121406634e-01
1.479409477670785844e-01
2.315995735281712598e-01
1.859993216518260606e-01
2.077470353291348548e-01
2.181002655961780112e-01
2.222677787277460848e-01
2.074531243956184712e-01
2.613431198570284053e-01
2.440794403027449211e-01
2.133220563178469531e-01
2.740199431376206807e-01
2.047098120392273624e-01
2.018869570550012871e-01
2.270768608370639652e-01
2.051589354617294747e-01
2.327781343174080420e-01
2.099982172027863581e-01
2.266997971528241784e-01
1.874500962171771479e-01
2.659073134251886961e-01
1.939001396627059448e-01
2.487579681706251489e-01
1.620176722663283497e-01
2.530103380137449509e-01
1.916593714009172666e-01
1.845758054303517082e-01
1.118431580425140875e-01
1.438312436991051879e-01
1.503882148067448021e-01
1.412989889211245798e-01
1.890239593297736997e-01
1.524929856949656104e-01
1.610494858360644876e-01
1.622799882466886556e-01
5.584072971947603992e-02
1.378272644987989515e-01
2.037757642764550237e-01
1.692217030919375420e-01
1.464618354732551142e-01
1.315743067886244455e-01
1.653934686551340461e-01
1.357174319043210065e-01
1.085220179920360628e-01
1.193680815896694669e-01
1.283330140128965402e-01
1.372047947500669718e-01
5.283728004647387372e-02
9.446493089089452733e-02
1.153696943730339319e-01
6.452488403257203298e-02
7.207657027618112611e-02
1.231505289686001259e-01
7.698792302738226290e-02
4.365058463648814613e-02
1.970799163464057036e-02
5.551840541942897750e-02
3.779086812992983602e-02
8.993198903485200013e-02
2.675514592244780665e-02
7.267769904440216089e-02
4.223940491677975750e-02
2.633358210558732482e-02
2.866662245342000911e-02
7.243816573621456034e-02
5.602694650788371533e-02
3.670243597865893020e-02
9.628308957577004154e-03
4.793483155490198960e-02
2.744890520567452169e-02
9.456995382963965385e-03
-7.250714188482818880e-03
1.677618286990863877e-03
-1.498369821614052751e-02
-8.788056692470010839e-03
9.565394041591118723e-02
-4.150471695857175375e-02
3.910224314597815498e-02
2.645104729480464781e-02
-3.664952373671315211e-02
3.490666206217499234e-02
7.208425650831114251e-02
8.910494199307283925e-03
3.671260545721354018e-02
4.163176338950474661e-03
2.088656022024091771e-02
-4.792316403733067054e-02
8.573511765377652555e-03
9.010798920186999933e-03
-4.316430992324878091e-03
5.316954049665264387e-02
8.321850482644466487e-03
5.798242581508658393e-03
8.792593238797974040e-05
-9.311938653618679652e-04
8.811235213301458688e-03
5.750173938887380952e-03
2.890090815287887568e-02
3.381309770162020667e-02
6.261589206715197087e-02
7.391926619679073732e-03
-7.286051217965766949e-03
2.974923156686460485e-02
3.284179915653948068e-02
5.799168930876980044e-02
-9.010633097737454078e-03
3.314703417619109527e-02
7.312343075136301662e-02
6.835111758606793320e-02
8.052921726425936455e-02
3.810684270866094431e-02
-1.362375555400008667e-02
6.392021533537953215e-02
7.455861583320991248e-02
4.490966076967473075e-02
7.975128832428354797e-02
7.704142075841179105e-02
3.382905570852653976e-02
1.137389409102058380e-01
4.214259708220672446e-02
1.134655554192239985e-01
7.016739214464420837e-02
1.071360903939572590e-01
1.094460755088857706e-01
1.140586309190493308e-01
1.484752940747874617e-01
1.458017546538137865e-01
1.015396741018756988e-01
1.307298845756921790e-01
1.512498708921127810e-01
1.534008115589428622e-01
1.569437982532898568e-01
1.460303442205615754e-01
1.732099385774283906e-01
1.736687278068068385e-01
1.635165112925905939e-01
1.488082299195827296e-01
2.066552866161564528e-01
1.495900733750669676e-01
1.336554273198737319e-01
1.521312821683090954e-01
1.671983470917316195e-01
1.534936028798079832e-01
1.381480428213623934e-01
1.602114877389396452e-01
1.976117835528131972e-01
1.236239518841967255e-01
1.696208575785878858e-01
1.328206477006567132e-01
1.354647898700197250e-01
1.217452038673391690e-01
1.759526588904925803e-01
1.291078053194661956e-01
1.937730546910659546e-01
1.959820981950248231e-01
2.271468354758764130e-01
1.664874525791041060e-01
2.002072313984079033e-01
2.641081778563948990e-01
3.054751727884926771e-01
3.706049175825661957e-01
3.763629067302289855e-01
4.024214360719470251e-01
5.122157632403703253e-01
5.154908333362567818e-01
5.503435762605630721e-01
6.701811925501325318e-01
7.286585683925684842e-01
8.237137233207085796e-01
8.372489831784858394e-01
9.399840511094580409e-01
9.856106721714259500e-01
1.076819726036107427e+00
1.105906252679055290e+00
1.177902779484525153e+00
1.253830484261162059e+00
1.253050771179534006e+00
1.262289745575021493e+00
1.324152627751824296e+00
1.275485129965305608e+00
1.272670189778461802e+00
1.265809369612777902e+00
1.199284891549082799e+00
1.155750420308683024e+00
1.102028695367040623e+00
1.055172049627762565e+00
1.052958174850270767e+00
9.465963644811712374e-01
8.715560022919642824e-01
7.433509332332358666e-01
6.877193774250217606e-01
6.504385620583177374e-01
5.132615392259907150e-01
4.858784141553008640e-01
4.910631716561709714e-01
4.373733321094178672e-01
3.704132340665333700e-01
3.449624153074986599e-01
3.568301992417424739e-01
2.556303170446334594e-01
3.047539355041354314e-01
2.361074899466331922e-01
2.015977789556450961e-01
2.392722731733332164e-01
1.650600359583192234e-01
1.845525068860523754e-01
1.730991063854607492e-01
2.257413287572452854e-01
1.669883870604243481e-01
1.721919173946317161e-01
1.799808820651370711e-01
1.283691219007865314e-01
2.260061093934008780e-01
1.914868354767385317e-01
1.843610755324373296e-01
2.260488120517110400e-01
1.991449264244432582e-01
2.214631044416364436e-01
1.888066312907168698e-01
2.005462055839271340e-01
2.329045382907468931e-01
2.118258894733039133e-01
1.862046595486502865e-01
2.812017674644355925e-01
2.000289991937254097e-01
2.723534830939215445e-01
2.448358474903414295e-01
2.878656172623613729e-01
2.594259928180916996e-01
2.580562892868818459e-01
2.786095778863790784e-01
2.685020313865568165e-01
2.766894627942005913e-01
2.696761496274013847e-01
3.011192402853969941e-01
2.567862874398265105e-01
3.205398529047219225e-01
2.908200575949401734e-01
3.137398119359864901e-01
2.611988084628086293e-01
3.421310300964959250e-01
3.009782748130077068e-01
3.408318667344691910e-01
2.721020249668808511e-01
2.503559763522024140e-01
2.770261462733433211e-01
3.041851635024726552e-01
3.164887299054340297e-01
2.599408179558127530e-01
3.079603452928411089e-01
2.842010875017773608e-01
2.994679475318333672e-01
2.346297169240730007e-01
2.424014588284315042e-01
2.231902530769857562e-01
2.582935714384019255e-01
2.851107054538686292e-01
2.901475831017220619e-01
2.278696566627392284e-01
2.571686683500565840e-01
2.527569092357274116e-01
1.834838538732857793e-01
2.403175361962404943e-01
1.715873897650756208e-01
2.189919179598172894e-01
1.979339303866814170e-01
2.305138334919641929e-01
2.293633622087629942e-01
2.444750440089228649e-01
2.004465203155909869e-01
2.032563679634377674e-01
1.631426074546052374e-01
1.654139125035517521e-01
1.630403793031171555e-01
1.700005796969902006e-01
2.299867991511631016e-01
1.683636688803947234e-01
2.001519004842824134e-01
1.728049568016372106e-01
1.746369195056261536e-01
1.514708248739253804e-01
1.378932470782515685e-01
1.421327711023286922e-01
1.091662374446405320e-01
1.109662600481480799e-01
1.243061089444533196e-01
1.237897817207971041e-01
5.634625628301331152e-02
8.251644953995543319e-02
1.275841880146361684e-01
1.283053178657309334e-01
5.368779223019546493e-02
1.046805428964484724e-01
1.990717589190958425e-01
1.274969692625476103e-01
5.531676304854456216e-02
9.265042255599942322e-02
9.128855270200147976e-02
7.659838759123237251e-02
1.102386579971520175e-01
1.124055100527267814e-01
5.975415389374319486e-02
9.296625309595804576e-02
5.059893996500650082e-02
6.675215480394244838e-02
1.167529294815945473e-01
3.928386211827196439e-02
9.048684592609179678e-02
2.562448797785708138e-02
4.506629182699725678e-02
4.194002146424641309e-02
3.484293549958555891e-02
1.777167781533914304e-02
2.053540221881514083e-02
3.867760226137807733e-03
3.310894754816860741e-02
2.974541744208761274e-02
5.563106939110176730e-02
9.695959648701693578e-02
7.127494827857494553e-02
6.609079565391015598e-02
3.540063905595242782e-02
7.061468616178136204e-02
7.499607642946737318e-02
3.867173273066749906e-02
8.986872813873070243e-02
4.829567800605459593e-02
4.976817756430933215e-02
7.135207010087499246e-02
2.278647559644523049e-02
4.664178521048913811e-02
5.991465545303801404e-02
4.695710803089927360e-02
8.232513431186534725e-02
4.552160581672717865e-02
5.388218995064661399e-02
1.010931638839234759e-01
7.581690685470313107e-02
1.004571428868687721e-01
9.865619731879776699e-02
1.376494096085640328e-01
7.404179404173988344e-02
5.341615706506160771e-02
4.602364292969199355e-02
8.059861759743870702e-02
1.343872196474555358e-01
1.259816008215009775e-01
1.052973625180890355e-01
1.798781488357535929e-01
8.077530713751623903e-02
1.535989394846681844e-01
1.120604351052834624e-01
1.859304980901969051e-01
1.259145017634593078e-01
1.749525435656373307e-01
1.412506737824948677e-01
2.275833804745098776e-01
1.631582000978739344e-01
1.609032504084475790e-01
1.751601985057870681e-01
1.900378757076151282e-01
2.213770500729846102e-01
2.211900066705537460e-01
1.209999478231219838e-01
1.757966304684061565e-01
1.681374723798248205e-01
2.125963190707161887e-01
1.748452135686737186e-01
2.544861817026018436e-01
1.709619175847134354e-01
1.535356679988528761e-01
2.046833681846102482e-01
2.228845259392656375e-01
1.711079325865069167e-01
2.394315660481710906e-01
1.828078755909819941e-01
1.914008100340627017e-01
2.055493588505175606e-01
1.851276593423626382e-01
2.616291070851883283e-01
1.646108596434236460e-01
1.606393774909224137e-01
1.858245674963100447e-01
1.767293730334611179e-01
1.686754584777512556e-01
2.312312028472947867e-01
1.975753084037905338e-01
2.410037115215550307e-01
2.457189170139878198e-01
3.208228549460517831e-01
2.652565727575246779e-01
3.442124109844648117e-01
3.622820695130924418e-01
3.819802772835406146e-01
4.430672447860726781e-01
5.073214723080123889e-01
5.039403156483158730e-01
6.138944540705704167e-01
6.728449078038635234e-01
7.634340760228622846e-01
8.212170612378469903e-01
9.279210058030915587e-01
9.818943549587602071e-01
1.010053445185347343e+00
1.123482623376705014e+00
1.147023322209019591e+00
1.225782474846537573e+00
1.236311292304519194e+00
1.284886770971225056e+00
1.244985767720667269e+00
1.317381110601265615e+00
1.330534857103615964e+00
1.320501237828677787e+00
1.229231559618315206e+00
1.236808684251460289e+00
1.181688489256032648e+00
1.153094716125940167e+00
1.031535939217514519e+00
1.010063187615023672e+00
9.662952785525649180e-01
8.796034222921741419e-01
8.729743694576381774e-01
7.407453448984284705e-01
6.811461128699570766e-01
5.667026841285160987e-01
5.265371204593735088e-01
5.252875993979615465e-01
4.307477402218430340e-01
3.993415817440894577e-01
3.461242525797464387e-01
3.481692517143803456e-01
2.619893216802910985e-01
2.555825035904716880e-01
2.659524287025368250e-01
2.272324044536011556e-01
1.665045816805153511e-01
2.128912654165150964e-01
1.580272543051599310e-01
2.028537595598667587e-01
2.277144134704529033e-01
1.836585133840399897e-01
2.326554140201663179e-01
2.240013865664245707e-01
2.312626346070155714e-01
1.590473163589853078e-01
2.047404592009405555e-01
2.360962900323059777e-01
2.047120062053336687e-01
1.719947041926736531e-01
2.599867487181427572e-01
2.615938102329107839e-01
2.792852910189970173e-01
1.861892484502342127e-01
2.412452706874383124e-01
2.386167438809033703e-01
2.259710104582142443e-01
2.648867098952975008e-01
2.731143017455464062e-01
2.590167281403629174e-01
3.203561668554428810e-01
2.145428987626419870e-01
2.905917095527782990e-01
2.412542798063971594e-01
2.866907243803396010e-01
2.990426802512690108e-01
3.277802831896829416e-01
2.814730791291265577e-01
2.968183424711044460e-01
2.257823780600129449e-01
3.291592373997607734e-01
3.134361264259645230e-01
3.011915402457675528e-01
3.016905552689561065e-01
2.772110285238799099e-01
2.830544632555420659e-01
2.744874487936965202e-01
2.691002479329400177e-01
3.002693999697337301e-01
3.361034496846726505e-01
2.781116461835895781e-01
2.943251397533633851e-01
2.829603791304330374e-01
2.802713383309903827e-01
2.748707147315604948e-01
3.280283986820733411e-01
2.748687868400378487e-01
3.016773119426665040e-01
2.697455959972429596e-01
3.193105434986893143e-01
3.025844649995480529e-01
2.839068140228555026e-01
2.772480618033250632e-01
2.703258408122990453e-01
2.324397034316483812e-01
2.497877563168742210e-01
3.079507240756192421e-01
2.459059825026484181e-01
2.100296577123250685e-01
1.791647211655619798e-01
2.035368301548706182e-01
1.782497152139317642e-01
2.188098645881546289e-01
1.616405101241762399e-01
1.523784607148201131e-01
1.981235349470153173e-01
1.414569410072417377e-01
1.879606909272181492e-01
2.247302147155627039e-01
1.838406887256255895e-01
1.879105887577448841e-01
1.797157811652224935e-01
9.925236877583915041e-02
8.588371745138639879e-02
1.605655888660565966e-01
1.630792263534757702e-01
1.520520044150958094e-01
1.426089084991503109e-01
1.087041285512038435e-01
1.368987987995740341e-01
1.474336394991854760e-01
1.023165535197696208e-01
8.865455754385670462e-02
6.823976363356545893e-02
6.597016998501825658e-02
8.901985135434806184e-02
1.037893120098025701e-01
1.372053005142258864e-01
7.415234697211062209e-02
5.269409091516895349e-02
9.394470207553454189e-02
6.707759932016962856e-02
1.175555563386262714e-01
9.970613904098196700e-02
9.276020418758185171e-02
3.140249152739882366e-02
5.279857321054053088e-02
9.930864205244444021e-02
6.002412602079383597e-02
-1.422637912584796827e-03
1.134171802109653765e-01
5.237893576015603680e-02
6.957701395857196491e-02
7.126024501715103043e-02
5.364641704047357768e-02
9.187137855814536680e-02
5.019534291036466256e-02
4.452665099118417735e-02
1.268994018370762922e-01
3.682661570710774046e-03
5.668813785612381723e-02
6.268563239660547570e-02
6.915211864990283841e-02
1.089952245600637470e-01
5.440510611353682746e-02
1.699549390088396505e-02
5.753105145069893622e-02
4.870780815191763646e-02
8.575535879618875756e-02
7.202213734797752176e-02
4.529717724415931179e-02
3.816499560676694935e-02
6.511441768103309879e-02
6.225085989298596856e-02
7.357608175182817761e-03
1.414303123562444045e-02
7.197527728558905658e-02
3.007531068191945239e-02
1.963476968176454049e-02
7.277418161269630370e-02
2.913996058260514416e-02
5.944986498498940758e-02
9.248582694811934013e-02
3.811484356250918748e-02
9.144016494381941584e-02
1.028066182777261361e-01
5.130473309953136746e-02
1.306674912349680140e-01
6.540943825380779453e-02
1.018285745333205178e-01
6.466605206888594026e-02
7.572777540561820286e-02
1.476520267926537677e-01
1.598741537961620718e-01
1.408387896749618284e-01
1.023185623181312037e-01
9.005466678602885855e-02
7.087962560598007333e-02
1.356762982973359066e-01
8.108824907690162509e-02
1.274500588410518165e-01
1.571543188685818049e-01
1.180812568052259925e-01
1.475589956666025770e-01
1.398376414352064390e-01
1.720149890496469602e-01
1.606649804649266100e-01
1.434798226850444169e-01
1.257666522826812183e-01
2.279198837640933339e-01
1.525018385932969678e-01
1.470033068818128452e-01
2.113527323610464581e-01
1.728549328548498742e-01
2.068944274275816009e-01
1.791800182921691464e-01
1.872617768413141204e-01
1.946132591507873655e-01
1.789051276852341166e-01
1.499889295622377217e-01
1.665970776150093591e-01
1.151950033384543798e-01
2.002144645379819732e-01
1.583864282549523606e-01
1.446872400829167793e-01
2.028010423675289386e-01
1.861654099057426515e-01
2.250933596400028214e-01
1.335544129326560192e-01
1.948593264315573448e-01
1.986866422214525751e-01
2.540553293925913447e-01
2.538454405292348559e-01
3.185526122196163934e-01
3.473350577507310355e-01
3.480835018831353045e-01
3.721806756989347043e-01
3.634310320768266989e-01
4.698919705637296662e-01
5.684767435839438443e-01
6.013556144192844233e-01
6.076217930849558968e-01
6.811053764910331987e-01
8.115717667018839121e-01
7.939617436347220503e-01
9.057589145429338906e-01
9.467517933121132323e-01
1.018269279199756072e+00
1.105627036276091824e+00
1.166157113748758523e+00
1.181243636050729684e+00
1.259971234568768805e+00
1.283699053401193391e+00
1.301762339012195291e+00
1.290211572876761581e+00
1.322078481066333744e+00
1.228962322289622655e+00
1.234917908510603235e+00
1.179415959479988230e+00
1.151983944584393349e+00
1.118558944122305832e+00
9.835991957049039502e-01
9.556471568752429313e-01
8.690464659019021543e-01
8.499964221315637891e-01
7.902970277358769557e-01
6.389510555862166763e-01
6.247382986349326872e-01
6.438205535620920017e-01
4.917507845737251748e-01
4.311508279194179449e-01
3.965258114663937072e-01
3.692394737364811386e-01
3.468076465596527935e-01
3.203597258454172758e-01
2.170766681883322946e-01
2.603825959627028008e-01
2.057986347861896215e-01
1.883376497098489255e-01
1.752714498011059552e-01
1.979743551755074882e-01
1.550463681942294558e-01
2.082949532435256212e-01
1.616193690263931226e-01
1.906172600923776717e-01
1.843158801599503183e-01
1.393368797022058736e-01
1.451932526318882866e-01
1.954740597404186209e-01
1.381268997541661991e-01
1.873487166146485527e-01
1.730806690420739757e-01
1.790047843553763673e-01
2.070577627741490012e-01
2.395823479005886880e-01
2.204470693787142499e-01
1.675433577659787843e-01
2.140533717463566910e-01
2.419467269621696781e-01
2.106832547880961859e-01
2.211760980967839019e-01
2.113958183536832625e-01
2.646370202985808273e-01
2.042060471486228934e-01
2.250696164098305863e-01
2.087263714581020779e-01
2.666429824194749831e-01
2.143967466378506881e-01
2.251166182909279667e-01
2.398256287583251101e-01
2.546335783171875811e-01
2.407261107658904831e-01
2.536177994881106401e-01
1.967187683017345978e-01
2.752870000819038210e-01
2.648033552924789480e-01
2.572763521597465908e-01
1.801260163259680025e-01
2.554233073436632528e-01
2.330591997656043524e-01
2.332334489055722382e-01
2.505505251098207875e-01
2.855213316614705898e-01
3.029292826203035527e-01
2.816861111065880885e-01
2.392389597856927064e-01
2.891374718291940815e-01
2.820901402914520739e-01
2.367613005392613656e-01
1.756610641438967058e-01
2.021567439059340221e-01
1.586825553393378385e-01
2.059519419156824738e-01
2.181064895270387050e-01
1.603698158926338824e-01
2.339868985393706857e-01
2.081838094228604941e-01
1.430010659730639733e-01
1.996809510401480470e-01
1.347321735638462026e-01
2.457012040662482910e-01
1.396682389908279198e-01
1.446586181217991152e-01
1.542776688212244562e-01
1.658610284324431583e-01
1.447440085333901172e-01
1.045046814374666067e-01
1.489051108665229439e-01
1.236049432709404733e-01
1.177543507814433621e-01
1.783888185503223200e-01
1.132008466747431996e-01
1.100288435739083664e-01
1.195197519333047464e-01
1.248006452845712155e-01
1.131091780104620109e-01
2.909469347561825445e-02
8.604870558750522813e-02
7.878334455733157493e-02
4.980942753388706984e-02
4.284517166659779913e-02
1.101444164285781124e-01
7.643723872931910968e-02
5.218278843918093546e-02
7.432246654341903569e-02
9.690371349888270147e-02
7.220534371027645393e-02
9.364629473370404689e-02
5.729357314258658185e-02
6.649954205432180576e-02
3.580949177926252835e-02
7.552182251189512585e-02
8.709777541758667585e-02
3.921595525162525908e-02
-7.837550721847778151e-03
3.174147356113541513e-02
2.270717661060335513e-02
4.320098404207811660e-02
1.003856059752901951e-02
2.152006859534992197e-02
3.427276324382014239e-02
-5.336711365780285460e-03
2.196178649283377429e-02
1.771472580299918859e-02
-5.749803946547624861e-02
3.236864716623629248e-03
-3.821708940629407747e-02
4.618887138246127733e-02
-1.464603245463636655e-02
-1.148905690016530957e-02
2.518003947486364968e-02
-7.153682426229261704e-02
-3.581726072139357342e-02
3.711875053919468787e-02
-3.642460172632621881e-03
-4.661935396337194698e-02
-2.592927425533994926e-02
-4.335742266895663277e-02
-2.321715509671033739e-02
-1.462561217112600710e-02
4.955971255300291312e-02
-3.540963063785849962e-02
-4.404508089718749131e-02
-1.050929647105722578e-02
-1.317462500820924809e-04
-1.037383722064706172e-02
-1.047100924121285165e-03
5.054940999595830542e-02
-2.992691680427758683e-02
-1.140049648966648399e-03
4.896800396312808029e-02
6.033547700928290625e-02
2.086672578904659806e-02
-4.133986813899229867e-02
3.895703530444999396e-02
4.332068355218475497e-02
3.141132464185338036e-02
1.103153521630893460e-02
5.301033095839565584e-03
5.804688709061825436e-02
4.621002258422182707e-02
7.043160301349477015e-02
3.312086799363236911e-02
5.915712874725331805e-02
1.743317071989434336e-02
9.960283053963375766e-02
1.109242326977399884e-01
6.072346295948950756e-02
1.182101398284157029e-02
1.066013463222066915e-01
1.364362512548583095e-01
6.841846869953388532e-02
7.229494902747787832e-02
7.657016130620572514e-02
8.243575000738849468e-02
1.281322442931681904e-01
1.138765016791676021e-01
7.011703560399361324e-02
9.739064198122687754e-02
1.178673466607421949e-01
9.281890648183686865e-02
1.276564623784992303e-01
1.206007720933181121e-01
1.525257056869666616e-01
1.434275664337153477e-01
1.088462608201253567e-01
1.248478855278909033e-01
1.014907050397443750e-01
1.870189673166860467e-01
1.458568649224688540e-01
8.381624858526944000e-02
1.185541255981706343e-01
7.676646401526524000e-02
1.127130991166313823e-01
1.278505881170400871e-01
1.517763493457183754e-01
1.568927710598673753e-01
8.725683905295258946e-02
1.361753866494059551e-01
1.443748992779312901e-01
1.428323193452106787e-01
1.026866064083903768e-01
1.334230565206254437e-01
1.652652919959685662e-01
2.104630844858111083e-01
1.796631886230455888e-01
2.155120654498587640e-01
2.537111900970721590e-01
2.471061061378665435e-01
3.241568309693259042e-01
3.926837000148450385e-01
4.026491560049856311e-01
4.732081056719393830e-01
5.304608795869719673e-01
6.317724968996071278e-01
6.302784854751258825e-01
7.328275150918551750e-01
8.654530566622675725e-01
9.227231489397118569e-01
9.875163086395752909e-01
1.059931677427625951e+00
1.047271612954899789e+00
1.164478579765403365e+00
1.104744857961378779e+00
1.182396330727633060e+00
1.238487433639839930e+00
1.234626739306176280e+00
1.232900711057386856e+00
1.182819298499887095e+00
1.101363986273593110e+00
1.161508337921410172e+00
1.134594630996005771e+00
1.053644523933112032e+00
9.971295857252217010e-01
9.351081793589790525e-01
8.294638040053832206e-01
7.791317872131077182e-01
6.767942886467059882e-01
6.730561918295390189e-01
5.049569376854137204e-01
5.021887167391196893e-01
5.024308497224311276e-01
4.095116640099938921e-01
3.114823427834055858e-01
3.143232464626353195e-01
2.869807438010054113e-01
2.346089199710370554e-01
2.187330539693036757e-01
1.414311424111847904e-01
1.386853366053187320e-01
1.546683785672116618e-01
1.234688551416422420e-01
1.115835870903876259e-01
8.852836979561368169e-02
1.573503942677869083e-01
1.166393029935925418e-01
1.427020949047006215e-01
4.878321906765877014e-02
1.443660309915373308e-01
8.483743076437411101e-02
1.139012449540496436e-01
1.314548019987956951e-01
1.890480396460052503e-01
1.883497005454946860e-01
1.361162651670039248e-01
1.552369313947100649e-01
1.289727875593704998e-01
1.526364945044498544e-01
1.551187337949500311e-01
1.696895891236034071e-01
1.473696661520713658e-01
1.829917237133285857e-01
1.831335256237854314e-01
1.437225139691332143e-01
1.762368123992038293e-01
1.669614714786472887e-01
2.472339039383465997e-01
2.275065213894900684e-01
2.214202935150230422e-01
1.795553106525863418e-01
2.521194472282237142e-01
1.885961777809333495e-01
1.794521389568670133e-01
2.703411753763831915e-01
2.236965274198667586e-01
1.811731066855419847e-01
1.939360898897131980e-01
2.294528704177398182e-01
1.972605144591476067e-01
2.035978405602895946e-01
2.564099535000920471e-01
1.855732415972464466e-01
1.905664005444699938e-01
2.873003299791989651e-01
2.163356987302964274e-01
2.154860709473882530e-01
2.447208548071789502e-01
2.136141664467289258e-01
2.336340612442689424e-01
1.490736101300123018e-01
2.031649940099777563e-01
1.803669472699576948e-01
1.973917527156069385e-01
1.124327230855186599e-01
1.317447275811069740e-01
1.694335000638987621e-01
1.892106409677738466e-01
1.233629512693128344e-01
1.416554613298610099e-01
1.643708086073180363e-01
1.461095343390111378e-01
1.753174457055515778e-01
1.736650115139387052e-01
1.029198055330310668e-01
1.270010943747494070e-01
1.087921413189764097e-01
1.574485854707854127e-01
1.413361634219527374e-01
8.116131073172297428e-02
1.453670425562283985e-01
5.923428607608675206e-02
7.996801996022273595e-02
5.611931244957447246e-02
7.008235259664254146e-02
1.150509195922046202e-02
7.342592682248741398e-02
1.715364195701383349e-02
4.930521639757096120e-02
9.367958224097794329e-02
5.917483078470225227e-02
1.167258422887468561e-01
7.767179786226383054e-02
7.250162178517062517e-02
2.012750018366501331e-02
2.417575469900760249e-02
4.429777851676346134e-02
9.448671285209951642e-03
2.108413113140236717e-02
5.091399358310021162e-02
1.767563669925730635e-02
-3.348629309248968983e-02
2.744588307146983430e-02
-9.185591058722866742e-03
-1.536610201508266382e-02
7.031088488197034803e-02
-8.028268555802381412e-04
5.499173370045137843e-02
-3.295836621683732870e-02
-3.298983091846188070e-02
-2.945946201726503538e-02
-2.041057399118411178e-02
-2.850989283236770450e-02
-5.117674444466284445e-02
4.979450304222754475e-03
-2.200806165677283988e-02
-1.268962937610466912e-03
-1.840330183037999084e-02
4.726372517868696749e-02
-2.623430843316591765e-02
-2.430435253585952471e-03
5.990512932048254469e-03
-6.880766680503265509e-02
-6.621340725297925056e-02
-6.528200580608098380e-02
-4.705818680006128990e-02
-4.562994669298748446e-02
-2.980470564986394122e-02
1.066730532252190694e-02
-8.530729464407144080e-02
-8.375385190453796258e-02
-5.476250326755094378e-02
-6.646853600961574737e-02
-8.212209162891261072e-02
-4.661141780196122186e-02
-2.894682371550032565e-02
-3.744869564743405488e-02
-5.108745309037868165e-02
-3.297679009678218531e-02
-8.392364107068236989e-02
-9.673596258156121064e-03
-2.923005252542530338e-02
-1.674678659419104321e-02
-2.356178294614949889e-02
-7.183970647949200483e-02
-3.465349592709059123e-02
2.224019533841293389e-02
1.579089379972073437e-03
-1.981454801824666934e-02
1.387845948312437655e-02
2.305848865847721918e-02
3.748033097387529211e-02
2.315444774494954117e-02
4.726513927852062091e-02
8.481434910094183544e-03
3.864630643686356448e-02
-1.554894224226317789e-02
4.258155251146484438e-02
2.917793439561976176e-02
4.580284027193765040e-02
6.958784523174448011e-02
9.270476990137568873e-03
8.454624533938456810e-02
6.590250408614065081e-02
5.889080009616289024e-02
1.855218929495337787e-02
4.089468031314706653e-02
9.155104572291178355e-02
6.763106773122547211e-02
1.069301624833687292e-01
1.004229543780188749e-01
5.699211297177166069e-02
8.194110921932375169e-02
8.316716359990378171e-02
1.161605652264247890e-01
9.443734160488359564e-02
9.294677894425559805e-02
1.102659907491920915e-01
9.081645774326962961e-02
1.247114191475530154e-01
1.067532820365672541e-01
1.399094656837148454e-01
1.269188709612182608e-01
1.098812096466815214e-01
1.481274581050454897e-01
8.714284626867610517e-02
1.096638049068625193e-01
1.088551615066212369e-01
1.176761180045130806e-01
8.989520999216862873e-02
1.119161103939207702e-01
9.294791214493045017e-02
7.144129511367428020e-02
1.146594281490410094e-01
1.342471944148106444e-01
1.047421556446914148e-01
1.371762513843733100e-01
1.793778130982128793e-01
2.024959131152373470e-01
2.285901185915755196e-01
2.034676233190232941e-01
3.343553457002300111e-01
2.592512045293206002e-01
3.431047270912901959e-01
3.285887759359132909e-01
4.223732373402737106e-01
4.848830447271829658e-01
6.126651580176328826e-01
6.922359409063516544e-01
7.178509532833582396e-01
7.669438274873401351e-01
7.740064504680452817e-01
8.952738840689054012e-01
9.292984633751181223e-01
1.023617238024004283e+00
1.086870079495887653e+00
1.147503940672638834e+00
1.170510765485156979e+00
1.187089240315580829e+00
1.199037181034591004e+00
1.211447335083195576e+00
1.238156016074266175e+00
1.204192088114999670e+00
1.131331929298557526e+00
1.098915062159379286e+00
1.116652584019329097e+00
9.815808189333761202e-01
9.551896732248840172e-01
8.972781968900661598e-01
7.980980553625950380e-01
7.068234983992363052e-01
5.996335442286967465e-01
6.056667654060385875e-01
5.291123895283631473e-01
4.393340447166962370e-01
4.209249077919976489e-01
3.576044087277066574e-01
2.844861754198669268e-01
2.246675915281218794e-01
2.198488196786064219e-01
2.461909681363473879e-01
1.990194005035382241e-01
1.702565900078918948e-01
1.556943414133915571e-01
1.051188262177410460e-01
1.070694957558404464e-01
1.171157081548716006e-01
1.093302331371918401e-01
7.729507340065353005e-02
7.518192896673109304e-02
1.070197287535599034e-01
9.651475487347510596e-02
1.056611309297645074e-01
1.114235730204887476e-01
1.630661153140155473e-01
1.115899237990802817e-01
1.441899673286232975e-01
1.023756507180219599e-01
1.802779973147135839e-01
1.961470498275429408e-01
1.363642824737469339e-01
1.151395276396736944e-01
1.054486787743453002e-01
1.672861042834550560e-01
1.571398294335036028e-01
2.124703662818162586e-01
1.833264857948707083e-01
1.579702983315931786e-01
2.094625391603082143e-01
1.229713223774856201e-01
1.882155229970847443e-01
1.946375973067605569e-01
2.099585121748490102e-01
1.816058235053239489e-01
1.957260287036027835e-01
1.868723942222958456e-01
2.196137153416185817e-01
2.284373983359293259e-01
1.821843343660999870e-01
2.303999815144610053e-01
1.735624721915117463e-01
2.026465021974436509e-01
2.372739344752895219e-01
1.965487711510376934e-01
1.958414659751508136e-01
2.156648876096067813e-01
1.176972755958927419e-01
1.869091646479347779e-01
1.950613684921265745e-01
1.984898441479303888e-01
2.096956575964327718e-01
2.000683198965250709e-01
2.356520056951940945e-01
2.489307493815817174e-01
1.905311951448173668e-01
1.709604632869069496e-01
2.249820248498695663e-01
1.763578275243384008e-01
1.614551200608873860e-01
2.011000293011449003e-01
1.734508312692221998e-01
1.943658354697836710e-01
1.434275593170294127e-01
1.519248890645069627e-01
1.812721901099141886e-01
8.511810440703143632e-02
1.327787252392895190e-01
1.724721611958310030e-01
1.298703346692113292e-01
1.647461938809370863e-01
1.055785650415402288e-01
1.302611713859943288e-01
1.091740151912412582e-01
6.406833533247660584e-02
9.831823509258476312e-02
8.956444722676740189e-02
7.934838561070645113e-02
6.748847205760027945e-02
1.312256933989240093e-01
6.407658617494763065e-02
8.973456621183255322e-02
7.162251847309472619e-02
9.589993738004498613e-02
1.186249804089632848e-01
1.087519810351358363e-01
4.231139060927555789e-02
7.099863747941415060e-02
8.567522222472562232e-02
3.771729050439336095e-02
7.305545948460802352e-02
4.005788316375892555e-02
-2.794255393240404478e-03
9.192354411757484856e-02
-2.273346486707807784e-02
-1.523920860929794951e-02
8.927286337915053133e-03
4.775180069178587561e-02
3.510386534329976160e-02
7.174480590284608439e-02
4.271970929397034267e-02
1.525492723285738414e-02
4.430831562679579672e-02
-2.600440350234767273e-03
7.457519699324757084e-03
-1.266618373853599204e-02
3.246442274953308810e-02
-1.208673159014226131e-02
-4.261591740032574099e-02
-4.426000626003992466e-02
-3.908735226825857390e-02
7.594020049691285745e-03
-1.280415403669398627e-02
-8.135786385851027230e-03
2.024785515233811645e-03
4.827526796260556141e-03
-2.086126736677729188e-02
-1.466879761728987971e-02
-2.585281671951746019e-02
-1.498540504019325870e-03
-1.573156098353841251e-02
-3.917039460569494980e-02
-9.935964549270599744e-03
7.685843527756780480e-03
4.064528535754327598e-02
-4.714725133326490292e-02
-4.999377356763552022e-02
-5.364300027907360768e-02
-2.893650380209974310e-02
-1.468239883822558371e-02
-2.146734565361445995e-02
-4.989478190072917096e-02
3.774280330372845049e-02
-5.966637243570241389e-02
5.114803714920092975e-02
1.683987859934196751e-02
4.478826165537280746e-02
-2.562264855413488168e-02
-4.197872925755751633e-03
2.875527423864800147e-03
-1.675528781575577608e-03
2.206076876178746787e-02
2.554567261920618823e-02
-5.477814933825143201e-03
8.152678714845953967e-02
-5.088849432147046770e-03
4.689075132230016013e-02
4.361023461912619248e-02
4.853460034625126096e-02
-3.007272756720309054e-02
4.324515187741594102e-02
4.794904326882364759e-02
6.921195785828267166e-02
2.262668218756550345e-02
7.695668630638924368e-02
9.663243561655533720e-02
9.681340769689045223e-02
8.280426227010792561e-02
1.220442013205804976e-01
1.178941995474852428e-01
7.469615873506284254e-02
1.060606251410171064e-01
1.342779607180469847e-01
1.578429917738801980e-01
9.423341043740673939e-02
9.068779503419401034e-02
8.928920742301307834e-02
8.496809834303371833e-02
1.271966668912607457e-01
1.099180670152259676e-01
1.494623719474901524e-01
1.162426384077171609e-01
1.023260956633051943e-01
1.664100401362832438e-01
1.375026865951080590e-01
1.652589750712812333e-01
1.254993028278162115e-01
1.932428134626340555e-01
1.523953439118735376e-01
1.086852169099804810e-01
9.316411509744904063e-02
1.520089400065635088e-01
1.568493630044449361e-01
1.667593887369470118e-01
9.407786593102639150e-02
9.833393545522885193e-02
1.016945463682662476e-01
1.346007768223226042e-01
1.894925629425309177e-01
1.831694526453552796e-01
1.461371004578599919e-01
1.697224268524092916e-01
2.475581668882917141e-01
2.984710644199792817e-01
3.110198615520652354e-01
3.790474481224512249e-01
3.865188135957935978e-01
4.681225802585020634e-01
5.476302548493869882e-01
5.267173887393534759e-01
6.165546298058856012e-01
5.964470832435108116e-01
7.518081541005434687e-01
7.682907733216715052e-01
8.892324072105848298e-01
9.265195314183795050e-01
1.019738634025629809e+00
1.032312832883290676e+00
1.112591897195876367e+00
1.193602807715231195e+00
1.220273462541340947e+00
1.179754869010021245e+00
1.250802831206621279e+00
1.241843047512265041e+00
1.224740470721492835e+00
1.215479981977752200e+00
1.231162230298112892e+00
1.215869319886010214e+00
1.139267965318349951e+00
1.045902221008355726e+00
1.004291997879600551e+00
9.375130396426789581e-01
8.941105808349076867e-01
7.965528047544914170e-01
7.435858146201922425e-01
6.580539882290618037e-01
6.059095157444231994e-01
5.543636658524858651e-01
4.369080190428808463e-01
4.118301294405651847e-01
3.616733604862706342e-01
3.503685016737695390e-01
2.902967295538503856e-01
2.376088226482896137e-01
2.209507060070522444e-01
2.167505405132250096e-01
2.134551844335088600e-01
1.611601331623133682e-01
1.553673133196271372e-01
1.471293390193070816e-01
1.437799998574144922e-01
1.453523607269539553e-01
1.686548531220924407e-01
1.856656816980182811e-01
1.419619070206462053e-01
1.100492049817530793e-01
1.738031851885271650e-01
1.214155697520672011e-01
2.130705903457078831e-01
1.749010366484962664e-01
1.880001823832545826e-01
2.176491111310606130e-01
1.835730277868437565e-01
2.077198607124563501e-01
2.127794479148462647e-01
2.566631454857749572e-01
2.719988243432981401e-01
2.133755691980058489e-01
2.642761169805867283e-01
1.606423261394260560e-01
2.200286954382240368e-01
2.506608469838758069e-01
1.928058813721847120e-01
3.034719472152673791e-01
2.866047551412412298e-01
2.344371902762066306e-01
3.127886638375136363e-01
2.744791497053956641e-01
2.604351387546438024e-01
2.687568705822572790e-01
2.344259455553577565e-01
2.638840811463545877e-01
2.358276678122104564e-01
2.613428187180076301e-01
2.652365952244439273e-01
2.690992295494363251e-01
2.624754883894001023e-01
3.333915486913342496e-01
2.141333732920116806e-01
2.078440990626643226e-01
2.347486902853748170e-01
2.594012617007037669e-01
2.466227805986212496e-01
2.144502004779831605e-01
3.122220448118245284e-01
2.690097634376301672e-01
2.404609426955441331e-01
2.201283591256614214e-01
2.368977239316906458e-01
2.266925787384273250e-01
2.502067742457849686e-01
1.962329820756538723e-01
2.081130708329576307e-01
2.534171101941753990e-01
2.057412946856038705e-01
2.387352912705685004e-01
2.134471493899061101e-01
2.032815192031579843e-01
1.856274370042269584e-01
2.043489033519969578e-01
1.914643931542869271e-01
1.208392172285968347e-01
2.218038620423437857e-01
1.932961725507461315e-01
1.357035898934159934e-01
1.682795767472042292e-01
1.587818837082482504e-01
1.355516929759745803e-01
1.788513572873029756e-01
1.970084842411309323e-01
1.362913319534471424e-01
1.325635413185312361e-01
1.122466834398739011e-01
6.926608107595993991e-02
1.441732413093444465e-01
1.841197659809257203e-01
1.180384279004913356e-01
1.130831253165828776e-01
1.123249976360119334e-01
9.500474594390659333e-02
7.197356532150707420e-02
1.792977933000700075e-01
1.128021914936818554e-01
1.129426328657926332e-01
1.594864620415525902e-01
9.440869069117553691e-02
5.974626441126765219e-02
4.937201972707314090e-02
1.366573589464178395e-01
1.000897530151378251e-01
7.043551666030228864e-02
5.439748115432152531e-02
5.971045598277081867e-02
7.783925758246379445e-02
1.186697227650131692e-01
5.961608896668077473e-02
3.387685720411570678e-02
1.924618996858088946e-02
7.486120136403393022e-02
8.675032349015660005e-02
1.079148559286838283e-01
1.320495868821683905e-01
4.869023814053893839e-03
4.973894611859347448e-02
3.597751929155343364e-02
4.099870888267818925e-02
2.089803541727853348e-02
5.528219494475263007e-02
6.526884973204562235e-03
5.837773934651496049e-02
7.833632506899548820e-02
2.759231249612219272e-02
7.677801108827825294e-02
4.662388837612739534e-02
7.092158838183358627e-02
5.206233022710771846e-02
1.502475936614339203e-02
4.243449999226671376e-02
3.036981869109537172e-02
6.946482518458260702e-02
3.779126421064270963e-02
7.740387358446906840e-02
6.223254819286175993e-02
5.390251881833875436e-02
5.659306130937753060e-02
8.013570116898929840e-02
7.220135204723586442e-02
8.263344951712817132e-02
2.492834950503116515e-02
4.170086917871644594e-02
6.046971906044631279e-02
5.481478958077298791e-02
3.725640500113171910e-02
1.058246933316027982e-01
3.701066097553142031e-02
1.037822327896753966e-01
1.312141726876931702e-01
6.618426324715666331e-02
1.855301204016508720e-02
7.454678743954137876e-02
6.980857791384981192e-02
5.480503233813035363e-02
1.138624573105171539e-01
1.188997420026429441e-01
1.240732762385539506e-01
8.688713911901033149e-02
1.518140032813654339e-01
1.043424956570127293e-01
9.720151771185596423e-02
1.007931488631297057e-01
1.158414477661075526e-01
1.460779150583328412e-01
1.157399603916670627e-01
1.273387237202742162e-01
2.037087102723084964e-01
1.409791881153393545e-01
1.906953193213449249e-01
1.705765037926672556e-01
2.002956507733117952e-01
1.813392741446979428e-01
1.784248891456924335e-01
1.710293592950702657e-01
1.595655566720441121e-01
1.932238729262632793e-01
1.710647054676599499e-01
1.306154418943496764e-01
2.007002804756586045e-01
1.881168916072554487e-01
2.033942574794835589e-01
1.925683531897881551e-01
2.164497785825413578e-01
2.067315832165963208e-01
1.896594492866111870e-01
2.059012016572612791e-01
2.342962175931521951e-01
1.703259233129928440e-01
1.380434523376558309e-01
2.292278061104540132e-01
2.233389743121678706e-01
2.942348704129269521e-01
2.219528681427074268e-01
2.212965505948058798e-01
2.559172518714777911e-01
2.850967848875003430e-01
2.981745767720496154e-01
2.979127527699942379e-01
3.730376694626771905e-01
3.401220762930249331e-01
3.895722653798786017e-01
5.027210230394844048e-01
5.271823850191459382e-01
5.497547960878875761e-01
6.272969980364311304e-01
7.500295550114394194e-01
7.493447390207123027e-01
8.047960080657707849e-01
8.983180408159904262e-01
9.926880231014427736e-01
1.044567573199859600e+00
1.128111396161156854e+00
1.128807103164715553e+00
1.168800829517088191e+00
1.278988179827158511e+00
1.243311146603842454e+00
1.263898484966065272e+00
1.285885609836039167e+00
1.277903936792415651e+00
1.272385046482403359e+00
1.214467273968809380e+00
1.272137009396992591e+00
1.138757259548049294e+00
1.199543772928144847e+00
1.095696688309858446e+00
1.087639438048699114e+00
9.150991647647109817e-01
8.537100977895708542e-01
8.363188801131719030e-01
6.955862070453363577e-01
6.827552113958641478e-01
5.913420264638650226e-01
5.631947166514821301e-01
5.212354130783402040e-01
4.146211158310041944e-01
3.631465473267451172e-01
3.092103607070297300e-01
2.710400400953235645e-01
2.709982051154113392e-01
2.643353622228729605e-01
2.288177976535215596e-01
2.392302071147436315e-01
2.419795011473318269e-01
1.952481388255361550e-01
1.929342709332922401e-01
2.391478644233023254e-01
2.126444393254507403e-01
1.960080689770697937e-01
1.826248416733154134e-01
2.311224111046793761e-01
1.993877908462097504e-01
1.530371385633936543e-01
1.535008238997890295e-01
1.947586278201511867e-01
1.926871522824272487e-01
2.290044669696377766e-01
1.761347529192355821e-01
2.379655471793523935e-01
2.117610908509100220e-01
2.766087566297764644e-01
2.272165868750919138e-01
2.808142434848429070e-01
2.561929293359630488e-01
2.478997236567674900e-01
2.280301340200845406e-01
2.459220174067967279e-01
3.148220211243887290e-01
2.741139035426001236e-01
2.543589791132581657e-01
2.924875533345219214e-01
2.714806856478766961e-01
2.670872183630404462e-01
2.779342406553562128e-01
3.214280164410119323e-01
2.933381772353823580e-01
3.168560991617139222e-01
2.840601124807612399e-01
2.794882795747385962e-01
3.426854965797089259e-01
2.671333087452623101e-01
2.897786614708006692e-01
3.326886905745033984e-01
2.848874988174585621e-01
3.537076093094240203e-01
2.703425776307165629e-01
3.149252803572782922e-01
3.456144745756762338e-01
2.983041985839164356e-01
3.028118930065955561e-01
3.131080631354444810e-01
2.090785710099243022e-01
3.258966676742619528e-01
2.902998119168175850e-01
2.786913000761664372e-01
2.781695897614829271e-01
2.084778499573536059e-01
2.932447206447813537e-01
2.734026783515401404e-01
2.293296135226920718e-01
2.660970005304842401e-01
2.657621023320430598e-01
2.282412364904869984e-01
2.785205083714776819e-01
2.317934932025516315e-01
2.223486757040434025e-01
2.459152703358031267e-01
1.947803253122446510e-01
2.019059710393405205e-01
1.764260886098230063e-01
2.005745575709038664e-01
1.908226738816120038e-01
1.996036182038789797e-01
2.212437385841849180e-01
2.060439588560490087e-01
1.845266696344819157e-01
2.143479784010543510e-01
1.521402716372776687e-01
1.808351590653860808e-01
1.886715528142548504e-01
2.133042316453733489e-01
1.563006168448470012e-01
1.357642966052121369e-01
1.434285861604211176e-01
1.406188748109063191e-01
1.142251211209656669e-01
1.308820520704702395e-01
1.794899955861283813e-01
7.207748706276406736e-02
4.596573806264894063e-02
6.948407714500864918e-02
8.348579904417224862e-02
7.228192417937864822e-02
8.053727174986191617e-02
7.061540239334770930e-02
1.120829438841774439e-01
6.730470657443256288e-02
5.820814679915389811e-02
3.148623620023584951e-02
1.174557214547986561e-01
1.253477330914369026e-01
9.046040455506690336e-02
8.442464041828395827e-02
9.824556105133160078e-02
1.009044535931399589e-01
3.993670269158550168e-02
6.532649391379613535e-02
1.004535605139996735e-01
5.315506854815703341e-02
7.266460692232301621e-02
1.028536010784968785e-01
1.369089130727555448e-01
9.342801563427444167e-02
2.461943410833464935e-02
4.068448094186263159e-02
9.684057580432675616e-02
3.707094801011980717e-02
8.467313554488128946e-02
1.093244613588889164e-01
8.889430538948644989e-02
1.098831516642513328e-01
2.121007129702592864e-02
-3.473910594937429375e-03
3.049343805118504003e-02
5.363922977990653873e-02
2.555845792310501921e-02
2.906919594037309443e-02
4.767085544824894300e-02
3.762381261157014128e-02
7.613198161478944292e-02
5.115941012692658968e-02
3.257048174559845632e-02
7.864978631155850053e-02
1.354334182174463663e-01
6.321561396270315714e-02
3.304485094633966002e-02
-9.749879361351937446e-04
4.036199212418088711e-02
1.245404870589624652e-02
6.314507105424914390e-02
9.814489519061828093e-02
2.181256325509576752e-02
2.990025168834849548e-02
6.874280863775697470e-02
2.516468723162675059e-02
-5.692951734396732577e-03
8.240460206177979696e-02
4.528068330249213069e-03
4.353800349464165970e-02
4.189740359232207306e-02
3.297100412140235859e-02
6.384066644225021292e-02
-3.110828055588529817e-04
5.599913048448713210e-02
1.953107829474767104e-02
