1.348078062058756466e+00
1.258828485797455654e+00
1.328877938536009884e+00
1.260211161516101575e+00
1.203537302696531031e+00
1.176735619312049508e+00
1.124807635455739696e+00
1.085131605535206711e+00
9.777357449212921159e-01
8.744633532888720362e-01
8.006193315848521008e-01
7.920207653923051483e-01
7.164082907950172219e-01
6.886355937493736645e-01
5.288400648849167496e-01
5.269561736024814813e-01
4.857234174120591552e-01
4.210976682704939411e-01
3.643937079120519451e-01
3.234087943552128586e-01
2.918905992464926880e-01
2.822257926119050575e-01
2.888302907373099249e-01
1.977625541620250393e-01
2.104735233775647252e-01
2.565129806451568184e-01
1.651393079859294621e-01
2.121825080414431464e-01
1.148389427944798286e-01
1.802602063814398303e-01
1.674216569990354397e-01
2.298786722438787566e-01
1.632524199870765136e-01
1.677873807480376178e-01
1.779649910774463162e-01
1.923034358157140189e-01
1.992308127413880692e-01
1.986863379714276789e-01
2.292675465497509002e-01
1.922430055134453641e-01
2.428315692494986411e-01
2.110316351143613212e-01
1.751221882664676655e-01
2.375702063417728660e-01
2.601165078668948305e-01
2.218028052898625979e-01
2.569116732054053109e-01
2.435008856777307051e-01
2.440342238456028323e-01
2.828558626679936738e-01
2.872415938424277004e-01
2.362725175153061186e-01
2.440117725985518626e-01
2.973091204152231715e-01
2.461712780510221243e-01
2.528814807804086184e-01
2.730921024031588429e-01
2.653364119273027844e-01
2.689006263741538505e-01
2.773476393799644835e-01
2.789647210598715787e-01
2.928453545828973992e-01
2.892949743205519009e-01
3.383455906833235383e-01
3.047298300264035809e-01
2.831283810758471464e-01
3.336692914740021498e-01
2.564538825230290864e-01
3.393140923038971968e-01
3.564998805118746450e-01
3.036978164967736871e-01
2.708442409083423597e-01
3.019584961836285775e-01
3.067574092516368589e-01
2.387629253736602286e-01
2.877298494197217393e-01
2.534665934779736229e-01
2.321357172810031844e-01
2.625459406277167451e-01
2.514595513177552144e-01
2.042820346555072331e-01
2.823253233209803148e-01
2.414597746234725117e-01
2.561151505573561749e-01
2.542455646806890401e-01
2.007593405314600232e-01
2.821201835332132202e-01
2.746815608025527378e-01
1.777490558532109632e-01
2.028138371468723722e-01
2.024941693020887445e-01
1.721837929590079308e-01
1.748046156211174595e-01
2.528478508183933382e-01
1.611423884595370448e-01
2.286645668810645127e-01
2.019478958502345378e-01
1.739324447332998014e-01
1.951107682365934015e-01
1.777130091401385448e-01
1.632424437806501982e-01
1.712876798323125782e-01
1.206464541023009318e-01
1.251198185972274557e-01
8.443207175163877642e-02
1.438707910968100301e-01
9.832150161612869532e-02
6.842115135789164637e-02
1.266780346443563410e-01
9.651675831903021308e-02
1.499356613445359532e-01
1.229744893948785389e-01
1.345381758993365040e-01
8.674469951609775631e-02
9.490372616053746602e-02
1.109484763061175244e-01
4.643022961725092046e-03
2.831414018374459052e-02
7.058617368128523861e-02
1.894607582227008508e-02
4.263651306710997124e-02
8.184551059373429416e-02
7.224615032926610947e-02
7.961818574188377073e-02
2.369040686218257252e-02
8.148192735325815450e-02
2.795501639248080053e-02
6.741413162445793195e-02
6.968076083940727417e-02
1.102854483652205703e-01
9.695617031971294486e-02
6.465655841309098095e-02
3.200649394835957534e-02
4.446686138700445268e-02
5.009812507751641719e-02
1.924955948453742002e-02
5.636281191433761828e-02
5.824971509182663709e-02
5.713961362558467316e-02
-1.683324349817105769e-04
3.095333806051792438e-02
5.993714358491612076e-02
5.320684087040698090e-02
2.475230854339996109e-02
2.737000348026447788e-02
1.597878618424676891e-02
4.552587450818093573e-02
-2.192060138103642253e-02
-1.969394470190920232e-03
9.278545104327514531e-03
4.290215002020317941e-02
6.970082708134738014e-02
3.717213958574493160e-02
-9.482197354063758715e-03
1.964446125560538603e-02
-1.781054241789700038e-03
1.884978708629258398e-02
-8.247632795942774764e-04
1.639631299390961749e-02
3.142595154240384117e-03
9.026612733040442760e-02
4.193618249942042409e-02
4.675310818759164863e-03
3.073802424869855748e-02
8.612171096540688353e-02
6.077474057081954512e-02
3.157719181286566118e-02
2.145013634582706302e-02
5.009549644152295339e-02
2.671793555267902576e-02
7.944417064979943099e-02
1.235762347795856253e-01
5.555078490571253164e-02
5.587166788192482469e-02
2.032848564916582557e-02
1.056279119224648178e-01
7.886123694754512692e-02
1.408454070654067969e-02
8.022766433792048735e-02
7.288247166529404630e-02
8.152279982669563552e-02
6.905418854903520864e-02
8.861860840197488542e-02
5.732211494400087787e-02
9.676641636721455830e-02
1.224787576395782174e-01
9.674153854422240517e-02
8.542586053975784188e-02
1.538574862270066235e-01
1.494591956750957462e-01
8.831641965557671115e-02
1.111609025104610543e-01
1.285148613046247223e-01
1.400508662500243862e-01
1.538153227000878254e-01
1.294172788841727872e-01
1.132160866008106864e-01
1.526917452478034343e-01
1.252198892517532580e-01
1.672470157608459684e-01
1.682690253552933946e-01
2.073120688321123117e-01
1.952387186634062244e-01
1.770490670766817487e-01
1.465188216801750765e-01
1.330913445804208783e-01
1.906880381792874779e-01
1.708918332225905778e-01
1.348576686593437601e-01
1.630407861704784578e-01
1.534392329868252414e-01
1.490942612063183847e-01
1.627587580486311303e-01
1.404289384263025520e-01
1.248402100539899029e-01
2.190990559585802577e-01
1.606252371410899771e-01
1.900566725995197215e-01
1.325749127182190845e-01
1.485283244392013036e-01
1.738574575895518171e-01
1.891125709198786808e-01
2.068631002043272993e-01
2.329722517637445034e-01
3.135617395021820242e-01
3.015260146702963828e-01
2.978613257194874797e-01
4.111657516258668821e-01
4.430331883577602325e-01
5.583968457467274327e-01
5.705483447467530889e-01
6.745595579383167895e-01
6.964352871813017654e-01
7.552497910356226196e-01
8.613090740106363885e-01
8.758213836654378248e-01
1.014172187648986867e+00
1.032378752324331295e+00
1.055272007183717609e+00
1.168401713659344532e+00
1.188894560426318581e+00
1.191747100883258526e+00
1.261998723163070713e+00
1.245253257995352802e+00
1.280245963598668046e+00
1.241758250713100420e+00
1.234998300071796784e+00
1.177581086690901779e+00
1.095997355218326641e+00
1.114244439755887273e+00
1.005927741183947344e+00
9.026506067062398664e-01
8.817541580251097022e-01
8.022146420993411242e-01
7.782897942367895672e-01
6.609204716708479976e-01
6.089953439370567878e-01
5.639428571717658434e-01
4.885457828461238772e-01
4.615926296249591720e-01
4.123103312158020728e-01
3.076807450495504526e-01
3.071964965374957002e-01
3.110689670971182319e-01
2.079020186075849208e-01
1.751188251753066638e-01
2.107289895132815616e-01
1.520379423610499492e-01
2.223953094602660330e-01
1.435934864744477513e-01
1.203099879264386274e-01
1.279344961007391757e-01
1.847420703493925231e-01
1.029171602026907190e-01
1.315373814835399946e-01
1.359446184722526429e-01
6.928921233380691547e-02
1.346998496317497462e-01
1.469469427812637452e-01
1.304467004631033600e-01
1.822383415854732791e-01
1.885313073451909127e-01
1.732071987852417672e-01
1.384883860732694927e-01
1.504798136708992429e-01
2.141107511177413047e-01
2.556399349611214178e-01
2.179232477018145375e-01
2.080372312054407369e-01
1.685639992843650514e-01
2.044402550363838000e-01
1.658273886984763246e-01
2.252277255830943958e-01
2.002563228232111248e-01
1.788912947683431731e-01
2.035292831172605121e-01
2.314143456351055173e-01
2.278145379338867016e-01
2.254042290693380191e-01
2.355967466292076817e-01
1.943811396517577395e-01
1.978465632356201376e-01
2.026589355599110187e-01
1.899314719207443880e-01
2.302230182281270188e-01
1.859917430659968340e-01
2.372989757127378363e-01
1.827414358618480728e-01
2.513121315002436740e-01
2.361883241497606256e-01
1.817855736224901764e-01
2.396798393277707606e-01
2.206563464382982065e-01
2.560933086845997853e-01
2.159153103330425094e-01
1.671209405459201380e-01
2.012712077857822246e-01
2.057643005499951716e-01
1.924430466965377784e-01
2.207092302662733152e-01
2.320439414749378426e-01
2.118833137618932050e-01
1.628782096794266221e-01
1.999672364505203914e-01
1.827503188857577121e-01
1.569950944487602251e-01
2.191733853306676860e-01
1.737576261006868461e-01
1.423450717616481231e-01
1.576391851759090523e-01
1.630247771017797054e-01
2.015418593415899684e-01
1.618034242728840777e-01
1.215391835323390846e-01
1.557115827979942968e-01
1.349721004191987983e-01
7.856092937239772533e-02
7.977760737421971116e-02
9.100278986876730869e-02
7.978107328643591067e-02
7.160211440298995533e-02
1.127678875595545249e-01
1.224257892374512879e-01
5.020332303910334665e-02
7.975377317339781003e-02
1.151829192226755672e-01
1.007365140841636475e-01
6.010764381108552046e-02
5.054756157015301288e-02
1.060244826862274947e-01
9.731074955720658837e-02
9.683362051572796947e-02
4.112709956816722190e-02
3.686512230477045210e-02
6.321668016975610926e-03
4.347416840991186193e-02
1.913328462469505997e-02
2.847855276857162721e-02
-4.430871740937905590e-02
9.211278003203593467e-03
5.798147161432214147e-02
1.993440639845174903e-02
-7.021635492871428075e-02
2.988994980559192549e-02
4.434130574807382957e-02
-4.161579372702682578e-02
8.510726491359463242e-03
-9.818023487706051267e-03
1.150878339709399817e-02
1.575669273482682015e-02
-1.229657916966711215e-02
-7.124436158728153501e-03
4.300998014982792411e-02
1.085537138011459790e-01
9.630090838374245898e-03
-6.930010968853709402e-03
-3.392725548862024487e-02
-2.023512213540396704e-02
-1.725917539960761596e-02
-1.597927478821907499e-02
-8.681013062568174177e-02
-4.058833174407174005e-02
-3.087843310259621998e-02
-3.503720429794494884e-02
-1.418280124799184416e-02
2.779688830796232801e-02
-9.001278863013113807e-03
-1.321749460761019804e-02
-4.752055682882241894e-03
1.401749926929105050e-02
5.778796139584981006e-02
-1.995499551312916731e-02
-2.098346899354069928e-02
-1.831747597059872612e-02
-1.757760558457157826e-02
-5.027065643565657022e-02
-2.606129634473317719e-02
-5.033641178383949782e-02
1.730169339388944183e-03
6.712723157253830397e-02
-1.782579439543689748e-02
-9.344482890318167589e-04
1.087283239762501519e-02
-5.666140459231838733e-02
-7.265115462537011237e-04
-1.056486014205194890e-02
-6.722133271936883703e-02
-2.613151313549238325e-02
-9.825801672759852667e-02
-7.010036615303572027e-02
-5.497069766210932462e-02
-5.852437261770856991e-02
2.967202090689111116e-02
-4.654611652830806245e-02
1.239538825998365290e-04
-9.112269530507255411e-03
-6.963247244194573082e-03
-1.395679641159068562e-02
-1.824326033989984858e-02
2.904198665889241859e-02
-6.399779404812003247e-02
4.444435058169474151e-02
4.336088850109151571e-03
2.780809665891412208e-02
4.554015184430670882e-02
6.869739115914734462e-02
1.147205575304928449e-02
2.518676954639377519e-02
-4.774764439002772420e-03
5.835186264948001578e-02
1.123787759123505980e-01
3.969992040009973078e-02
5.281620073399785620e-02
7.869517814948634449e-02
6.597232405599154359e-02
9.688823034952656621e-02
7.534200223927414730e-02
1.099821519301399098e-01
7.028109906505053406e-02
9.052219767920563487e-02
6.216467895227905521e-02
7.440668575595713041e-02
9.988654874983729504e-02
9.894249473503922976e-02
1.304176816280541995e-01
1.128049107392911643e-01
1.006863023713610861e-01
9.127899819519394442e-02
1.108786616679801884e-01
1.350101790019049286e-01
8.699381798479055572e-02
1.905696778973192951e-01
6.679574528159171187e-02
8.329848623580433931e-02
9.379264888246903464e-02
1.360339172140035413e-01
1.523992381858377265e-01
9.984794846237629584e-02
8.585498506659702822e-02
8.791400835379355183e-02
1.484484029251681714e-01
8.947217204523019718e-02
1.439072138020803804e-01
1.580149562192033896e-01
1.713395105964411191e-01
1.554795530885544896e-01
1.637844927899579361e-01
2.282966967859584029e-01
2.786141155839118033e-01
2.858316154423858890e-01
3.585014678373693031e-01
3.828457967970054776e-01
4.584276162277436950e-01
4.670897571640938439e-01
5.543079459938926590e-01
6.782723117545774727e-01
6.782675886536935206e-01
7.768628545350628745e-01
8.355198751715914307e-01
8.898083286635474209e-01
9.955987157621687400e-01
1.011240226850349977e+00
1.118648271774982161e+00
1.153990826424270422e+00
1.128569657927797731e+00
1.220977931379667814e+00
1.215910752342986623e+00
1.184603248981214163e+00
1.193126490507394832e+00
1.165385413230193956e+00
1.170124912354604252e+00
1.177089899604360390e+00
1.069309761495066402e+00
9.966399234321434708e-01
9.493001629209226744e-01
8.789711068639998182e-01
8.287499581498825041e-01
7.278844969459346004e-01
5.827360601523010608e-01
6.036440186276184061e-01
5.254044850723266213e-01
4.390902789874234768e-01
4.063049620751476576e-01
3.984501736636106295e-01
2.882325995118121820e-01
2.688685037958515878e-01
2.233134507644874978e-01
1.640726234321988053e-01
1.874058282175520285e-01
1.566145866768852146e-01
2.093848188269916699e-01
1.494997523874316558e-01
1.428930029699917725e-01
8.621061667644067117e-02
1.288911416080815164e-01
1.205763793942743189e-01
3.043840683325217678e-02
1.373132391762260651e-01
1.015562659413938862e-01
8.022395026943640595e-02
1.071552678568737649e-01
9.519147661066129640e-02
1.278782092165575979e-01
1.099808865293981780e-01
1.777471085150958696e-01
1.823602945310047740e-01
1.428788982121253215e-01
1.569270502669460055e-01
1.950287493504165581e-01
1.389059430748591506e-01
1.478195584668731688e-01
1.755092093615207016e-01
1.598516556554067658e-01
1.734305486252145645e-01
1.592513505429900555e-01
1.433219155612628359e-01
1.459667920813198239e-01
2.152698969342681234e-01
1.944222029502480353e-01
2.127730094482483125e-01
1.610848994686746027e-01
2.044551817021794671e-01
2.108844940307434135e-01
1.751250109717636672e-01
1.816119252585973176e-01
2.413689676181140775e-01
1.923914547172114187e-01
2.208356887479447084e-01
1.749948680644294874e-01
2.434457059923390010e-01
1.888728360077103208e-01
1.952589772368170939e-01
2.136563509410792372e-01
2.826100414943634176e-01
1.828673976189210404e-01
1.976057426765416292e-01
2.325550199396820283e-01
1.968451720804899330e-01
1.935528105642946028e-01
2.526187757085102681e-01
2.253651458846350486e-01
2.497276286815989788e-01
1.630078700401328962e-01
2.042281813288399084e-01
1.764178504102626721e-01
1.677535456436368977e-01
1.669669292499038615e-01
1.849068884636279331e-01
1.604103499637154484e-01
1.295885930701429212e-01
1.255897789915346174e-01
1.112225665325441148e-01
1.413008939843206357e-01
1.554192948022081189e-01
1.649461452157484909e-01
1.412951538818439934e-01
1.289613359974445816e-01
1.514515088254883846e-01
6.982299024885814387e-02
1.225442032395356179e-01
1.148531894136483877e-01
6.143685839878778449e-02
3.547805768320966974e-02
8.471741757490547364e-02
1.017059053939719099e-01
3.610590710398975389e-02
5.220515121195582614e-02
6.512428249946439207e-02
9.309367405749040258e-02
7.041791675671779660e-02
6.535910025954674851e-02
4.020378177134801417e-02
8.924299750319458768e-02
5.191266381137950303e-02
1.916470095110851812e-02
1.867590335856791212e-02
2.351164657793018697e-02
1.534047212658169734e-02
-3.095606183443912196e-02
4.819793379983311477e-04
2.715925576361456067e-02
-1.366681392726378647e-02
1.014284449074494276e-02
-2.965761539510629319e-02
-6.330974548571177696e-02
-1.110775311432303514e-02
1.331077851991185890e-03
-2.295513467941071375e-02
-3.964032372622228878e-02
7.092215856503929217e-03
-1.523417833354666351e-02
2.983225503690872804e-03
3.871040099164253095e-02
-6.141688571377701411e-03
-7.590604007998921765e-03
-4.491781108957373231e-02
-2.565790620936737182e-02
-6.344384541818315348e-02
-5.743566776454227252e-02
-2.018964463994221692e-02
-3.911622626018314286e-02
-4.874538206118354117e-02
-2.836356864430099670e-02
-4.958328961027724108e-02
-4.146946105030314966e-02
-2.582865727292837574e-02
-4.925765980279085687e-02
-6.409746510826352939e-02
1.206988522186619450e-03
2.145082470965704868e-02
-3.709211238466707250e-02
-4.239125214081239379e-02
-3.652536960426517459e-02
-5.856001486680932622e-02
-3.000795172119839760e-03
-9.434189674555365501e-03
-5.171142003538915788e-02
-4.745483926640317596e-02
-2.584432362221100038e-02
-1.658667350868968382e-03
-2.340575365669431834e-02
-1.899774006735745202e-02
-2.273777026795646694e-02
-2.846957144042924423e-02
-2.234280953091527522e-02
-9.011997805399275807e-03
-2.196692113783035166e-02
-3.673034069013623309e-02
4.157653754540484303e-02
-7.527891011656515086e-02
3.974891804051985944e-04
-3.894380611467671699e-02
-7.194098060161745190e-02
-8.174564635573941529e-02
-2.404712549513222247e-02
4.537317179086308716e-02
4.152183235498516783e-02
-2.750238079305395225e-02
-2.584095707295163205e-02
-1.659355446182211868e-02
4.707228744274358223e-03
5.984434076932775015e-02
3.406011014142065751e-02
2.880036299062809640e-02
2.080798505652291935e-02
-4.025783132806586007e-02
-3.661510613856024804e-02
2.377921799234003486e-03
-6.592140138290132623e-03
-1.547276815133707961e-02
6.784142371373078073e-02
3.657909714796771933e-02
2.263679974080887169e-02
1.428735658213740878e-02
7.962281729038930833e-02
6.043511447559365979e-02
2.239870588678654489e-02
5.779830807352946687e-02
1.321462496338861869e-01
1.110185781038786068e-01
8.603382049389034225e-02
9.958849316963441778e-02
7.877297260303905979e-02
8.760552775411722948e-02
6.499275240402166420e-02
8.163211554061540476e-02
1.196568332436737381e-01
1.503317075198625785e-01
1.201814874387907156e-01
1.408243857283955347e-01
5.152674448905291554e-02
1.289303265369882434e-01
1.256345306330583500e-01
9.302833517947256547e-02
1.148882216412222823e-01
1.572111652605535093e-01
1.302736193328405401e-01
1.080084843908515890e-01
1.733896343127904749e-01
1.197978057145802910e-01
1.657984722899576990e-01
1.106377930056727382e-01
1.263389390487362207e-01
1.739537073033256553e-01
1.059790169591495745e-01
2.143294484931150545e-01
1.312132148554179534e-01
1.872081332981014590e-01
1.999588541013669341e-01
1.708250568197268171e-01
1.836905322970271703e-01
2.209931776759254674e-01
2.882541515309909874e-01
3.551359446890510196e-01
3.717516569204216137e-01
4.149958589257708441e-01
4.682921309314954095e-01
5.421766218394363790e-01
6.029847739786223793e-01
6.675384997929330044e-01
7.206086354953605833e-01
7.971815583623079737e-01
9.167574257053953124e-01
9.386341606487146327e-01
1.047219128839966595e+00
1.084056947994595843e+00
1.188562193436952352e+00
1.177673976892550600e+00
1.222458787335639840e+00
1.194530864042615548e+00
1.194608468195629269e+00
1.290841807068801916e+00
1.247362523670999090e+00
1.156076985915490685e+00
1.178481088614909300e+00
1.136033177611844636e+00
1.108599756229727396e+00
9.743366168737355171e-01
9.300558387447729336e-01
8.505341281800723463e-01
8.016278974306056959e-01
7.122274497802979498e-01
6.756026842689123457e-01
5.449464450393826098e-01
5.278304911567222035e-01
4.210493946338546567e-01
4.432558174679687713e-01
3.508681388391315936e-01
3.099222441006256878e-01
3.013006368207910568e-01
2.497191997868407898e-01
2.158719987589694522e-01
1.747870153332700127e-01
1.680078139235333112e-01
1.305153546479773385e-01
1.183428700944005735e-01
1.507497033122802699e-01
9.484041065237755475e-02
1.252973059130749189e-01
1.372712649503013416e-01
1.407474736662930326e-01
6.264217948391773150e-02
1.140224167895363544e-01
1.615622554608942552e-01
1.578822896520577501e-01
1.458308481286266778e-01
1.330879666946482298e-01
1.475499220078156370e-01
1.694609639932248835e-01
1.516690127208986383e-01
1.827093158740656920e-01
2.008115852947515434e-01
1.668353217507023700e-01
1.985793478244580190e-01
1.705845411649340726e-01
1.798897943700710766e-01
2.126563516281868571e-01
2.572885105934130112e-01
1.966304628951543454e-01
2.782268322492587598e-01
1.941048915533396257e-01
2.455283856710917534e-01
2.480942068684764967e-01
2.574332662205620625e-01
2.116373813530751380e-01
2.405833264093351631e-01
2.327637325773112831e-01
2.248207772440950214e-01
2.288632612403873612e-01
1.911152187528092072e-01
2.314468451496838886e-01
2.221251564861117245e-01
2.282220844076607857e-01
1.989611352511958253e-01
2.263721740363023316e-01
2.437823151651046794e-01
2.078825372985060316e-01
2.436531116766955107e-01
2.363489716872499702e-01
2.213315420167736025e-01
2.474796952874133704e-01
2.573383407290823488e-01
2.128618580032984320e-01
2.029035317019498574e-01
2.400007046216310336e-01
2.005978910523812941e-01
1.795222697078066032e-01
2.334947109319928937e-01
1.931771207611499563e-01
2.209304477782221554e-01
1.620627069541917542e-01
2.051261110540369970e-01
1.940797679102086726e-01
2.140026555507490158e-01
1.333583332506157737e-01
1.421310220975376959e-01
2.132117512041504237e-01
1.690718223307743906e-01
1.328380449228321880e-01
1.747464485102797338e-01
1.426926872555433212e-01
1.318138078425351856e-01
1.979646880121913310e-01
1.297306401054080516e-01
7.891275488393317827e-02
1.236378364765264165e-01
1.050367447696253925e-01
5.315303763926925579e-02
1.394164221667798520e-01
1.524898475543864929e-01
1.207608172006984643e-01
1.004231995079593459e-01
8.752874354915869681e-02
9.089805659488443823e-02
1.182709114641403297e-01
2.549273274408464518e-02
8.337964046412482677e-02
1.117264089451928677e-01
3.634790517022380707e-02
1.002393311895427713e-01
1.173282706938287012e-01
4.821335371318378332e-02
2.156827770936163569e-02
4.034888204627452152e-02
6.638602052700258438e-02
1.274695523527629160e-01
2.673545750652747341e-02
2.546410717840310797e-02
4.133249395965725437e-02
4.608946040046780351e-02
3.943923770604075563e-02
-1.234723010884362406e-02
-1.247209892912019271e-03
5.783575401119494391e-02
7.020145811823128024e-02
-1.007578400782514066e-02
6.467247551712501652e-02
-4.316875155859775659e-02
3.294758850222190283e-02
1.360237345462406329e-02
3.288696913821265860e-02
-1.970824792984018567e-02
4.415705671468327098e-02
9.441151094972396324e-03
-5.292132508393089518e-03
3.211708051483764051e-03
3.825888688026126555e-02
1.351919659358940401e-02
2.461749088790051582e-02
3.504613770455034666e-02
-7.830104676543742093e-03
-5.510019144448166650e-03
9.076480447910779958e-02
-2.738441986667870809e-02
-5.138141422968242611e-02
-1.111632491547942352e-02
2.979535855501520489e-03
3.448367119540049486e-02
-7.421503490148394395e-03
3.578654623849192307e-02
-1.555422689057229559e-03
2.860698899219485392e-02
4.684608962419974793e-02
-4.694079821396485858e-03
4.019777814483339873e-02
-1.930571689303678395e-02
1.820790993197256291e-02
2.283590716212668265e-02
2.205049161376974876e-02
2.656955332367452391e-02
2.648690179252918137e-02
-6.878839576008793921e-02
2.858057248215612259e-02
-2.501761055755802321e-02
8.752818041941957602e-03
5.269232411968135382e-02
4.576787957132145979e-02
7.676545147123634005e-02
4.687575998241873265e-02
1.420677719723102174e-02
1.139525285395704204e-03
7.894814690345114405e-02
1.380569388555385330e-02
1.420105069223230078e-02
5.460369394703493140e-02
9.222213849695318211e-02
6.211940419865079333e-02
5.450879172417705948e-02
4.549686760735635604e-02
8.365125745003959556e-02
2.275564160184091744e-02
3.821609326869852830e-02
6.141438596826759994e-02
6.690235616012370212e-02
7.704619470258058933e-02
1.283720529198513483e-01
1.433986577330388645e-01
8.139734812602200664e-02
1.058297712671496943e-01
9.551060053139745487e-02
1.055243259423495894e-01
1.438765745634272286e-01
1.662878919323471649e-01
1.740653182519034115e-01
1.422227213687715930e-01
9.013303624621948895e-02
1.078867286828590483e-01
1.006274437007518424e-01
1.860702774589106379e-01
1.395005345062293456e-01
1.651513742018445585e-01
2.090925388660917483e-01
1.334844182331246798e-01
1.583558716298746893e-01
1.713289266031141622e-01
1.266796910823717592e-01
1.956042886463649488e-01
2.079588404772763077e-01
1.928904980144484915e-01
1.937028995561126121e-01
1.761780751007837043e-01
1.844967929334081214e-01
2.106170066991502610e-01
2.082165140296415029e-01
1.895692356853930227e-01
1.540844121140725331e-01
1.054573084461637861e-01
2.289349712791070857e-01
2.461529529004324868e-01
1.873143481509601804e-01
2.514317534900889495e-01
1.677356792009378761e-01
2.727386229341735580e-01
2.865593809275392423e-01
2.826914066431175931e-01
3.939256380895392318e-01
3.649787037273869439e-01
4.441127292650169922e-01
5.208892029748277697e-01
5.153409496006409185e-01
6.042750840725643613e-01
6.397144065653470602e-01
7.175301515339064240e-01
7.479228150161236766e-01
8.516320195544788696e-01
9.232773057509340298e-01
9.903231824977447584e-01
1.087099696836466123e+00
1.121263863601271282e+00
1.136035556857195150e+00
1.228959351985914550e+00
1.231660867839785567e+00
1.281007116589378381e+00
1.294325044577483874e+00
1.314856424486241959e+00
1.290827298885932173e+00
1.282841573741392294e+00
1.238027845288999451e+00
1.261522405916809975e+00
1.132419075667847830e+00
1.069030014464542822e+00
1.040420017497801108e+00
9.414498479115719354e-01
9.081788153576836331e-01
7.767817308575372115e-01
7.475484389485572700e-01
6.880774557841927708e-01
5.752086925389624517e-01
5.585100290578575155e-01
4.309614861003798203e-01
4.388856661196582354e-01
4.270104991369431113e-01
3.248377630145650730e-01
3.130999478529600810e-01
2.598417438636250187e-01
2.807583725510109374e-01
2.637134259334004138e-01
2.392467325368429765e-01
2.329711116817578254e-01
1.808848025437313489e-01
1.914779916522567071e-01
1.554156449516650718e-01
1.605967311466613701e-01
1.816588921114121180e-01
2.237282729877856369e-01
1.640599665983753508e-01
2.020360159632977326e-01
1.696599229897401417e-01
1.637556031085096730e-01
2.450374603324638190e-01
2.423283338146024479e-01
1.892361038129001805e-01
2.073348261355429101e-01
2.272466595367705067e-01
1.966396121644873318e-01
2.466398179960071213e-01
1.880438084685646938e-01
2.247237286146650526e-01
2.343161642998639882e-01
2.627332883106930361e-01
2.909050148107866773e-01
2.255223475674257849e-01
2.564342850929305917e-01
2.814102463490013029e-01
2.649816539564782691e-01
2.646753544369560562e-01
2.977164874819926976e-01
2.202012484892898470e-01
2.719774284047016266e-01
2.825035268588551585e-01
2.819842488962613913e-01
2.609316815028850933e-01
3.126276104971920655e-01
2.959280709873645665e-01
1.883618663627349143e-01
3.071086138537516552e-01
2.846961572053418044e-01
3.158185046978438937e-01
3.293135129394295091e-01
2.912062696086032410e-01
2.652661953603296374e-01
3.145499030787887174e-01
3.304288612533128888e-01
2.944746893678771293e-01
2.812678380191545591e-01
3.091782083871491005e-01
2.528780514103408650e-01
2.790431081535102997e-01
2.599658767621484956e-01
2.874566275118978220e-01
2.609275727841769421e-01
2.585551906848276293e-01
2.771957737924684584e-01
2.978909399366333477e-01
2.717010087903083959e-01
2.729940321809108950e-01
2.756763338748079994e-01
2.307008538632354666e-01
2.416184639597549477e-01
2.276153410506821240e-01
2.264926565609841624e-01
2.106505795804431147e-01
2.118202171397743083e-01
2.034711020889459765e-01
1.850098394016665704e-01
1.282888531566961365e-01
1.981242284570189638e-01
2.388133578401740176e-01
2.028935841173774013e-01
1.778118218598561118e-01
1.376160273418973734e-01
1.464599416587282765e-01
1.130376566104783209e-01
1.750680853445851781e-01
1.343101426764889972e-01
1.871905597249945985e-01
7.935999694524897841e-02
1.284711626830002118e-01
1.700840908893652415e-01
9.667787358482407556e-02
9.216791146475142305e-02
1.097194260749594363e-01
8.916799137692149602e-02
1.067740289777498464e-01
4.751850058988894843e-02
1.472032943780381409e-01
1.319258428323459853e-01
8.822135388832758052e-02
4.598526701286378277e-02
7.139671537001435198e-02
1.173052994596493759e-01
1.155839110599121561e-01
7.060240538197487536e-02
1.004829390540573075e-01
3.839926382884192857e-02
7.928918759078580625e-02
4.097402747226379371e-02
8.839065097586037978e-02
6.226899590607833102e-02
6.549775713043327896e-02
7.127963616235193089e-02
1.630088853558469414e-02
6.917863384305186769e-02
1.014706558518758961e-01
6.905274340071661243e-02
9.663735798404762822e-02
5.196698793606190775e-02
7.033495021945719572e-02
7.279795200923112886e-02
8.009481408772527178e-02
8.840868073498137081e-02
1.775947307532363059e-02
3.557861692792362723e-02
7.293114245561131692e-02
6.876303625535432062e-02
5.641766273563340872e-02
1.352624774548013553e-01
5.919594627958663785e-02
6.474004102710056996e-02
1.520944774462886645e-02
8.384897823564847752e-02
5.820262756937839149e-02
5.727272255477177526e-02
1.123757034965004731e-01
5.046061008554050820e-02
8.917914233494778076e-02
8.901839350462051326e-02
5.052985150307313933e-02
1.369543406923279250e-02
3.820431282040549770e-02
9.117727262598129823e-02
4.696866287702049225e-02
2.204973821632679951e-02
6.478024301459392453e-02
2.934481884386412609e-02
3.480154601571651407e-02
3.384110126580508471e-02
9.505298232422365601e-02
1.050067824213456735e-01
2.824534122089833107e-02
7.725862405808479882e-02
8.837084548987553245e-02
5.458139267368804226e-02
5.364696531317013350e-02
1.297244668566696346e-01
4.534474942825429677e-02
1.042153905788854862e-01
1.026088757461937617e-01
1.643423016798515324e-01
1.299079773542731187e-01
5.245163609888257167e-02
6.648216853718361130e-02
8.647018250336793721e-02
1.136581594699591080e-01
6.313264855590333680e-02
1.302915329135782563e-01
1.319268080572040813e-01
1.154496734421289195e-01
1.680259367874149534e-01
1.551390085574623212e-01
1.779072811943382959e-01
2.252869588706445658e-01
1.240309333679855269e-01
1.713045748314727668e-01
1.428560989451734264e-01
1.858608404009380322e-01
1.565873557107624325e-01
1.617372816207240938e-01
1.450232691057950496e-01
1.957622553076087957e-01
2.348936327273540847e-01
1.555714290048335058e-01
1.285770538892733739e-01
2.128211244227339871e-01
2.332546400597824698e-01
2.740488446317480009e-01
1.945417035199308864e-01
1.957813208569647301e-01
2.188668996471919426e-01
1.753907914331877260e-01
1.805499627199353141e-01
2.296128213380393968e-01
1.615681025080444588e-01
1.724173240997134982e-01
1.584849264295938309e-01
1.812358684967168565e-01
1.932303533829940467e-01
1.968480169215852116e-01
1.998371569110677093e-01
2.322636171896670931e-01
2.084765908973087445e-01
1.952331331115789159e-01
1.918719738536799613e-01
2.267131247465592192e-01
3.090721924923164332e-01
2.761256459261254292e-01
3.404374941774345187e-01
2.521695271039119945e-01
3.162657329681703433e-01
3.251472997765046946e-01
4.164903073639167896e-01
4.803462729325574387e-01
5.457238830865183132e-01
5.965596608731232875e-01
6.641639839222102104e-01
6.936229758814791424e-01
7.517343040751569561e-01
8.104501895348232843e-01
9.555798578019970568e-01
1.001697342229719290e+00
1.033517079420884333e+00
1.109400239810902633e+00
1.195412689103371173e+00
1.193112727974018128e+00
1.262773561835645264e+00
1.279674936781742822e+00
1.343261198533105771e+00
1.303996516414183127e+00
1.330464693829848111e+00
1.264716029012291854e+00
1.234734701587814953e+00
1.193905876739410843e+00
1.213525165707804776e+00
1.149003399930999647e+00
1.108491584202485392e+00
1.021336991478420719e+00
9.368474173892529233e-01
8.535390886349076833e-01
8.213534398911839229e-01
7.393158281596033943e-01
6.291079124393466060e-01
5.723231162580556530e-01
5.346490582320705398e-01
4.756500893146581865e-01
4.498094176218124796e-01
4.027020455136657850e-01
3.213693100338163577e-01
2.791753615092821272e-01
2.345829478931041601e-01
2.611981796434800773e-01
2.970296331096584641e-01
2.220123408817524235e-01
2.165764041498397519e-01
2.168291665195076212e-01
2.041196814754823452e-01
1.637431093509537638e-01
1.780037938317991508e-01
1.910688798357315366e-01
2.468945436085205891e-01
2.377479022153697885e-01
1.700987550809646975e-01
2.478618500799840696e-01
2.637285070421860333e-01
2.287455272990830124e-01
2.015433136265522840e-01
2.259948260811631970e-01
2.754851400465779254e-01
1.989418131760311292e-01
2.248725830759174815e-01
2.537143038391644900e-01
2.353930649296178401e-01
1.995158221828533252e-01
2.194794179288633296e-01
2.169458718909442196e-01
2.484557695451199977e-01
3.194466500561583544e-01
3.103442388683301800e-01
2.730761470898804832e-01
2.944293105287706935e-01
2.830653645394546336e-01
2.745690514464448895e-01
2.837773380190018457e-01
2.750549087594115760e-01
2.483838823945610230e-01
2.890125914174463406e-01
2.654185880583392332e-01
2.749217958290101627e-01
3.049957525645650147e-01
2.438770582233911743e-01
2.585189943737989937e-01
2.914905688530075589e-01
2.558854363259597808e-01
2.715091737695645158e-01
3.155423868473152815e-01
2.803193651916194851e-01
2.646317234908690530e-01
3.090839393908098032e-01
2.315241437923685475e-01
2.376208423894367872e-01
2.375246610166774353e-01
2.557031754070812624e-01
2.259600059178757947e-01
3.252343063939442391e-01
1.886475766077239102e-01
2.754231694940240671e-01
2.469318164030574470e-01
2.570305800316293743e-01
2.339131403697444211e-01
2.398134965294722309e-01
2.124965651998444172e-01
2.732780962874343800e-01
1.935530563008127092e-01
2.234473616232028892e-01
2.950467214373986846e-01
2.419517343268936804e-01
1.762432120658575241e-01
2.465035424750114668e-01
2.125193968831999292e-01
1.842547997353712608e-01
2.166106759333769616e-01
2.271525377647138910e-01
1.601349152736798731e-01
1.631397526405489184e-01
1.567559018889861100e-01
1.835278768389394244e-01
1.881163417589657993e-01
1.756787018475440554e-01
1.225372468308287832e-01
2.033952913676979890e-01
1.169832762306941554e-01
1.450300583659516751e-01
1.269963478633530096e-01
9.617348734704475599e-02
1.306436967024077744e-01
1.212278664415481072e-01
1.357701793700201720e-01
1.094337362565932503e-01
1.134950735547927414e-01
1.568272662016961250e-01
9.326769314235860975e-02
4.580838364578837529e-02
1.195177524783985201e-01
1.141518715141106310e-01
4.272648336300142319e-02
4.490068734296767672e-02
6.342372648529558121e-02
4.786056007742572893e-02
6.224222452649356974e-02
6.106267129328706023e-02
6.458560826634678065e-02
1.031889232013823571e-01
1.255429753286064765e-01
2.280184593172244686e-02
6.159441859163249100e-02
8.914407066155485837e-02
9.140747671855938006e-02
9.010027660694912288e-03
5.081742401983446733e-02
7.665577532479238287e-02
2.243397154853415260e-02
2.745105808575827588e-02
7.271654753735382060e-02
2.927395718962294557e-02
6.036632967718713605e-02
9.225037102737274064e-02
4.665874003832014283e-02
2.870925640312672195e-02
5.789300654842666205e-02
5.030582204059234896e-02
2.171598328883593207e-02
3.872167310351617986e-02
5.877550982845069355e-02
4.263464858390046686e-02
7.648034407810720692e-03
5.824396905589006301e-02
2.724130992985572541e-02
2.363154051567399952e-02
-1.597072742757545474e-02
7.342859130165182990e-02
4.914088807357083755e-02
2.110021453090283466e-02
5.189208966060056272e-02
6.667350164354804432e-02
6.005530391757367414e-02
2.374655185750275399e-02
5.972805560926743723e-03
1.837261495393660571e-02
4.661534173295190514e-02
-1.981762106291150988e-03
9.193627826892766808e-02
4.880196949215186153e-02
7.258888673158564453e-02
1.504173094293103849e-02
4.818826206332399442e-02
2.769893672724773118e-02
-7.069094263811474127e-03
6.741697676369406977e-02
8.952544128478641394e-02
1.254575817012551775e-01
6.557841435456540635e-02
4.702204933725787073e-02
8.954043752632735720e-02
4.431016525693687313e-02
5.116281680320393377e-02
7.010366944491210062e-02
4.829014122347070892e-02
5.319644229363824917e-02
1.292113343563722483e-01
6.113297516091319161e-02
1.087862129465502897e-01
7.058105391204695656e-02
9.540570710869805682e-02
1.149057052678093410e-01
1.119562214333019723e-01
8.768463767348697036e-02
1.438977104388974859e-01
1.250903318383916885e-01
7.445157534724830550e-02
1.570243831954332148e-01
1.358849356478886161e-01
1.326815799113872651e-01
1.489293037317475921e-01
9.419010322107820854e-02
1.235695899465578673e-01
1.562983270048747819e-01
1.237842779212072197e-01
1.772112794977006578e-01
1.201160887488926937e-01
1.555395065561055445e-01
2.029818917507397458e-01
1.371886428470465991e-01
1.646070468228358064e-01
1.374510691016871122e-01
1.190117202825469456e-01
1.839992780548301843e-01
1.640514160398533761e-01
1.676323560279363578e-01
1.742789270149040504e-01
1.403289438900348074e-01
1.293015065135731945e-01
1.717333117980760493e-01
2.118655929229724399e-01
1.791580939887982282e-01
1.305123258578904932e-01
2.659568985413206521e-01
1.474781543906017733e-01
1.386926544855950905e-01
2.583075281708632764e-01
1.962432745392532485e-01
2.246503962555154998e-01
2.973675255019660457e-01
3.403129848861288775e-01
3.175231739632375927e-01
3.831798987993402794e-01
4.586927131393708224e-01
4.177234344991040405e-01
5.159041077603043757e-01
5.545782609117581030e-01
5.930394614932706920e-01
7.238442161717870693e-01
8.008270393591481184e-01
8.542919699505614473e-01
9.222276569078511343e-01
9.647241322823193466e-01
1.047191005013395459e+00
1.113836054975363421e+00
1.220113557420458461e+00
1.145895491113408049e+00
1.211115951617401043e+00
1.248128028297266878e+00
1.281439730562938362e+00
1.313190394192946142e+00
1.288883836246894621e+00
1.227628621352159444e+00
1.223024415206469095e+00
1.157671000355674940e+00
1.117469524480421805e+00
1.082216652698295922e+00
9.072263477749566984e-01
9.105394584352742848e-01
8.186109670138632666e-01
7.498846769422347069e-01
6.870818394943128959e-01
5.804258934287459537e-01
6.092960698172614764e-01
5.856527002078136812e-01
4.578581512861337188e-01
4.488412371650519206e-01
3.344115173975159006e-01
3.532883404873768951e-01
2.642069158880887003e-01
2.309276622581266925e-01
2.279510205450983595e-01
2.570197873889398243e-01
2.209299507579565447e-01
2.176127899613342354e-01
1.211806509172096702e-01
1.242989879513379387e-01
1.382234709997957056e-01
1.948266716601682602e-01
1.703666942451148858e-01
9.637539056937585724e-02
1.430457525641395111e-01
1.335450823229352435e-01
1.525013596648336911e-01
2.281061622595908778e-01
1.579318273813800633e-01
1.557676458230820848e-01
1.365730171955818195e-01
2.012774894908035406e-01
1.766743147346976073e-01
1.589420838435788574e-01
2.084463162901696587e-01
1.822228318364894073e-01
1.909251680616264046e-01
1.704333833798268028e-01
1.471593622677404012e-01
2.329662838933026503e-01
2.243722780710891151e-01
2.247265395924542553e-01
2.144434707206532009e-01
2.047111161678042413e-01
2.273254870121489968e-01
2.473579146291651765e-01
2.408685405606661722e-01
2.101129348068418168e-01
2.620794771587315886e-01
2.364014837474725794e-01
2.370639416768991203e-01
2.205272600203167233e-01
2.240346709129841241e-01
2.445854826267012117e-01
1.985533917226941225e-01
2.261785103912521688e-01
2.221493055032403297e-01
2.314103691928830198e-01
2.450003297464087015e-01
1.936750506151512230e-01
2.847050193812785679e-01
2.314135792832267557e-01
2.476640456775758281e-01
2.564954467466480925e-01
2.807188078800544329e-01
2.279976986758719404e-01
1.930792550950454212e-01
1.792643817542484974e-01
2.272036047808347059e-01
1.995480965522992423e-01
2.553740089675994862e-01
1.808116629017187393e-01
1.679758453796512674e-01
1.618868944774352614e-01
2.597247228903524219e-01
2.328952029863150530e-01
1.496767487217398329e-01
1.652321580128717493e-01
1.585919962878846456e-01
1.126863429583854076e-01
1.567051357507754372e-01
1.750880859674880663e-01
1.520969133256801775e-01
1.369032940314478253e-01
1.274974235651402943e-01
1.216382559194145313e-01
1.347153337830996889e-01
1.665667641987360614e-01
1.071926142863559722e-01
9.013304193546188559e-02
8.059003312250934137e-02
1.591012349830001615e-01
1.532418990331039510e-01
9.131399647869903324e-02
9.120509012708724605e-02
7.532107446151069252e-02
4.458914406520565754e-02
7.262039940678415018e-02
2.470261255537114023e-02
4.006919530816873548e-02
4.504591559172722859e-02
8.777521969000756652e-02
5.344165217778008847e-02
1.814218220677977708e-02
7.640864447105948087e-02
3.603992651325024776e-02
6.338904181799037002e-03
5.134478955908721581e-02
3.417640968328741757e-02
-4.090268099245499694e-02
2.756701061265367375e-02
-8.144302549046404660e-04
-7.887388848696892663e-03
4.544091232720384732e-03
-4.348163589469215828e-02
1.706434295227581693e-03
1.454664044946604728e-02
-2.085162840930456993e-02
-6.940956528002358711e-03
1.075824031728695590e-03
1.186139232007049626e-02
1.438872863075510780e-02
-2.448102724977044287e-02
-1.580907339201646084e-02
-5.537183578558339814e-02
-3.035260170481766245e-02
2.736775748152960042e-02
-4.299924265923160682e-02
2.039979470299736752e-02
-4.970719477829929622e-02
3.992231910344406359e-03
-1.094851245860347516e-02
3.075686801276038274e-02
-9.292620610799154357e-02
-4.465817652596142107e-02
2.858436459578164723e-02
-1.906515281545946919e-02
-6.274234739591804527e-03
-4.854375593767231573e-02
-5.589257186150174694e-02
1.215236784084822164e-02
-2.604410077283619840e-02
7.286326221159297734e-02
-2.015236497205951521e-02
-1.216144826024081332e-03
7.034553601176968263e-03
-9.705336514862519109e-03
9.826830537079667138e-05
1.560901492233859877e-02
-2.451518215682965685e-02
-4.002249737736976454e-02
7.128422389282212945e-03
2.717571588971911395e-02
-4.216079530234970174e-02
3.108855628596286086e-02
-5.321058483388806104e-02
-1.561659384257890401e-02
-6.163352016047991822e-02
-6.983983210382233020e-02
-1.934638530905479631e-02
4.365523187449434073e-03
-1.181492245957391565e-02
4.989144263680036356e-02
-4.028430992277504119e-02
-1.349292765530328564e-03
-2.030268879234657653e-02
-8.432086406677419266e-03
-1.177028559357663415e-02
-1.667421331832147358e-03
9.810506207609120954e-03
-2.025998648473049252e-02
5.251758653895206158e-02
6.192742644555090242e-02
3.328147195273773590e-02
2.781679209390677115e-02
2.947156345294853902e-02
7.061879276042523634e-02
1.594911176662527214e-02
6.718752439112543606e-02
4.389256290265181049e-02
4.593565796584337529e-02
5.987022542878450704e-02
7.270882147811895402e-02
2.921068005852037880e-02
4.776987988769759719e-02
6.156146405255664977e-02
9.238379655650179323e-02
3.285446536752997110e-02
1.189525647302641931e-01
1.406967145850843148e-01
7.309923449348772195e-02
1.005034465852041592e-01
1.324481160315665318e-01
1.021688206593976966e-01
9.771695712643455045e-02
1.350325033680601639e-01
1.466858084112626082e-01
9.344486967791013066e-02
9.277743841351515641e-02
1.252758548572944219e-01
9.253776010019379439e-02
8.100646219639995316e-02
9.367605970507844604e-02
8.117718748344163182e-02
7.284738208309335383e-02
1.604314753184449549e-01
7.418784863190050483e-02
1.166571645725130724e-01
6.188116969041095733e-02
1.696213285918241886e-01
1.299492423041053724e-01
1.815511384027474751e-01
1.230811883117732264e-01
2.325984716916154882e-01
1.428844684477565963e-01
2.160306075407283921e-01
1.511165395043244097e-01
2.417525395715934000e-01
2.891883178910101271e-01
3.323879236099762102e-01
3.642985244544040824e-01
4.429537941410748303e-01
4.719598463029823221e-01
5.925851140492439662e-01
6.287930465041831063e-01
6.426792025581427037e-01
7.647235574853686879e-01
8.212575855909278744e-01
8.225723463538540114e-01
1.004254462450048457e+00
9.902344915540191028e-01
1.080160365128911559e+00
1.136825142076439699e+00
1.165426865347482188e+00
1.217870976738835598e+00
1.238958370313782087e+00
1.225416704348400332e+00
1.186138227652609123e+00
1.201253704540200307e+00
1.205675202516913513e+00
1.128359941836541092e+00
1.040935482138166224e+00
1.063759641962236602e+00
9.538302343344661205e-01
9.275533711759836875e-01
8.149443137250366176e-01
7.755828619763267540e-01
6.811019204339486821e-01
6.005831813008070119e-01
5.668022505538072853e-01
4.648732674551651067e-01
3.774113910194876187e-01
3.972772223700464789e-01
3.096517994157335085e-01
2.925406961301694753e-01
2.538506438261397546e-01
2.347729279691159188e-01
2.143271276561897476e-01
1.796328794299351939e-01
1.656437816343749869e-01
1.602542790728697653e-01
1.060076467718419624e-01
9.590257722383715988e-02
1.271181869650883645e-01
5.495985776286672897e-02
6.667297033587912813e-02
5.468141699059066857e-02
1.392284812012049566e-01
1.406869711375663967e-01
1.357169350713525180e-01
1.157301380244377537e-01
1.045896280756485053e-01
1.153941533563880156e-01
1.379543243986744439e-01
1.517792672733087600e-01
1.020034622905725552e-01
1.613320949158345841e-01
1.767490807849544099e-01
1.732477923451394564e-01
1.084803348387184674e-01
1.795830416668661444e-01
1.591126110507892488e-01
2.122522816842084825e-01
1.654060829906605912e-01
2.059574162261844643e-01
2.202682724644334233e-01
2.039650680301087760e-01
1.662093293113009740e-01
1.999845371341273104e-01
1.639570995140959830e-01
1.736921104680833883e-01
2.275230957992809833e-01
1.959523146749659606e-01
1.919855305347969443e-01
2.470878795815296125e-01
2.407135562206504653e-01
1.671664602734161953e-01
2.033246263389139608e-01
1.885566356245392539e-01
1.931119365956125156e-01
2.315485505652614406e-01
2.199463051657364887e-01
1.511778188671751011e-01
2.314209954466055208e-01
1.825604052325707494e-01
2.078030967412926588e-01
2.134460424882521357e-01
2.132661432733372053e-01
1.713432939659024212e-01
1.989423098311634830e-01
2.085889600638369257e-01
1.758675895934516675e-01
1.628535401500165736e-01
1.429244845104700179e-01
2.235251329723423885e-01
1.296307653204021026e-01
1.337558568454844388e-01
1.644221295187887899e-01
1.233215854847669324e-01
2.026798007722236949e-01
1.076880637952839503e-01
1.450781385829322534e-01
1.624285697125575356e-01
9.384486621110095517e-02
1.009396448381991995e-01
1.236169400368644644e-01
9.537646819325679148e-02
1.226367687045711585e-01
9.834671144205703319e-02
1.031608691905701869e-01
1.153169969629690150e-01
6.362606475688184493e-02
8.498814575922211678e-02
7.300318451926798846e-02
4.772758070023629118e-02
9.441685203203972754e-02
1.557504966726210027e-02
1.982722583418915219e-02
7.635749339537889480e-02
9.065345290223326968e-03
9.824663476019721009e-02
-1.527673727497104450e-03
8.376886098785586710e-02
6.138918043745994479e-02
-1.788777883798881030e-02
2.711783172348272014e-02
-2.025095249798346958e-02
-6.192338157951789157e-03
8.893836604973032189e-04
-5.045886415565451616e-02
-1.331126359881265597e-02
-2.311500096035888629e-03
-5.195955371490028341e-03
-4.359217525761083234e-02
-1.857587604255458297e-02
-1.196214036150347604e-03
1.254574847061511178e-02
6.355249282678994416e-02
1.941575238881741716e-02
-4.394871387138300084e-02
-3.440608349498704144e-02
-9.165992887440591042e-03
1.595261187555746529e-02
2.839025823335664805e-02
-7.745614777343490243e-02
2.569667198736594327e-03
-6.727467794568429971e-02
-3.845086716494425239e-02
-1.999116834735560622e-03
-5.746560351021461066e-02
-4.795273744134402605e-02
2.303119442090532931e-02
1.287385453867254809e-02
-2.262194807568355254e-02
-9.274274236243559844e-02
-8.723384391885102840e-02
-3.467124171487525469e-02
-2.510013860463061047e-02
-3.178699802659326612e-02
-7.103959903128054254e-02
-4.211898130991721667e-02
-9.671175461948219865e-03
-4.571011131718721865e-02
-6.834700186638645314e-02
-3.848913608248948071e-02
-2.669629017201208959e-02
-5.170348238733986357e-02
-3.151546858788323302e-02
-4.586656489508495610e-02
-8.342374058018536820e-02
-4.949176464764840772e-02
-8.885390345251216460e-03
-5.016872608382642873e-02
2.299864603903191418e-02
-9.291929476071864036e-02
-2.310984878109921536e-02
-1.688412612799522483e-02
-6.670423731615064689e-02
-3.363192373318061451e-02
-9.704713037355702787e-02
-2.734759312946815485e-02
-4.046358249552006042e-02
-1.453628256297243015e-02
-5.739260903364760968e-03
-2.685730588914535255e-02
-5.307033480616030890e-02
-5.648817471534622880e-02
-4.696403096538689231e-02
-8.091028998853042054e-04
1.653420019459270196e-03
-7.099248242198441528e-02
5.458723489774465476e-02
1.258932069766892370e-02
-7.410528516011809230e-03
-1.116839459841496851e-02
2.284159620513738498e-03
5.542334158032742597e-02
4.812786640148385836e-02
2.538131848727284007e-02
6.329134582211820570e-02
6.098474587181489798e-02
3.636291450939928283e-02
7.982424494468773335e-02
9.003664881523901209e-02
9.143284088548084276e-02
7.758922518212083008e-02
8.104611721146681713e-02
4.382465934152331849e-02
1.601770877627919920e-02
8.642160423628456045e-02
7.545169786844738158e-02
7.462049246279151005e-02
4.813027056458141217e-02
1.155756290361121541e-01
9.090649004025894153e-02
6.825527066720357694e-02
8.135056945020879837e-02
7.151410185260706487e-02
9.645139080261794229e-02
1.072376982697254844e-01
1.233585139772253036e-01
5.517914650606089294e-02
1.149269811458491636e-01
6.487114621549226745e-02
9.896522983613295632e-02
1.245327612083136498e-01
1.053872941896389914e-01
5.087584912057838832e-02
9.911442787609009430e-02
1.613048505111980557e-01
1.470400325664042995e-01
1.920952669489058851e-01
1.246980794466412967e-01
1.063621743292487432e-01
1.233911095061555468e-01
1.500907365425319662e-01
1.487981504974927316e-01
1.948726495882041332e-01
2.097063540784571689e-01
1.742369085405937323e-01
2.721140797118482002e-01
2.846604062284268655e-01
3.661150926129511096e-01
3.934221242028642096e-01
4.462400806293314592e-01
4.655387040841110768e-01
4.883501026964838232e-01
6.311872027082577885e-01
6.816149858057817257e-01
7.795772356632287847e-01
7.850601395928754611e-01
8.800300769140159129e-01
9.394150597878526687e-01
9.830890078911185270e-01
1.012198859508486537e+00
1.104051013801276016e+00
1.134245981012207416e+00
1.230126306499035316e+00
1.226902616510086474e+00
1.213817445502173742e+00
1.265089490762884017e+00
1.245128503757126914e+00
1.200587872850140014e+00
1.162336388527176689e+00
1.090818931958505988e+00
1.074140223270437788e+00
1.004391327715286497e+00
9.803549905085615634e-01
8.901669277981640871e-01
7.966256990167777108e-01
7.740714726193596018e-01
6.476851288449886335e-01
5.838280013438937877e-01
5.351421929214431605e-01
4.902013715168508923e-01
4.277803140179362029e-01
4.192947009821397786e-01
3.369880576156454310e-01
2.256572968093573661e-01
2.518892719665998814e-01
2.191524942560735822e-01
1.659672418093166013e-01
1.672085515021425606e-01
1.179091991052317184e-01
1.535535451897136472e-01
1.329062026879832548e-01
1.010368439307377936e-01
1.119552204365802939e-01
1.606738516621761259e-01
1.274608832881733989e-01
1.161610562892497200e-01
1.057799176951480374e-01
1.480807698212351919e-01
1.581085881064104304e-01
1.592548691000227057e-01
1.608390605508208115e-01
1.774811377362052189e-01
1.406068160893727548e-01
1.336021036052108257e-01
1.708272063603450686e-01
1.683066074561041792e-01
1.622266356868399817e-01
1.758779813939779224e-01
2.386341388513998352e-01
1.936673619003516644e-01
2.098706506460823462e-01
1.484656618498794434e-01
2.311367633215833939e-01
2.011000738817199651e-01
2.074263962093456648e-01
1.991577224925617229e-01
1.735835864056347599e-01
1.657681625235073730e-01
1.911377270758354563e-01
3.228448479517144198e-01
2.655504014839644156e-01
2.262026564084244629e-01
2.352098587634310622e-01
2.700191725556292388e-01
2.327280246433511279e-01
1.699408594076978751e-01
2.658990254721493307e-01
2.297401426461916363e-01
2.348308742951117911e-01
2.270165248984779560e-01
2.209644450336696875e-01
2.507436422279379906e-01
2.302605243141222779e-01
2.313656736154151572e-01
1.975197943817469937e-01
2.910173772929799396e-01
2.588339225133716170e-01
2.474967857904452617e-01
2.625412708630917025e-01
2.163628419782408496e-01
2.396763920275456761e-01
2.313443142650018491e-01
2.068410785302564336e-01
1.969049957199092704e-01
1.949793499237493510e-01
1.974399702551778435e-01
1.486263978748380288e-01
2.028458089205960047e-01
2.148829158899829006e-01
1.580724808653888591e-01
1.552880749131414218e-01
1.455874798925455849e-01
1.505607712089264416e-01
1.221227892924694747e-01
1.383233024770706421e-01
1.777004164372476269e-01
1.099511626067311842e-01
1.312276763961108261e-01
1.545081568559567853e-01
1.389901835509727290e-01
1.404698442438341854e-01
1.341676473968418659e-01
1.193165136307632740e-01
7.472371198829885763e-02
1.066548130308290765e-01
8.070743188311653438e-02
1.201393505976847825e-01
7.121066443438454907e-02
1.166539863113827125e-01
8.542722842325388422e-02
9.282789941107899567e-02
9.368732460102618953e-02
1.116465739465251350e-01
9.363179745052530034e-02
5.249680877758596681e-02
8.143169579798885394e-02
7.046331208951903124e-02
8.151607571101966709e-02
5.476514318576589102e-02
9.386579144476860093e-02
5.161521989560750867e-02
-3.277039106521677583e-03
4.361417460565124304e-02
1.311778934516815223e-02
2.358191294610826466e-02
3.055755632584280373e-02
4.617919081786357738e-02
1.771126504246547939e-02
7.236798441873938670e-02
2.771529409323464019e-02
1.653611025138952348e-02
5.182625178722487236e-02
2.910928525931168187e-02
-2.387068027470402171e-02
-1.554638335064901719e-02
6.818073099208214749e-02
1.520411059430203451e-02
1.267497848317220357e-02
5.109903177711498656e-02
1.201459384648090149e-02
9.174636588013072164e-04
1.124473080283527882e-02
-2.862418008486352500e-04
6.865157383848296234e-03
1.225291991234011765e-02
2.144739741716171488e-02
1.584777818742184614e-03
6.569002093500085279e-03
8.918934514527073615e-03
7.906482617498739041e-02
2.095382987619040516e-02
-7.039086202074762433e-02
2.376311625715566041e-03
-3.119301206632857024e-02
-2.791353570366156105e-03
-1.281016594694410959e-03
-4.004158662556939197e-02
6.252023770808251557e-02
1.266262537424158244e-02
3.991547177836227145e-02
-1.066657275490964438e-02
9.385319689813953828e-03
3.301492747215932499e-02
-2.417078009368501049e-02
9.153994016094046948e-02
5.175050097828260559e-02
2.279408553331288209e-02
2.894023377586901757e-04
2.622187274933560769e-02
-4.318403944902259733e-02
3.496187715204954194e-02
7.051607780686289240e-02
-1.503125998171312393e-02
1.351405265654821372e-02
6.652985624729901640e-03
7.071275879901842143e-02
5.484769254962166413e-02
2.485153565662251082e-02
4.517656229526505196e-02
5.433616043585316052e-02
1.798026880950551187e-02
2.465925308895575152e-02
4.636933428773704763e-02
3.846661306529410018e-02
6.564196854013763793e-02
4.960297557633582682e-02
8.287952987334022692e-02
8.073687846640156818e-02
1.063911187718851459e-01
1.005094976146303914e-01
3.975221077112106594e-02
8.839474195359035835e-02
1.214266000880695334e-01
1.483725276329220522e-01
1.515412755900091557e-01
1.596732708739547757e-01
1.288507858806867690e-01
1.633606257506604875e-01
1.902033575772115737e-01
1.631735095204831509e-01
1.513606979077992687e-01
1.621636735551784114e-01
9.154758337071715324e-02
1.382579249840069358e-01
7.645388014270257382e-02
1.547440009309809794e-01
1.331964839015820079e-01
1.128070882130610270e-01
1.760433775409465107e-01
1.425952006048260279e-01
1.596611072544288634e-01
1.777113866476150439e-01
1.213288275136007177e-01
1.879713428982160983e-01
1.682622082274523589e-01
1.823462530638141066e-01
1.443990709399575745e-01
2.007245468716467030e-01
1.707060846499578177e-01
1.777406650278584299e-01
1.638122335985565947e-01
1.371003360150725991e-01
1.893525717536532482e-01
2.140703499135290511e-01
2.017787921043491250e-01
1.931545117803957212e-01
2.271655232420138337e-01
2.781552894002193854e-01
3.129406755640712912e-01
3.479703696449447659e-01
3.860421506854063156e-01
3.666379317258161574e-01
4.584874502195765422e-01
5.046180247381726325e-01
5.461595330719346553e-01
5.647745479776019595e-01
6.724153314519405455e-01
8.062712114740433478e-01
8.340877811756878257e-01
8.886366144555255531e-01
9.374922558998396438e-01
1.049621057136842062e+00
1.141322165088433760e+00
1.165806083830503326e+00
1.159924076551390293e+00
1.205836544933488019e+00
1.228723599852023396e+00
1.344317528392782846e+00
1.294867515502809985e+00
1.302701306683090809e+00
1.274713204377325493e+00
1.247952917906220760e+00
1.173890101881188919e+00
1.118196304949045539e+00
1.057522294258336881e+00
1.029755933286360170e+00
9.490809290602072457e-01
8.783226911786313762e-01
8.261121819021857160e-01
7.027650477891677072e-01
6.462059321000193091e-01
6.499357579181198608e-01
5.944369660564347013e-01
5.420951534630725765e-01
4.339050221076388159e-01
3.923899965177540805e-01
3.857778923535135074e-01
2.686643361527353280e-01
2.782645467017365593e-01
2.711835900448703596e-01
2.286856314044220795e-01
2.525260127767902651e-01
2.092018331301768175e-01
1.595083911064725246e-01
1.769507870545744543e-01
1.572322314099864615e-01
2.130245394260203706e-01
2.048132086741276114e-01
2.037336376324361265e-01
2.051822302174030332e-01
2.123150310691400700e-01
2.580778388282888858e-01
1.845811223294533954e-01
1.966785625817941141e-01
2.009729777357676106e-01
2.135622032580873630e-01
2.197300616237743975e-01
2.611826906262483816e-01
2.654680596424782157e-01
2.314926227640251855e-01
2.555360333726252042e-01
1.887970930125605629e-01
2.561016318659407598e-01
2.997465224857204236e-01
1.534789843724918001e-01
2.757962762297257453e-01
2.839037256054389169e-01
2.553360523389096026e-01
2.847935318455869225e-01
2.542059775011837885e-01
3.226283270979308782e-01
3.022421375072173455e-01
2.858686331061882635e-01
2.373361575153815628e-01
2.583515363904713147e-01
2.146299643420762071e-01
2.816352954165820544e-01
2.936244011681883315e-01
2.765949054478824554e-01
2.765437985990459868e-01
2.740809860038302403e-01
2.603454250712865514e-01
2.778289753339673873e-01
2.936263278996505410e-01
2.339037892183837841e-01
3.296468462256804122e-01
2.710972674739810517e-01
2.611703650363928486e-01
3.061993391179483326e-01
3.120813790708730218e-01
3.290614687454911924e-01
3.144450698468789773e-01
2.306029608324736968e-01
2.796504751775307773e-01
2.929002506346425894e-01
2.861544569407383776e-01
2.128874768685012353e-01
2.311372982510231100e-01
2.296100831875252102e-01
2.696365401195611744e-01
2.275194452202826401e-01
2.549255298230487243e-01
2.279969685249769729e-01
2.527079615770906340e-01
2.321779881284785629e-01
2.311033986792560002e-01
1.595821299930473003e-01
1.846132403569944735e-01
2.274619081074542304e-01
1.926683054575537568e-01
1.646256508792034723e-01
1.479849329820881465e-01
1.338234828386957731e-01
1.947310153063315785e-01
2.365138492073436127e-01
1.198722680169025667e-01
1.789656727396425617e-01
1.528681562580173625e-01
1.529323577150971114e-01
1.593410199795112780e-01
1.023480584672926963e-01
1.461166621453101333e-01
1.922640664991976944e-01
1.436972923356131804e-01
1.349964312508688258e-01
1.314496829813551482e-01
1.182834552825541008e-01
1.434017337645110413e-01
1.513968360786606127e-01
1.039555727522588485e-01
6.557595699661444844e-02
1.347005232645696882e-01
9.880382803996312635e-02
9.240293446097405661e-02
1.247750034344619896e-01
8.734471064261009610e-02
1.242973205253667113e-01
1.267114343549520239e-01
1.190918877172027213e-01
9.664042144740207785e-02
8.162388257918490320e-02
6.675708737162310002e-02
4.606730785170413955e-02
1.141236843417074709e-01
7.502107964256674033e-02
5.519519827475636436e-02
8.716675198261350510e-02
1.117431172458927952e-01
7.162176769319288094e-02
9.606023619846762451e-02
9.829482611275000559e-02
6.613124881092005691e-02
5.359683824375301164e-02
8.915271642278985165e-02
6.853956115249162928e-02
6.696506965510611031e-02
5.611182177088852585e-02
6.505122438260357853e-02
4.284987541129701982e-02
4.213345635042499426e-02
1.213870918861378323e-01
5.335091020377325660e-02
7.743127454062671833e-02
4.517521027698392921e-02
9.535016340232908838e-02
6.529951107603297611e-02
4.993611073197420230e-02
-1.886682285514626467e-03
3.635712920367674406e-02
7.852016011072296409e-02
-1.071285882261772959e-02
2.892709029028837919e-02
-4.034298350665369015e-02
-1.163070481214209528e-02
6.435613434120934784e-02
1.877843988434563932e-02
6.721687002164407343e-02
9.185507108015417144e-02
5.134276516681758606e-02
6.020359358865860072e-02
4.329566561560146271e-02
7.230481077771583331e-02
6.551322729951158941e-02
2.981161732974029963e-02
5.520001400090342875e-02
1.111577714936638206e-01
1.135480963866999232e-01
7.985879898697331725e-02
-3.522682876862942569e-03
1.081814487426158711e-01
4.471923687028968308e-02
7.028123274988137825e-02
9.208352388593901705e-02
1.395804826317271485e-01
9.016636310387587949e-02
1.203792453070543361e-01
5.406552660961729678e-02
1.167125876472399765e-01
1.441861477140691239e-01
1.060970304862637326e-01
1.178480906561644448e-01
1.706478675084519558e-01
1.204751006573811789e-01
1.490616753760565794e-01
1.164497239081730695e-01
1.429653819447564977e-01
1.179059954947639516e-01
1.075004056804961389e-01
1.442189465433981466e-01
1.985157945379591171e-01
1.750373869077975486e-01
1.941783047905218385e-01
1.414870960145996337e-01
2.424879228558821931e-01
2.112090967548156117e-01
1.561426800487619726e-01
1.746831444325346039e-01
1.452893422665434975e-01
1.442496314901422771e-01
2.077195761802597962e-01
1.300235095003183239e-01
2.029101989637742132e-01
1.782576280015034098e-01
2.174080617981788421e-01
2.052888691936894383e-01
1.595089688138954243e-01
1.948103563373455027e-01
2.065716309395054517e-01
2.048804825453788558e-01
2.000433474308501158e-01
2.404524594360659129e-01
2.375110396126552670e-01
1.723392807486561207e-01
1.667089939451291691e-01
1.736836698867744166e-01
2.118506254310732750e-01
2.318002185082707611e-01
2.896570640881181435e-01
2.211845853156491626e-01
2.643286147289799493e-01
2.771670363970532569e-01
3.224990286970598197e-01
3.356136423611357222e-01
3.458475996982939282e-01
4.151679803448065087e-01
5.072940700535014669e-01
5.041030952265970200e-01
6.113400849263670445e-01
6.183042524567532450e-01
7.214156504348548937e-01
7.357948963892431138e-01
8.374529206395633363e-01
9.273886947570817441e-01
9.883010027562501021e-01
1.084287997469152387e+00
1.178962157826964230e+00
1.108339402676844720e+00
1.169892019198385036e+00
1.204132290882324652e+00
1.338406828953718097e+00
1.284633251858941172e+00
1.303456856090290161e+00
1.328746570425979545e+00
1.299214185722663117e+00
1.287255872480650210e+00
1.223941487682951745e+00
1.240872997675297018e+00
1.111867480716250967e+00
1.081997944513189092e+00
1.028026932595997200e+00
9.710883009052494463e-01
8.920028189571455046e-01
7.997505816618319940e-01
7.175841666248820028e-01
7.229959521839700587e-01
5.667414526094337601e-01
5.704242683515104995e-01
4.524597078640646419e-01
4.530155243790161546e-01
4.228419270040322808e-01
3.145399835952889522e-01
3.412119606088953594e-01
2.729815897282230619e-01
1.988986472401390038e-01
2.731618913122807468e-01
2.019128592416707946e-01
2.015113132229654769e-01
1.688540135511023554e-01
1.856655033463215920e-01
2.456070063530618741e-01
2.547592729956328350e-01
1.756837651195546635e-01
1.962138940076076643e-01
2.115020238791526508e-01
1.744409546849746417e-01
2.283948836603671706e-01
2.557240590123572854e-01
1.802636045760830363e-01
2.620879512007806555e-01
1.894976973585675295e-01
2.212583201426410739e-01
3.096666935393895814e-01
2.950636763256827000e-01
2.025550342052920560e-01
2.730330597058245323e-01
2.122251810422598473e-01
2.718025166060725750e-01
2.482323993306069787e-01
2.825282158351176687e-01
2.776552325563901302e-01
2.786463139163635749e-01
2.687257503913447199e-01
3.450013575608029681e-01
2.659352895757255975e-01
2.633785231599165000e-01
3.327194925402762737e-01
2.565917285921475721e-01
3.202308586435230753e-01
2.819806155468466691e-01
2.672108229068859697e-01
3.281814346544673078e-01
3.040122479469398731e-01
2.975331088046645478e-01
3.013636662186979787e-01
3.164879031525539288e-01
2.520398414361446071e-01
3.276597911609011593e-01
