1.290344432839841682e+00
1.287114564258703631e+00
1.295079280206265837e+00
1.283615684616996155e+00
1.229635706294411213e+00
1.201819583547012682e+00
1.107523958843664724e+00
1.091568285042080033e+00
1.008009092807236051e+00
8.803623463789370662e-01
8.603277910717338495e-01
7.705585580972469373e-01
6.759613929977765778e-01
6.499987701896183800e-01
5.821606073311285101e-01
5.306926143626566894e-01
4.240906466700615218e-01
3.430981400151652538e-01
3.559323265982738405e-01
3.207891605215804631e-01
3.117578775072737951e-01
1.897899291544712375e-01
2.679511314808875611e-01
2.559147463471290740e-01
2.440401760969430067e-01
2.322886699497485052e-01
1.667828340158698242e-01
1.683912013291929965e-01
1.856061325690995800e-01
1.857562565678092803e-01
1.621064158655524112e-01
1.971588127963779247e-01
2.080062945230145566e-01
2.073445876937937415e-01
2.050746149385936357e-01
2.164694823793633649e-01
2.014121901575700313e-01
2.292402366126316260e-01
2.299881843215421107e-01
1.985693753733797362e-01
2.819685050743661603e-01
2.768202163531552351e-01
2.563366549202881206e-01
2.738995294464100505e-01
2.534035297482680194e-01
2.378045729623257665e-01
2.857828685503311927e-01
2.645581749653417303e-01
2.809709177521374501e-01
3.092694946337333772e-01
2.197999587414855294e-01
2.830632968284202411e-01
2.449699184702901211e-01
2.695559818377472050e-01
2.537509835359744170e-01
3.138584062285759146e-01
2.946341882365948184e-01
2.839012392966653309e-01
2.368589422910750697e-01
2.682736033122868347e-01
2.707106764554909617e-01
2.944250555740491326e-01
2.725010478110915235e-01
2.756501494160209509e-01
2.116461457381544342e-01
3.118726805429377080e-01
2.475200118799402160e-01
2.607576086232367696e-01
2.957871782986893905e-01
3.045036015293678955e-01
2.766710671226592089e-01
2.847606129496398353e-01
2.998450999112023951e-01
1.899695132662351793e-01
2.917568025349137062e-01
1.972831028094770844e-01
2.489039944399049076e-01
2.674312173029069761e-01
2.217797291466131471e-01
2.409169905568656067e-01
1.473656829456296280e-01
1.992572208034846803e-01
2.096080148800427700e-01
1.992775229059211284e-01
2.196851721462520224e-01
2.710052619494396353e-01
2.399676663447042890e-01
2.361080609974004485e-01
2.180894847426754768e-01
1.563612516031641642e-01
2.295127466133534411e-01
2.000494650593431789e-01
1.991826248689618495e-01
2.024989281499749993e-01
1.883119175292373160e-01
1.788264113870970673e-01
1.380566357108926612e-01
1.267668041430613790e-01
1.218662351200160421e-01
5.993253337098661260e-02
1.269772644772673154e-01
1.535300272609072814e-01
1.661048334968542595e-01
1.058849279835350488e-01
1.199260129048429907e-01
1.032202889370911064e-01
1.207779994435738830e-01
6.862081931516991751e-02
8.955097927861316309e-02
7.728063281441724386e-02
1.163890697861536538e-01
4.217970354348685169e-02
1.008905205264493676e-01
1.137650725198815216e-01
3.901743824974297781e-02
6.029607324945440716e-02
5.056008368930942076e-02
1.211200006111609329e-01
1.113629912269665928e-01
9.540234324414624545e-02
7.727545470864306820e-02
8.897484240223030305e-02
7.777763485425510936e-02
1.054617227430127979e-01
5.659708712646578654e-02
-2.104876134799962134e-02
3.615531616100001178e-02
6.525301758062786173e-02
3.717553722478335321e-02
8.082471514879180363e-02
1.824793679047476483e-02
6.869017762843658559e-02
-3.810327023831654170e-03
4.867113017325709612e-02
1.287710458889980425e-02
-4.277839595130446954e-03
3.282330889532818208e-02
-3.092407722190122082e-03
5.535030546303422450e-02
2.035149984853180244e-02
3.295556451137213183e-02
2.758236649341164887e-02
4.522433323527424998e-02
6.608479193124093543e-03
6.026521895296811648e-02
8.725291677498739351e-02
-8.005435549194937772e-03
7.239962062268165410e-02
7.428445878336315672e-03
8.243528308234777946e-03
4.826230735574641578e-02
-1.079112954025070181e-02
3.991259780025496057e-02
3.805965379766385048e-02
1.899217136327798622e-02
1.750765633912258062e-02
4.482554463361944005e-03
4.201005993653728066e-02
8.474292208374681681e-03
5.334929880804251123e-02
5.419894416315512720e-02
-2.383611749044492814e-02
-1.985808631132638183e-02
1.431153759156772627e-02
-8.197323399773285071e-03
-4.531856197011168569e-04
-4.023775247879888758e-03
7.862667728215820551e-02
5.561338247727063561e-02
-3.494173342968694834e-03
-3.548303919994055811e-02
5.993340729038046724e-03
-1.454546479660163115e-02
4.611200809048190963e-02
2.769444684920396860e-02
9.806327740045524960e-03
2.584023715227526385e-02
-4.782384690472950284e-03
2.444829513775408775e-02
8.216168921974868755e-02
1.451517120076118578e-02
4.016568913266799906e-02
1.591272463528378353e-02
1.782186175862244398e-02
6.924685854688159004e-02
9.957414514812232276e-03
4.453046651720318772e-02
2.673303512464917167e-02
9.753461754252196192e-02
3.892880834971230997e-02
2.510524503257997864e-02
6.207672281183426732e-02
6.599628241049136645e-02
1.075122483806987828e-01
6.225121271442991822e-02
9.551145775249256231e-02
5.699341408722041064e-02
1.238874132884003193e-01
1.220544943782451847e-01
1.165294306677441272e-01
1.292016036841626414e-01
1.162145858116779978e-01
1.161075805528463678e-01
8.235562863719333992e-02
1.006956126580939304e-01
1.500501069593732639e-01
1.526583692084136912e-01
1.586941365237308221e-01
1.224960783212485915e-01
1.888608314937474109e-01
1.362691574586930299e-01
1.577950387346969130e-01
2.296743297647276805e-01
1.329726301378348352e-01
1.716686905441437705e-01
1.061625169694308257e-01
1.415125081617011060e-01
1.713011164800686825e-01
1.354252266273302530e-01
1.554157264410600814e-01
1.611332553501786669e-01
1.591027858139698048e-01
8.800512327306822535e-02
2.213619781518892382e-01
1.209188157236627814e-01
1.304740924255519408e-01
1.068951940516680299e-01
1.264717296263954127e-01
1.580227074646531060e-01
1.938642752735595109e-01
1.509587162132595972e-01
1.813911336412369901e-01
1.976154060945223556e-01
1.678856347828205919e-01
1.631942894081225282e-01
2.113422403223275958e-01
3.059376878974495728e-01
2.724270431708279427e-01
3.102073714241189162e-01
3.836556553245956680e-01
4.391313803994476017e-01
4.377645791884256510e-01
5.513536478500541405e-01
6.056826112648023841e-01
6.391422262751574879e-01
6.687538232130143534e-01
8.189307154645264486e-01
8.760864490676415484e-01
9.403509692066729375e-01
9.598250341992217161e-01
1.131661848339588383e+00
1.089163887688403332e+00
1.151533616172351060e+00
1.236574205049565833e+00
1.239569158505919644e+00
1.260797065151426644e+00
1.225366422840699521e+00
1.217709938485150856e+00
1.250677756044775268e+00
1.198658981751362429e+00
1.229297421391810419e+00
1.089202229219772722e+00
1.056413709557340486e+00
1.011987199110203406e+00
9.258581497391294990e-01
8.451710870443702728e-01
7.995409076529975678e-01
7.863729353952939594e-01
6.360468466846488367e-01
5.394951449505841490e-01
5.407117915393079288e-01
4.539372841378498946e-01
3.796931556286409770e-01
3.804206933927484768e-01
3.326557291014529683e-01
2.603280233367146201e-01
1.985318675321033066e-01
2.488585562135789964e-01
1.783305301038332069e-01
1.886578369433709046e-01
1.624559453555052824e-01
1.708536069196507912e-01
1.548370781203776692e-01
1.818500463158836400e-01
1.590069476535013737e-01
7.872602084902512176e-02
1.270678426763932056e-01
1.431869505841506518e-01
1.288535084514844664e-01
1.791902440022599685e-01
1.606719110107577009e-01
9.363915193801788939e-02
1.435064859112444580e-01
1.594572889323586928e-01
1.390153816444049950e-01
1.877114814774224483e-01
1.882430386605451200e-01
1.875302629491111817e-01
2.020574976510784715e-01
2.244792367850168835e-01
2.132274243053763896e-01
2.165325837759693173e-01
1.955865064583579283e-01
1.823741733158083522e-01
2.646045305418467386e-01
2.189211603478654344e-01
1.806329255684252788e-01
2.101047557848611247e-01
2.046008792489684980e-01
2.423345888631271150e-01
2.102928865418765836e-01
1.753989050505299074e-01
2.408794917706204020e-01
2.087385620793061891e-01
1.567174098302918095e-01
2.540106407347548778e-01
1.880861959805610051e-01
1.981422208714471167e-01
2.302999664636098398e-01
2.319055726900525194e-01
2.109397680994716251e-01
2.374302583524107724e-01
2.505926781647319634e-01
1.965417379679977872e-01
2.247643324577947022e-01
2.246774807222529646e-01
2.545680617718161232e-01
2.226684483352416311e-01
1.583906102999283472e-01
2.800846982057365597e-01
2.110437463105880318e-01
2.120627793310939646e-01
1.976835742433583343e-01
2.053732377085652205e-01
2.060696310352315153e-01
2.124147060509574969e-01
1.803614240192868423e-01
1.089437507925270499e-01
1.628772055722851053e-01
1.649501451399051355e-01
1.459640698883729049e-01
1.291119833264308403e-01
1.423045783447011714e-01
1.773222540237705536e-01
1.559623504256666959e-01
1.007381702350095554e-01
8.353618977363709563e-02
7.789850633618018716e-02
1.328896668869480602e-01
7.505220499706777293e-02
1.123903411164245691e-01
1.292867036749419940e-01
1.163628633530821715e-01
8.888638439477999920e-02
1.407793025315331736e-01
7.069745706916849559e-02
8.801186076163983185e-02
6.750727354536434355e-02
6.822106234185196239e-02
9.400398549491403855e-02
8.408321150021946799e-02
5.623881492913349739e-03
2.473797937814154607e-02
7.602512733370335452e-02
7.647344434147794467e-03
1.232042093204868682e-02
4.906604603054767755e-02
6.397954661331281545e-02
5.642036354754546151e-02
-2.097426393036715131e-02
1.565872709268553709e-02
8.977112410969677325e-03
-9.220813115216539013e-04
-3.332566949299309994e-02
5.191229624038366103e-02
4.530067284271119266e-03
-2.413499837705350426e-02
1.323829210051401944e-02
-5.184084563419268099e-03
2.261696956801781400e-02
-1.961702147764179602e-02
-2.014995576832670152e-02
-8.392836772170030046e-03
9.520487186038803507e-03
-4.244119748927931146e-02
-5.681778805619687456e-02
-1.191179630365447883e-03
-9.672204038624131889e-03
-1.810481995390462659e-02
-1.858569834163243187e-02
-2.152406549069893482e-02
1.676522885098639948e-02
-1.865346540321206892e-02
-3.191615670947182959e-02
-5.824698333084724761e-02
-3.968509289046490834e-02
-1.244790840236644630e-02
-7.733486616799185864e-03
-7.468147783366159420e-02
-4.998978975537915481e-03
-3.594403865028644035e-02
3.758886671381402034e-02
2.872222879431632347e-03
-3.977436920178577945e-02
-6.993553220861718767e-02
-6.639880283180787934e-02
-5.201773454903066418e-02
1.743819207055240933e-02
-4.616298953592093413e-02
-3.076308398739652922e-02
-4.189405334483858878e-02
-4.374377026853110140e-02
-5.065904339599058837e-02
5.583301992893648091e-03
-1.246883152668604514e-02
-8.129315868960250435e-02
-8.811967465518974474e-02
-1.406175299104875723e-02
-6.005990085522050492e-03
-6.587574134184731589e-02
-5.082726772782326236e-02
-4.590951318608628429e-03
-1.803624533945350633e-02
-3.662382169296367340e-02
-1.898364916278838868e-02
-4.293777746892773334e-02
-4.687030798702709888e-02
-1.879314487414934787e-03
-5.285274178412674440e-02
-4.595055306568432418e-02
2.023187030485615323e-02
-5.520262507144840097e-02
2.198178728581386132e-02
-2.113295319373745956e-02
-2.458024748415520849e-02
-7.234340237943587271e-03
4.305057326555776498e-03
2.219970638657878248e-02
-2.308277791615619481e-02
-4.895995468987765498e-04
-2.457488689035587995e-02
-2.474579307755206403e-02
-1.679709175984755998e-03
1.991079887491632727e-02
-2.645479508957769565e-02
-4.323399276420620413e-02
-2.233299802949362950e-02
-2.263497128267594194e-03
5.464536620770901049e-02
-5.191627957082813050e-03
3.915977073368940437e-02
6.254318568569064429e-02
9.741571469376937575e-03
7.804460408487309819e-02
5.897196761898317041e-02
1.708216030562650228e-02
3.876034799213261967e-02
3.121607978077684670e-02
5.159204539982724380e-02
7.552531264666113853e-02
4.822295031780793328e-02
8.289438548110353300e-02
8.105179122018199567e-02
4.759134869934170814e-02
9.421971425530384359e-02
1.185723497664121218e-01
8.222962098622520200e-02
1.142979717211748680e-01
6.404178462611795353e-02
1.431746461356340483e-01
1.171015183478254507e-01
1.216887283945522757e-01
8.203723592097300621e-02
1.240870356491767246e-01
1.160503767048750023e-01
1.264128153903702201e-01
1.434334682295987096e-01
8.995398088655318092e-02
1.436059350787434741e-01
1.276160161153482298e-01
6.984222502194430138e-02
1.552168929859260582e-01
9.096619930171208346e-02
1.148858111990504749e-01
1.190466181613342722e-01
8.724457902299206924e-02
1.478410177446955465e-01
1.167903591478556824e-01
1.022767784134787916e-01
1.295593713036345962e-01
1.168539838859579960e-01
1.523502259871703512e-01
2.475589269477496690e-01
2.022659702275768911e-01
2.940453912066743336e-01
3.071801353209900887e-01
4.034607554286081532e-01
4.221830726204693907e-01
4.435740918751047701e-01
5.587575279415329943e-01
5.951594683910260697e-01
6.951624839730612404e-01
7.550606109109518904e-01
7.844023890153521972e-01
8.819520639814951712e-01
9.358865020283414493e-01
1.008153125939693195e+00
1.068765031570235724e+00
1.074622553456236140e+00
1.172036279157498528e+00
1.183744282923222535e+00
1.174966174798933505e+00
1.186339785883395281e+00
1.165213463534890304e+00
1.260215705711251521e+00
1.173787212763711008e+00
1.148476258684676399e+00
1.133683038473847882e+00
1.117469549311401300e+00
9.527162568754915517e-01
8.918924386144733152e-01
8.075620566267251998e-01
7.617693339374528305e-01
6.405257162882036504e-01
6.637827419014473707e-01
5.719190584405926536e-01
4.866503863572529398e-01
3.893732833942525340e-01
4.217774182830150154e-01
3.161242822918556850e-01
3.378192501285094407e-01
2.386283779775386638e-01
2.171722520652537569e-01
1.499881439230957292e-01
2.009236499666545717e-01
9.615163746275751100e-02
1.552077235863789650e-01
1.623555968434622909e-01
6.305705957498983216e-02
1.355042483210969206e-01
1.474872037603274233e-01
1.158351370482259141e-01
1.205027521351828002e-01
1.155846250585220170e-01
1.082034793167540310e-01
7.830421632551534672e-02
1.108237882817266762e-01
1.071933898684540309e-01
1.767456567356863184e-01
1.227427379059273932e-01
1.282705537183940481e-01
1.394340151271112604e-01
1.518566765808077867e-01
1.196226652977349370e-01
1.758916759291355436e-01
1.493585407758682426e-01
1.781271221595717158e-01
1.332043799836027664e-01
1.602525759448797105e-01
2.128436471378538919e-01
2.316677736136666110e-01
1.956189302342581926e-01
1.453301805650506484e-01
1.267813287919367649e-01
2.050322056731253562e-01
2.471223589283124966e-01
1.785283890971920417e-01
1.867180469005027821e-01
2.026600652279845483e-01
2.716202118937995347e-01
2.033108913941555351e-01
2.050239990357083653e-01
1.885805785925947775e-01
2.037125802478760850e-01
2.348381229951408133e-01
1.816206745310272319e-01
2.295615524570486787e-01
2.304108782403991307e-01
1.759506274066758302e-01
2.226697485437417745e-01
2.591521361299424786e-01
1.593058908223444203e-01
1.897034933907872922e-01
1.998384243999863363e-01
2.014179324551260697e-01
1.587917732001690729e-01
1.469519236505989479e-01
1.593773607455928887e-01
1.813265404972941308e-01
1.608736272096123465e-01
1.974541256368697872e-01
2.038785344072698291e-01
1.378925877636807129e-01
1.695769451911798287e-01
1.583457647664286427e-01
2.273543542026968678e-01
1.338405060138730951e-01
1.542706906960367441e-01
1.971462120213721692e-01
7.279324024056972597e-02
1.720563917224158801e-01
1.043420370858015589e-01
7.434824995791414204e-02
1.224044506592894266e-01
1.141300375886773188e-01
1.216138970365300137e-01
1.207311799874111885e-01
8.999256468768079831e-02
1.410115846909568427e-01
1.251936699609870474e-01
9.209832710559566482e-02
8.455163433600265677e-02
1.046132001097862807e-01
6.578032069502190438e-02
2.303778580813473087e-02
5.226705247070753679e-02
4.090767779074531985e-02
5.091297419982590555e-02
7.107634598704566653e-03
6.950249259590271511e-03
6.906959781756930039e-02
3.293044489238871469e-02
1.855013759417159513e-02
1.057688242072010038e-02
1.529753091110654106e-02
2.168196892243588747e-02
-3.623698484385249469e-02
-1.709456253400479242e-03
1.320704494181234451e-02
-3.213988214702256929e-05
-5.061417141568006622e-02
-2.420088203733405940e-04
-4.562965495225473900e-03
-2.669451323040336610e-02
-3.589415308041622732e-02
-4.307384705872011055e-03
-9.054516189724352848e-03
-3.345462608329158316e-04
4.634942145582802986e-02
-5.482022118708171354e-04
-4.116548537032468924e-02
1.677566977584527691e-02
-2.993696846897957869e-02
-3.116299363001250045e-02
-5.202100825145316437e-02
-8.904912656771811486e-03
-3.617160293027298773e-02
-1.616896503408932206e-03
-1.127547061432271347e-02
-5.498108348444767646e-02
-5.902938710071995582e-02
-2.377018480427841099e-02
5.498580290561612405e-03
-5.871289920455560751e-04
1.278888087681836344e-02
-2.834742437595990164e-02
-6.417333895487604967e-03
1.491495563026162818e-04
2.603490233225232847e-02
-2.212165724912612888e-02
-4.592107468410536186e-02
1.020679668209678592e-04
-7.438300969444389121e-02
-2.285931414585246069e-03
5.505436855949730202e-03
-4.258774343745615198e-03
-6.290227227896166839e-02
-2.794258757404613491e-02
-1.818249906827551499e-03
-1.855298055305426574e-02
-3.302731467281776190e-02
-2.746973160482501369e-02
5.878806827295392917e-02
-6.304713437357045702e-02
-7.100109135417226325e-02
-6.077266706696727444e-02
3.190404633416984992e-02
-9.771487893831910104e-03
-4.749938749487456896e-02
3.684954254535559304e-02
-6.335217810510060388e-02
-4.612063148401011198e-02
-6.277000951787117811e-02
-2.415383390169427436e-02
-1.103940273651839860e-02
-1.941830615412162148e-02
1.349344942297773381e-02
-3.284548332505116131e-02
-2.773946438404353149e-02
-8.264847461613343549e-03
3.974643043672323323e-02
6.485271396594605164e-04
-1.960839450944126469e-02
1.554905197117083943e-02
-1.231653893064574984e-02
4.539926138019803603e-03
-5.508218266199467472e-03
-3.381276379718857472e-02
-1.334174653764092985e-02
5.548031650084969679e-02
2.223945784152685234e-02
2.146475381261309101e-02
2.183185003133777252e-02
1.617746983096449848e-02
3.041883309232566723e-02
2.211367997351825626e-02
4.543007341658072268e-02
1.070301891924454324e-02
6.766070914029971572e-02
4.933088959113148680e-02
1.780461335628891195e-02
5.224346692184386742e-02
5.391722423947872128e-02
1.005149274472233872e-01
6.994745089737483545e-02
5.593706296022978725e-02
2.423064083991043755e-02
7.090335265867135639e-02
1.279227052849000734e-01
1.105172852320694954e-01
7.442980640856211583e-02
9.881996205366375130e-02
1.099301211616593305e-01
1.577273983097469412e-01
1.136651808038719458e-01
1.001185548957296834e-01
1.287228179758393709e-01
1.391990367218773617e-01
1.446322038804250532e-01
1.453815388263901276e-01
1.883486558631785879e-01
8.862919908392341561e-02
1.215368081503618997e-01
1.254960503462067001e-01
8.766677014118098854e-02
9.308306359516968498e-02
1.193170988370226282e-01
1.169148438717706601e-01
1.137066250736940010e-01
7.734021990200770635e-02
1.005557439100370626e-01
1.213565955145131520e-01
1.370198899118489910e-01
1.610412470339413482e-01
1.549663787168036877e-01
1.562786811051858626e-01
2.039631140216954797e-01
2.218790495360861148e-01
2.115949705259093094e-01
3.284215751280076256e-01
2.363543677502539520e-01
3.652736623414069017e-01
4.186939282365598203e-01
4.740597674880863144e-01
5.093371200727779824e-01
5.198128782504319867e-01
6.848062515525885630e-01
6.537584468472960042e-01
7.328250248727146143e-01
8.198511140024007382e-01
8.682204055270775767e-01
9.362624119100851905e-01
1.011040185570567296e+00
1.037197682178872649e+00
1.149615106156739230e+00
1.174878031735854922e+00
1.212563221648998102e+00
1.249527442117325471e+00
1.246738633225871640e+00
1.228646595356374993e+00
1.247745002831733618e+00
1.200360003841733691e+00
1.148148557408126935e+00
1.122448918896730596e+00
1.110985275280708562e+00
9.951200987112936991e-01
9.660299183298297621e-01
8.475504144919783212e-01
8.067952628721190012e-01
7.429548511021417667e-01
6.385100905446509101e-01
5.862035607261604220e-01
5.041860470045739229e-01
4.470547009285945617e-01
4.172352099530111658e-01
4.163036388322044479e-01
3.365514507557959556e-01
2.866161804433879357e-01
2.952290495892145872e-01
1.856043737968958163e-01
2.423572297796793007e-01
1.722980045557212514e-01
1.773997908424194137e-01
1.782721235788728154e-01
1.644281355681433132e-01
1.337266391242527830e-01
1.663234850173807844e-01
1.277762666418543747e-01
1.277225093293327951e-01
1.399470755237823827e-01
1.588441880844396747e-01
1.168525730963778930e-01
1.238011615411462457e-01
1.025556960331046041e-01
1.503305121284905510e-01
1.949733484480545287e-01
2.644585467721043970e-01
1.801529077773860732e-01
2.269145303142402481e-01
1.834274199884154133e-01
1.903397193780047014e-01
1.880479119916554920e-01
1.950287016283858976e-01
1.996266713918548874e-01
1.952860435023888175e-01
2.623891003398455268e-01
2.297265515525484525e-01
1.956119114068099185e-01
2.397780322318213142e-01
2.539079061621152822e-01
1.901863336091280665e-01
2.612234364454413260e-01
2.599112144900204702e-01
2.465437648765849976e-01
2.850294020822906060e-01
2.697234581044581359e-01
2.290630674520375554e-01
2.470664424515202906e-01
2.865135842543083955e-01
2.310629444101788277e-01
2.339845673227679557e-01
2.548180127655063076e-01
2.397828075025706662e-01
3.204787198109218527e-01
2.867166511046789212e-01
3.106851792110251198e-01
2.807835638334499340e-01
2.490860730348421204e-01
1.814245388636475387e-01
2.498020683268697695e-01
2.034377711043979797e-01
1.877325767755295138e-01
2.674594694185422616e-01
1.961947839946436845e-01
2.047174914722371952e-01
2.086097182937005912e-01
2.238895539926227807e-01
2.141138020015399546e-01
2.346882456738960954e-01
2.257042869808829344e-01
1.571442176962708770e-01
2.461950587737304352e-01
1.614443121639166090e-01
1.610353281851050478e-01
2.395907496348542165e-01
1.797765959686565829e-01
2.113372484454980604e-01
1.941240692705397397e-01
1.813695996447687309e-01
1.417613316368527554e-01
1.520344283322464796e-01
2.035359056259107291e-01
1.276606335007084980e-01
1.456114456351915443e-01
1.542524971190215310e-01
1.221397283113673932e-01
1.085103249483983373e-01
1.192560796250713151e-01
1.140409741072672400e-01
7.050002307973195215e-02
1.193720886104526480e-01
1.465979462022728441e-01
2.032798129403530149e-03
1.038071480583721562e-01
4.173171601068948779e-03
1.345873628873412164e-01
6.869958742361399751e-02
8.302093972729447657e-02
4.873392338181940092e-02
1.348719558204646563e-01
1.347188639272240140e-01
3.560866240920994991e-02
2.899368727137874302e-02
8.796216294724203133e-02
8.577861788167427670e-02
4.552698573569580187e-02
2.282378830128800259e-02
9.707699479879756954e-02
4.151573254267525159e-02
3.749397555495988937e-02
4.875142141921565142e-02
-1.329589699714426101e-03
2.220029385877862055e-02
8.983729292345671302e-03
-2.204739733601877860e-02
1.003521769690297882e-02
3.262955578054525796e-02
8.875179875531498397e-03
2.718907859005161021e-02
-1.845074296264874111e-03
4.734160622211684710e-02
5.755260410722445874e-02
4.683207852688368866e-02
3.083061195025047635e-02
4.984324959960192286e-02
6.050029771284361202e-03
3.878664623664478117e-05
2.108725079080747342e-02
6.356480622534594477e-03
6.336162750070684080e-02
8.249563883816490861e-02
1.004786692471479059e-01
4.894481128863631403e-02
3.185355403003661129e-02
-3.812907777014781091e-02
8.046458146682486726e-03
-1.746118908284723104e-03
3.435850010377744512e-04
6.086844651832928887e-02
6.379110948990981966e-02
7.604398693822933195e-03
1.913852419037645469e-03
1.381475242053543766e-02
-3.433638348162235121e-02
5.938489924373156759e-02
4.577956456828094489e-02
-1.588173880977119395e-02
-1.499829377092698826e-02
7.176546750609513747e-02
4.769731460438766946e-02
7.843983532149081950e-02
7.868576437103889931e-04
7.865144889511582749e-02
-2.943046275380421101e-03
3.101947998434635353e-02
-2.491637873999918290e-02
1.289989011290375992e-02
3.481442285925585856e-02
1.794395977061983075e-02
5.048459406554202389e-02
8.395758120580562589e-03
3.419746856666351642e-02
2.567309753768304975e-02
2.691418506768532282e-02
6.313816609402182756e-02
1.987704813490991790e-02
3.730845612374390774e-02
3.042532267671007803e-02
9.520822099542521066e-02
4.831468646082175133e-02
5.120659075102164393e-02
4.634286410401301098e-02
7.046123671395691790e-02
4.799690916147673903e-02
4.996178675133897129e-02
5.346714944587832585e-02
7.262995928322936445e-02
1.069411872665733260e-01
6.878006635014399794e-02
4.312557874436981353e-02
4.199264215197004435e-02
1.780646825775705766e-01
7.074114420106408785e-02
1.569473806730627419e-01
9.739439766985660829e-02
8.047298717549443425e-02
1.115992432456508893e-01
1.375347697915318135e-01
1.167450951958084182e-01
1.101663127719440249e-01
8.612579001762248054e-02
1.187347528352706433e-01
1.541524779055844507e-01
1.001037028670807849e-01
1.375872694016341824e-01
1.627534900098704662e-01
1.945112396553127232e-01
1.289996895419215084e-01
2.268682456517835955e-01
1.826462145078399379e-01
1.367074943799663211e-01
1.787554462599953986e-01
1.548979713552123827e-01
1.315696040527984667e-01
1.753803204529954252e-01
1.775415791244549235e-01
1.910093324655193492e-01
1.549772673889879826e-01
1.576911933354072926e-01
2.126870168598722077e-01
2.076279703398196674e-01
1.477738095993153811e-01
1.354631131037793423e-01
1.527226692543550146e-01
2.211186298654961579e-01
1.027900095557260363e-01
1.748003221350325209e-01
2.242088400684176530e-01
2.080632667968775329e-01
2.055130064631014997e-01
2.479659928298907634e-01
2.267982734082558405e-01
2.336714550752017339e-01
2.930184457852427204e-01
3.527061585198879023e-01
2.564621420762070447e-01
3.358691261872563949e-01
3.901758473091098134e-01
4.279202645731775001e-01
4.975222718517159914e-01
5.511133199233172464e-01
5.759214236005018028e-01
6.946250071056619957e-01
7.419144707947316064e-01
8.532655378904693277e-01
9.187854229249051707e-01
9.507106908935458733e-01
1.041087115392148377e+00
1.020483672826375088e+00
1.084121543932625276e+00
1.232172498839911867e+00
1.238172410711385618e+00
1.313419582129453422e+00
1.330462919010228839e+00
1.262205932173328105e+00
1.326716558809712510e+00
1.270649946094518867e+00
1.260700167552946782e+00
1.196478988543150379e+00
1.219812762298269515e+00
1.151503516885119982e+00
1.058717821616305788e+00
9.880376308350203862e-01
9.655644913885536029e-01
8.476914910983502915e-01
7.815891792115113867e-01
7.073997243981954286e-01
6.389623441667390269e-01
6.168990178478332975e-01
5.428543672334381620e-01
4.635734183809256947e-01
3.986112293776268301e-01
3.849437835198263880e-01
3.382778469686523737e-01
3.360213017014284653e-01
2.624377910494583577e-01
2.735345326358232243e-01
2.338418918018925208e-01
2.350745373885762823e-01
2.636023909180128522e-01
1.985491281563467048e-01
2.658355707977257953e-01
1.906252755013440048e-01
1.641328894221820434e-01
2.422474175217115555e-01
2.507518540903378446e-01
1.702922359528608598e-01
1.775458117182709128e-01
2.292053382328547440e-01
2.256929063747173947e-01
1.884207641307076297e-01
1.902743873132037300e-01
2.302372585030879049e-01
2.222491571243205566e-01
2.483176816313184543e-01
2.528638470440277564e-01
2.676841437261218148e-01
1.834862801049612635e-01
3.051552026317613797e-01
2.690956724576749060e-01
2.447356110182617728e-01
2.585632115986827850e-01
2.850631928871230625e-01
2.763222850590049129e-01
2.802229165391865173e-01
2.732547323732034128e-01
3.291336660493031641e-01
2.921135274540992977e-01
3.186542825511236021e-01
3.523466114867798149e-01
3.178598346677864450e-01
2.998455146980175678e-01
2.371990771479479676e-01
2.814351648399252559e-01
3.583904712066531828e-01
3.054573479705620098e-01
2.560214584163383877e-01
2.898453701509685621e-01
2.607883454444123172e-01
2.821094386487849048e-01
2.831365194908503358e-01
2.767466601026008499e-01
2.954821001914955669e-01
2.304471051341049070e-01
3.098840269759978172e-01
3.310800105976302588e-01
2.306719511007441770e-01
3.153325810572382149e-01
3.004204859757996227e-01
2.888130413370139649e-01
2.761917692856486473e-01
2.781836701494810327e-01
2.938987748967772928e-01
2.707645027082383749e-01
3.410802492121766116e-01
2.372712159384321451e-01
3.014658993463017467e-01
2.439450361433883052e-01
2.314782331711508767e-01
2.690167540907704158e-01
2.249172699950878762e-01
2.816038546349068916e-01
2.021645440070591604e-01
2.577892102757668447e-01
2.328385905901417807e-01
2.048969095293704523e-01
1.753706645498309125e-01
1.702621552767050184e-01
1.693662270441274598e-01
2.231000527278472201e-01
1.862803024311462941e-01
2.036787849473801204e-01
1.796793003711078252e-01
1.373132108676569929e-01
1.761328079985858275e-01
1.791661952676979475e-01
1.036695524504734622e-01
1.337029866314340953e-01
1.226785251878198812e-01
1.050751936840913225e-01
1.427881361405365646e-01
1.425196912700107399e-01
1.696022504606005399e-01
1.504550526863074889e-01
1.132580117179653179e-01
1.095981371234733825e-01
1.682658553708982208e-01
1.268042618436403812e-01
1.427353070009296787e-01
6.265028263553795718e-02
5.436922161399870834e-02
8.648734352546644244e-02
1.253645583040533806e-01
1.410452601793207861e-01
6.777129621001592996e-02
1.039863251810363154e-01
9.816868665645636649e-02
4.857544114331568963e-02
5.576426166552739261e-02
7.595519945669176876e-02
3.898500416625842735e-02
1.514640129710356220e-01
4.187124424915980581e-02
5.832383835410990397e-02
8.146442108696880235e-02
7.626448001787708431e-02
8.612391381454453931e-02
3.594039872579229272e-02
2.442080708812784801e-02
6.695090224638677867e-02
3.566769462949152120e-02
4.000794247599465114e-02
3.689620037431398658e-02
3.598727291462701372e-02
1.571404606297583523e-02
2.645407933644240706e-02
4.684265492869123942e-02
9.118476513511780679e-02
1.175329482906518896e-01
8.381882511582755546e-02
6.281477149429778861e-02
8.578451071535143913e-02
5.004188802017052462e-02
6.205138754716260641e-02
7.558577432209263869e-02
7.001086435956815901e-02
8.222529941314773994e-02
7.365675602956291146e-02
3.111753321996853922e-02
7.229793135303166918e-02
3.046753436030524842e-02
7.484058451365950548e-02
4.059535832100436004e-02
1.417681909681236391e-02
1.101760364145094179e-02
1.179164169492736836e-01
2.184781652912960379e-02
8.202739042942505665e-02
7.418083509110942608e-02
8.193912023816080081e-02
2.450539612043977147e-02
4.267624523675634524e-02
2.664721303716125617e-02
8.606801240108880036e-02
1.017310801696672540e-01
5.675127368108019710e-02
1.234192479281746996e-01
6.801517870998234627e-02
5.517116454466008957e-02
6.564474888584576062e-02
7.867013615576506913e-02
2.140480439307449606e-02
7.532873094676320602e-02
6.454635056170437979e-02
6.346258149114925029e-02
6.961168181181069670e-02
1.052442953349048138e-01
7.855353408002620219e-02
4.702735057799132395e-02
8.613293363324622809e-02
7.959608027691165988e-02
9.024688303987507543e-02
9.108958060082875119e-02
1.075065239572714215e-01
5.885394028441421482e-02
6.372599356645300417e-02
1.055792578061935383e-01
1.044953811437965008e-01
8.779591772244063619e-02
5.950535033358842624e-02
1.326202277298964283e-01
1.160126824937248169e-01
1.439686518504585122e-01
1.465894003329321071e-01
1.643865729179532220e-01
1.155296007922586021e-01
1.525981272960293400e-01
2.188644597784810686e-01
1.678704652032962930e-01
2.094399182541764881e-01
1.896916228053771580e-01
1.458150422954153091e-01
2.483153632938990829e-01
2.211891057571314378e-01
1.440564596158286637e-01
1.809011067466649858e-01
2.417238091239379549e-01
2.097677219872511045e-01
1.373241559175170934e-01
1.733553612514538989e-01
1.720041323792521337e-01
2.412747367674436538e-01
2.131133743531220537e-01
1.889656219864553899e-01
1.751500370549671504e-01
2.187340797466299780e-01
1.949871792852133634e-01
2.041470114091992749e-01
2.170916744842462109e-01
2.045295863652106250e-01
1.594982684568344855e-01
2.273389901720841988e-01
2.352408583255312935e-01
2.710785857663009502e-01
1.944232794108857465e-01
2.588935348543057735e-01
2.684440480196995105e-01
2.746281134112271149e-01
2.632757333969643621e-01
2.507028801153884934e-01
2.934575937693467695e-01
2.973120051383414397e-01
3.194180183604009571e-01
4.263696942180925653e-01
4.231586040314705977e-01
4.389219327119986969e-01
5.572798779978284101e-01
6.379583264515492624e-01
6.967362910158529932e-01
7.157085023725567874e-01
7.970065153221194132e-01
8.980895947397686818e-01
9.830799678775601347e-01
1.037090494509092187e+00
1.114568535992477738e+00
1.142349450008706802e+00
1.211337402019183385e+00
1.249437917277092858e+00
1.243766929906710450e+00
1.246914618637787742e+00
1.285750682142525303e+00
1.289258699399827846e+00
1.339300595912416902e+00
1.272333454620644622e+00
1.216366756991802855e+00
1.191694557458579107e+00
1.151023371883019841e+00
1.071998122326262681e+00
1.002532322811117149e+00
9.389203776463009854e-01
8.860253699652663739e-01
8.026214586455771016e-01
7.228674362488541894e-01
6.452397851420257346e-01
6.126995237911974090e-01
5.298140857417460436e-01
5.020857983695586890e-01
4.810753935536950521e-01
3.547829006507918770e-01
3.409557618257002543e-01
2.657880650964951075e-01
2.772273542404197766e-01
3.167427048922085708e-01
2.580316196293682141e-01
2.043671308408703535e-01
2.260253535916341705e-01
1.692800189709549874e-01
1.629110099196424688e-01
2.123866908441369439e-01
1.812029141657488518e-01
1.832768760373170436e-01
1.891548501593530440e-01
1.846252786327279849e-01
2.339120919450644043e-01
1.540603108514815023e-01
1.772906439718338056e-01
2.120136024439089328e-01
1.743027600705757962e-01
1.907062108781332477e-01
2.437016268684574771e-01
1.969940666226167592e-01
2.511815015026261921e-01
1.906182017929075323e-01
2.968446942464482707e-01
2.597416289577335613e-01
2.644731496473566312e-01
2.356441099894034941e-01
2.513339124902574384e-01
3.355207713165216377e-01
2.251988272804242297e-01
2.442528489048730322e-01
2.542492570774100846e-01
2.721293206498488493e-01
2.901767416315650383e-01
2.867686846283798441e-01
2.416449359823087950e-01
2.988921772253408382e-01
3.002799689694851115e-01
2.808657373631298637e-01
2.609381080638819572e-01
2.891219255401338839e-01
2.726404731819875860e-01
2.798556908870290516e-01
2.818295423051460635e-01
2.546855423160127585e-01
2.814280283078788858e-01
3.115236437526475721e-01
2.986226916589402314e-01
2.710717457985035717e-01
2.678410666375441451e-01
3.259354588194087188e-01
2.449153651996239245e-01
2.879203416990880893e-01
3.024112964459223507e-01
2.299116096695083544e-01
2.547188535058585446e-01
2.896575892673345920e-01
2.309494752879960311e-01
2.534717893551960977e-01
2.031291639017989425e-01
2.288064797982563570e-01
2.784723505681702127e-01
1.948605985151700137e-01
1.785322080814333856e-01
2.216870098778389586e-01
2.339562499809632878e-01
1.984041544748781916e-01
1.988250610507646954e-01
2.251909045355240946e-01
2.345605197798501240e-01
2.081639472007365266e-01
2.157839035434341579e-01
1.812119787091627243e-01
1.580744764844516370e-01
1.269055722412465725e-01
1.249505444437201407e-01
1.572816440090742118e-01
1.948095561788572294e-01
1.224377731639758327e-01
2.377783245745919705e-01
1.352368579790429182e-01
1.053980338399714833e-01
1.140563783692002120e-01
1.235634983762930739e-01
1.619727801204655648e-01
1.197980810818030373e-01
7.448161213635715039e-02
1.600918526485416438e-01
8.453099094142568770e-02
7.437645201174636345e-02
1.086808729154340181e-01
1.204906012058859638e-01
1.157141421710792262e-01
3.054805700891672499e-02
1.281615839928639256e-01
4.437032589050811382e-02
9.146716264897804261e-02
8.299379084326749534e-02
8.408452882634641357e-02
5.652052320799422908e-02
9.477873653153399969e-02
5.830658495277490916e-02
9.672230568124484673e-02
1.842052771047100745e-02
1.032929098012499158e-01
-4.626103855601845782e-03
9.676827082740861730e-02
2.806369972993110612e-02
5.397530069695513633e-02
2.594668118397143453e-02
1.014505672173309989e-02
2.299313985370328439e-02
5.855610690201171198e-02
4.474660634778973578e-02
6.911479360617742151e-02
4.662471299327222707e-02
4.001062124270440140e-02
7.811048307306135696e-02
4.088856340559492847e-02
-4.005459711365944725e-03
-1.254834847667148957e-02
7.901159176030142506e-02
1.974330582733742345e-02
2.330293247602903059e-02
3.057063237711930490e-03
-2.709746582158800710e-02
7.824219266239008930e-02
-1.875662844550851291e-02
-1.180518354358399240e-02
7.655031202796294156e-03
2.553906163983522826e-03
-1.357455685467308382e-03
3.634720460686517718e-02
4.877398665304323588e-02
1.341775343441006449e-02
2.340882937125451924e-02
-1.346757030419864186e-02
3.159054803119630550e-02
5.792761562361487676e-03
2.448486788002392223e-03
4.256823471994805597e-02
-2.953648597808241488e-02
4.458217155367745488e-02
1.187336863094219652e-02
-6.729536148986012267e-04
6.659789260883695883e-02
3.818585482187802915e-02
-3.659383158057668423e-02
4.380612153101349354e-02
3.303113290488535192e-02
-2.250013568989952042e-02
1.421038993000783499e-02
4.138438644527048932e-02
-3.687409012364860350e-02
4.255759111437714542e-02
8.559325746924797626e-03
1.606653435165151037e-02
5.690946150777391466e-02
1.332022063887038435e-03
-7.157433487355824471e-03
4.900581818314746901e-02
3.275041478543432028e-02
1.844606839024507533e-02
-6.657560045562792121e-03
2.433546142636364845e-02
2.111113219089544302e-02
3.422599841086460676e-02
-3.323282720457415833e-03
2.667814177211682777e-02
6.287200302839816846e-02
5.157276805323546959e-02
5.174104805695982356e-02
3.265864356670612062e-02
3.749197053942646130e-02
6.062800668413854260e-02
7.219540591067205582e-02
5.206553070670046079e-02
8.692249725164274965e-02
9.110476333632648582e-02
5.908896649657471162e-02
1.309816980188822644e-01
7.385641611418851393e-02
7.592326356357141648e-02
8.806889122204364373e-02
7.058673571808835034e-02
6.277834511319416166e-02
1.508513052002818933e-01
1.499470712079164214e-01
9.986456279144197146e-02
1.486097011909045806e-01
1.131116409734959916e-01
1.046114071672132606e-01
1.300718571492673614e-01
1.319676140990413138e-01
1.712850209529886980e-01
7.205463931974978586e-02
1.358813957661687555e-01
2.131737678397561120e-01
7.897059288242111452e-02
1.295124202720921436e-01
1.372729528486865136e-01
1.511564497691621489e-01
1.686501906396139505e-01
1.507522493657583451e-01
1.939131435719523011e-01
1.354436859929554759e-01
1.789823662858721076e-01
1.441580161562659446e-01
1.742975469747490569e-01
1.350481652612688654e-01
1.324275132055824367e-01
1.267003319365114511e-01
1.677088250396123470e-01
1.662288879703792133e-01
2.128960908097228544e-01
2.422778142207889229e-01
2.762447009223077954e-01
2.980478502471565760e-01
3.392829185184983998e-01
3.653750029700006396e-01
3.548934491391068646e-01
4.463757327090603355e-01
4.707967026654069631e-01
5.476901105558856786e-01
6.141953850593624420e-01
6.080324688245016818e-01
7.209017463980010865e-01
8.076548801293901292e-01
8.090256444355661269e-01
1.000406335972496619e+00
1.029537331550784973e+00
1.088896300023445951e+00
1.168797008527961534e+00
1.203949721427179043e+00
1.238854726288184827e+00
1.272335530084841793e+00
1.263421268229111050e+00
1.265141817515027745e+00
1.258008282035077308e+00
1.182600552726304377e+00
1.125603693488462120e+00
1.083887161583555248e+00
1.114939248520675497e+00
1.018900381466714578e+00
9.618294635748722010e-01
9.060015832541236103e-01
8.726920113010956381e-01
7.780142257941076167e-01
6.930668120945998600e-01
6.303397017038279149e-01
6.191547460356355836e-01
4.603861129368825300e-01
4.748103524372321305e-01
3.819522418157271781e-01
3.326330063740713383e-01
3.130743885302453289e-01
2.038501337525666091e-01
1.971231534775468863e-01
2.159535815544362802e-01
1.975226090201750162e-01
1.846242832926280053e-01
1.762431331162153392e-01
2.056471248335464130e-01
1.193916428480941566e-01
1.460554022015438935e-01
1.543834695848002314e-01
1.423330043586839289e-01
1.283451156589550113e-01
1.097939592727370378e-01
1.292182901795967953e-01
1.773286692928039421e-01
2.076476514484976721e-01
9.337508033195010548e-02
1.502122560555309572e-01
1.003951173689196646e-01
1.362852268743157680e-01
1.695466616038098229e-01
1.311235433729279198e-01
1.575778030800674689e-01
1.571969588778987237e-01
1.851772998100673362e-01
1.707094941076126859e-01
2.223812372893664846e-01
1.890203593764408219e-01
1.682046989787036040e-01
1.507074529095678017e-01
1.752099888793647031e-01
1.978361240091451867e-01
2.217035657138877736e-01
2.306201841864901625e-01
2.389146378549136251e-01
2.303788742900944875e-01
2.444764860865844824e-01
2.067670263679572129e-01
2.128365040720576751e-01
2.012540348314889038e-01
1.962061958861992528e-01
2.618428457020869904e-01
2.154536360761278302e-01
1.868696295655326023e-01
1.949191600014300030e-01
2.830680746810029791e-01
2.267975091529600418e-01
2.320784734503825997e-01
2.006993745353788661e-01
1.482656217105214336e-01
1.750783044343210693e-01
1.913129911796220828e-01
1.897239113270406952e-01
2.054634565537691027e-01
2.278652705871788420e-01
2.003677703721697123e-01
2.089595366203959859e-01
2.200575836377461070e-01
2.322987700661842125e-01
1.570861127188185602e-01
1.931696123593283354e-01
1.902722598591971293e-01
1.798731617373628133e-01
1.553211145301293672e-01
1.333968266026655525e-01
1.528957873116535138e-01
1.602185971029846390e-01
1.799295141070559878e-01
1.384500595383058030e-01
1.024765941882117559e-01
1.024440565348174181e-01
9.151380944679274321e-02
1.193108944560517248e-01
7.550694708287133960e-02
8.797673563640640015e-02
1.545864395782182432e-01
9.590920746123879348e-02
9.832817935892490535e-02
5.167698010391645613e-02
8.426569072484033085e-02
3.094272758625487424e-02
7.990337297837690755e-02
3.338932821009651941e-02
1.057297982818296567e-01
1.193503166823601247e-01
3.732166866716690040e-02
5.292645503832925369e-03
3.430859554756931357e-02
-6.000847139565536337e-03
2.890762445579660861e-02
8.714578811768472488e-03
6.566645360891160133e-02
-3.470387351904725276e-02
-1.547629094225626278e-02
4.651887459569198358e-02
-1.178808311480185333e-03
5.928895382963050853e-02
1.166268551899941192e-02
1.429910093897156925e-02
1.410354797199103033e-02
1.383403364663321478e-02
-7.021470593551779049e-03
-8.245185378213101823e-03
3.073252983928720372e-02
-3.039417843000142075e-02
-5.270047905279948153e-03
-2.469709256170380882e-02
4.762281339369039967e-03
2.196867384315207700e-02
-3.403989036926725192e-02
-4.952111920686714380e-02
-4.415150792915563394e-02
4.455601137171388837e-03
-1.710433368120796438e-02
-2.825940911493615010e-02
-3.303042807996726948e-02
-4.974199731783654488e-02
-3.881721307231016105e-03
-2.547291852107345239e-02
2.169782497187076192e-02
-3.359682458275159433e-02
-2.580482846788554468e-02
-4.832826047740844400e-02
-5.458496331769085996e-02
-3.799882212617235189e-02
-8.024834956944434938e-04
-5.129065723861764986e-02
-5.238810651910005833e-02
-8.117451147323144489e-02
3.550313090968077595e-02
-5.714841941964218103e-02
-8.257386684313385017e-02
-3.473939246399034703e-02
-3.296178764170724917e-02
-1.696012950492426646e-02
-3.516859021375352140e-02
-9.373447273754215159e-02
-6.403379998000569007e-02
-9.370288465952662793e-03
-1.353598967796760394e-02
-2.857870033988986480e-02
2.839033815995421761e-03
-4.831075460997350662e-02
-6.354688788903981034e-03
-5.399690898124282629e-02
1.142032384271159801e-02
-5.558763408370744064e-02
-7.480132832567949752e-02
-7.551237940690511130e-02
2.949105986929108358e-03
6.996634788510661118e-03
-6.539675301305519772e-02
-5.675135073096593957e-02
-1.072577178458189728e-01
-7.143610953940777997e-02
-4.129908528091274372e-02
-4.017093919829371751e-02
-9.314559820902586218e-02
-7.260414330674355710e-02
2.892414084703896771e-02
9.704636602320203254e-03
-1.851046254281220674e-02
-1.532655176236739913e-02
-1.766961197691594918e-02
-1.891657304670752229e-02
-1.198422144192037853e-02
-5.655002898665917321e-02
-1.401568967516059888e-02
-6.367281825116563598e-02
-5.774852475861444456e-03
1.659689504580539460e-02
-9.153658425250343900e-03
1.926272475258693911e-02
1.253184795488836156e-02
3.318816291249453154e-02
3.475488036986412732e-02
2.827784575954964130e-03
-9.946934372648763567e-03
-3.271002870685865704e-03
1.427124311807199952e-02
7.045672564819134565e-02
7.242473355492724807e-02
4.096456089688911562e-02
5.071596988252762700e-02
2.375667137107992377e-02
2.986100062627528029e-02
8.445340507468382385e-02
6.294759686669473830e-02
6.952024812211257676e-02
1.030638879825719889e-01
9.953551020459619481e-02
8.234695671998773503e-02
1.276801000521465002e-01
7.842354382351390818e-02
6.769180657877250928e-02
6.043004866928637642e-02
1.358832000027289932e-01
8.211813850011888405e-02
1.024294387432636150e-01
1.588639259842724860e-01
7.926248905595326133e-02
1.067442394341825973e-01
1.066824779534625844e-01
1.049438005309901029e-01
1.312351049838599293e-01
1.155657803200681177e-01
1.105666534564240244e-01
1.567232158250246032e-01
6.427617804197272022e-02
7.657853092532179717e-02
1.152045957228777229e-01
1.397392321403169435e-01
1.320045821518143481e-01
1.254429238705886962e-01
1.983565073757300734e-01
2.036773861599582569e-01
1.844605380508058112e-01
2.794465795913039785e-01
2.505104460377906017e-01
2.929070427732281545e-01
2.986289619427031083e-01
4.013680296606575437e-01
5.054410931294676113e-01
5.634320777871556496e-01
5.596107451883871597e-01
6.211332256964988696e-01
7.074519595127444216e-01
8.203067261899158469e-01
8.541914435510171710e-01
9.408059187984764149e-01
1.003147948271289724e+00
1.076674942126229162e+00
1.122287335790539409e+00
1.122934457063523350e+00
1.182926488960417188e+00
1.190401964625099840e+00
1.246196096001946696e+00
1.236233837282294301e+00
1.228127693123104880e+00
1.201351917043901096e+00
1.112953510381162303e+00
1.133381749584104314e+00
1.027908184748752785e+00
9.774787536196257731e-01
9.775064340653658590e-01
8.639393856002532956e-01
7.636727688980641249e-01
7.145598771787942116e-01
6.844773145894905708e-01
5.788110537050340509e-01
5.602868285335280696e-01
4.921504693293582422e-01
4.376202075375812406e-01
3.749662843180887606e-01
2.706334206393660735e-01
2.599106349747935529e-01
2.453405985901770114e-01
1.779505898079710713e-01
1.920942262572604420e-01
1.881407004472648581e-01
1.059126825741252137e-01
7.271816505072553616e-02
1.203610284877216774e-01
1.840102347493482726e-01
1.048712398944676993e-01
6.592078754079236380e-02
1.201110766635768712e-01
1.138859350655041236e-01
1.229531544381786690e-01
1.738578925555619437e-01
7.500568535799111147e-02
1.377132831505619992e-01
1.184845123064996453e-01
1.359588426841648323e-01
1.076002970429277561e-01
9.048935372025204704e-02
1.866305421596139158e-01
1.954968410290061076e-01
2.045832472711006378e-01
1.285762801322305471e-01
1.505845541974390467e-01
1.960155861088952178e-01
1.589261355866193326e-01
1.470636875809400723e-01
1.839737639705461281e-01
1.381021415357360227e-01
1.240548133849715406e-01
2.523526467543831808e-01
1.759750509167852528e-01
2.124174944968017786e-01
1.822087618928792396e-01
2.000162740006598550e-01
1.966603100366764167e-01
1.519946969103908307e-01
1.804913645080977735e-01
2.215594045395311851e-01
2.109073901802352990e-01
2.013561117088001895e-01
1.412244301193807672e-01
2.181065466060527758e-01
1.889940042222652550e-01
1.839839730256480621e-01
1.769593217104157845e-01
2.035585430093859727e-01
1.967231156596027652e-01
1.866262524021266855e-01
2.375386328361915045e-01
1.962693938108915348e-01
1.492846374314593383e-01
1.716294208376894781e-01
1.945216153546616700e-01
2.053988435461946704e-01
1.524628434094184859e-01
1.492664555201470566e-01
1.902011993502372711e-01
1.742717518557575507e-01
1.792431983909221482e-01
1.437548436859533707e-01
1.850119577464776621e-01
1.790104340400734961e-01
1.703119049582567934e-01
1.331325645174080696e-01
1.279929011742246270e-01
1.321598226333793036e-01
7.995275961179396096e-02
1.157903326993221793e-01
1.491710629224523577e-01
9.293889286954226669e-02
1.673604861097970353e-01
7.011100131069089580e-02
7.440293072941003838e-02
7.719820928621312639e-02
1.101666479563836176e-01
7.759927929286107584e-02
4.641681006261353520e-02
9.436318667209217526e-02
8.150838387543640762e-02
4.596670282936910629e-02
1.163259786054657297e-01
8.186312408454804457e-02
7.271728432779900331e-02
3.329103404441530190e-02
1.620473457698844155e-02
8.620692035856318547e-02
1.225647548980340895e-02
5.080267837801722558e-02
5.917575460634286882e-02
-1.446964190000431943e-02
1.783983960409983582e-02
-8.451816350621747798e-03
2.848733637033819266e-02
-1.040890724214919502e-02
-1.537711341132148857e-02
-3.132607319248906924e-02
3.236084965578076011e-03
-4.791288851264997178e-02
4.483936185182104545e-02
-8.543065311592226707e-03
1.999200057738653030e-02
-9.273110045631166587e-03
2.924897945445203984e-04
-4.989978874730516961e-02
3.279076786418699818e-03
-5.044463790800003677e-02
2.449880900389510979e-02
-3.337356229893273518e-02
1.311500043715815855e-03
-5.771221250009350712e-02
2.747775445638006575e-04
-7.383800812049960693e-02
-7.244972588466735974e-02
5.759762165958567937e-03
1.868966531574499379e-03
-4.082658078303380567e-02
-3.901159736999050553e-02
-3.281489493438805721e-02
-2.086253041486529902e-02
-2.907193895091420011e-04
-4.066022946614079175e-02
-7.782346701718960424e-02
-3.395259865303956043e-02
-5.390818291466861756e-02
6.926023338435179089e-03
-4.371755094186143692e-02
3.193970821678208949e-03
-3.399218312062164682e-02
-5.244796659998471333e-02
2.144108404412321811e-03
-5.651838034452132814e-02
-3.325313624917022870e-02
-4.365888568798423353e-02
-5.747691418787501116e-02
-2.375985340017308309e-02
-5.086010547219207978e-02
-5.776141849105710657e-02
-3.790229417161838227e-02
-5.054002486590531557e-02
-4.427239837501430880e-02
-3.591689503706102515e-02
-1.345573859169734918e-02
-4.463917506363364318e-02
-6.914537961908602537e-02
-1.437726935323892924e-02
-4.706507217450927455e-02
-1.780577458562853516e-02
5.780892772322160367e-03
-2.791980476976681919e-02
-5.167602928409819468e-02
-3.091571066184984479e-02
-4.618272782205468108e-02
-4.609283790265993053e-02
-3.159531088290011558e-02
-5.530836037295949748e-02
-4.905973068458218539e-02
5.390633199437260686e-03
-8.638785714822076051e-03
-1.472681179784170180e-03
1.319678998327100672e-02
-6.069381465272431081e-02
-1.250833371260097124e-02
4.485615234539098994e-02
5.375668153392308690e-02
-1.455217245697062317e-02
-1.728576087745634440e-02
-4.882591401212584004e-02
3.922757713762332898e-03
3.743566348578548919e-02
5.110538476172894751e-02
-1.094622730422314949e-02
2.676277834672156908e-02
2.099807723863701334e-02
9.097567726361100587e-03
2.756044764450665471e-02
7.585509306282217645e-02
6.972452961795799764e-02
7.079790658810311554e-02
1.049093243433448230e-01
6.620344613861350869e-02
6.993113191560046404e-02
9.187388968879420248e-02
5.348172931881055997e-02
1.128905015851880828e-01
1.106543481859357247e-01
1.077198883062613494e-01
7.933224007310753223e-02
1.246720664795064326e-01
1.593207841050021112e-01
1.270015950432294427e-01
9.729905653627166084e-02
1.700392039614816997e-01
1.325698392292957439e-01
1.734863503763334203e-01
9.446720851042191003e-02
1.046739780168869233e-01
1.501606823743109609e-01
4.818661905356853847e-02
1.849227591612524479e-01
1.670419151654574108e-01
1.084984782739216308e-01
1.663550332595915837e-01
1.318798000191273301e-01
1.238013852134021847e-01
1.027421138467831119e-01
1.643615672128657390e-01
1.567713914747780601e-01
1.481645078422141326e-01
1.104846453129285228e-01
1.673342787480196214e-01
1.907038459872198999e-01
2.256707611034843020e-01
1.839716004806572214e-01
1.915579669599703216e-01
1.986122835524644359e-01
2.607343660138954355e-01
3.154259297298536158e-01
3.868083935119372430e-01
3.863769655060627639e-01
4.599571294961698475e-01
4.783719928761707152e-01
5.543330509926571725e-01
5.800734347158191806e-01
6.713358544713374787e-01
7.025546412259960904e-01
8.363840053167034272e-01
9.383564368192626182e-01
9.490029211680124366e-01
9.973029494981313636e-01
1.187908997476015305e+00
1.161093526879915627e+00
1.218625134553356526e+00
1.222842371995989552e+00
1.207179657049468835e+00
1.247417437416531882e+00
1.260307147856567056e+00
1.248926379036481515e+00
1.197654516023966664e+00
1.199168951983234921e+00
1.124592493181883590e+00
1.069424510685440310e+00
1.028864651714505252e+00
9.803863975098293659e-01
9.147867102744290380e-01
8.471353453400238820e-01
8.338870109937801534e-01
7.048729008656420270e-01
5.840688564137281880e-01
5.627000907430127485e-01
5.027174598315004017e-01
3.844772647597375914e-01
3.993954076091915106e-01
3.359569304648341581e-01
3.081411063420876895e-01
2.814009639981067679e-01
2.396911528491746102e-01
2.147001245814549042e-01
1.816525420452616557e-01
1.973294326285976730e-01
1.554431626817681100e-01
1.769767948305635830e-01
1.181616354445520489e-01
1.341240186107843790e-01
1.588537727440455516e-01
1.100480514780583646e-01
1.277281199877160212e-01
1.627889048800704175e-01
1.262016484603253885e-01
1.884784055292002825e-01
1.567238675078391763e-01
1.513483427706542872e-01
1.825103789195499648e-01
1.716932320481599494e-01
1.754118200056724586e-01
1.734941019334511336e-01
1.795175419579535248e-01
1.573389233033361811e-01
2.128444194033733416e-01
1.800179578963902738e-01
2.320800063232669186e-01
1.789230993695800354e-01
2.462612992096731290e-01
1.922281268305050250e-01
2.412498829463106675e-01
2.105664687602607776e-01
2.317461646300206235e-01
2.119098101886486563e-01
2.091597131519533082e-01
2.247695629945873630e-01
2.573939361203335108e-01
2.597364809727757962e-01
2.586850353411557224e-01
2.515019226527129281e-01
3.078711411450520963e-01
2.229446470402820235e-01
2.447400235449819217e-01
1.756947401042059931e-01
2.621291829996377221e-01
2.235055183326735417e-01
2.486490559731849015e-01
2.277582248843541546e-01
2.440597402839864427e-01
2.523521224983028555e-01
2.257358000125631314e-01
2.547685132935041952e-01
2.310315396398109067e-01
2.224133913237937021e-01
2.589324914248380960e-01
2.437744596543868769e-01
1.827330752428238392e-01
2.220149572244594915e-01
1.993900857362325141e-01
2.649639095774303232e-01
2.000508491719098225e-01
1.996092709629184725e-01
2.159108266811118337e-01
2.254363991895195207e-01
1.863995668500673386e-01
2.069795321942914934e-01
2.060123983123066937e-01
1.448970384387816002e-01
2.028261811707129103e-01
1.695251537485428506e-01
1.457307573210883112e-01
2.283121609092919335e-01
1.447177766240853314e-01
1.879278485151189004e-01
1.746898504894490445e-01
1.070332973071955740e-01
1.290296065704343020e-01
1.139196534942142069e-01
1.682837941130851389e-01
1.601214460482630053e-01
1.792094248435643355e-01
9.867999251251938220e-02
1.927695709952721992e-01
1.461458483313083645e-01
1.632193073407692818e-01
1.144386032887751148e-01
9.761014888098434872e-02
7.667207048790308788e-02
1.352621481871898734e-01
9.018295349563849872e-02
8.673892741962070663e-02
1.200638152090348770e-01
1.073947844684410013e-01
7.363644931371193803e-02
8.066045936381988080e-02
8.183509226851838625e-02
7.233632106769352643e-02
1.024641585502135271e-01
8.025891588561123724e-02
5.264721972508245446e-02
9.785859501335555932e-02
3.871753955522765772e-02
5.169744259938681419e-02
4.560922227675547058e-02
3.865864217992056456e-02
3.911192251856448338e-02
7.519602259868402028e-02
4.683128395439018626e-02
9.441985045691923817e-02
2.650743518331050153e-02
2.251957480555871749e-02
9.055291559063871620e-05
-1.317069072938773650e-03
1.359814611876283136e-02
1.125821262839174150e-02
1.718962115394604209e-02
3.802449852657294876e-02
8.284790598983304138e-03
8.135545621141594685e-02
2.797358411352268356e-02
5.458652786794336575e-02
3.549549200774323315e-03
1.754577090617362792e-02
3.786397861350658534e-02
4.086039372882173393e-02
5.447643387131985426e-02
-1.136906317705832156e-02
1.061897693918318619e-01
7.513048519299624084e-02
3.371566634899854364e-02
3.717349621736876913e-02
3.321104077418046002e-02
-2.018396427132723714e-03
-1.415377858192179081e-02
-7.671446132389739964e-03
-1.140933036208023263e-02
7.743465888470060787e-02
1.241322238676086619e-02
6.035159979827223187e-02
2.019651627315107931e-02
2.403359079375497545e-02
2.094486903337852007e-02
1.106971858097550651e-02
8.132373185858052245e-02
3.326923951803108237e-02
7.187872009600325407e-02
3.741641124025722048e-02
7.367703004638644082e-02
3.472952772057415205e-02
2.468578737673827322e-02
-1.047904130635290282e-02
5.691224283802089057e-02
8.176445614384934835e-02
6.677795874279106314e-02
2.544901479075549477e-02
6.358010015129623993e-02
9.367755110234510935e-03
1.249497568115304214e-02
2.389101732821695065e-02
2.623413128575874387e-02
6.635337168906194072e-02
7.573201752496842853e-02
4.099394652876788003e-02
1.036384299151439647e-01
4.329201918747742350e-02
9.655387152663022499e-02
5.356974739668530355e-02
6.816749557706375251e-02
7.323047876760142849e-02
9.984269051295398267e-02
7.237005721577538520e-02
3.189808941147451171e-02
1.093196039697131583e-01
9.021408255696303224e-02
1.469118511447758124e-01
6.022723992567136780e-02
9.733846372869678354e-02
5.979018875787951021e-02
1.158287635476161342e-01
1.205711166198759343e-01
1.642953028087754119e-01
1.415024792870890891e-01
1.164394426251915970e-01
1.390600571043892897e-01
1.704911371505804241e-01
9.282104330513607504e-02
1.662663167856517910e-01
1.328833674807908261e-01
1.475554124165822101e-01
1.629845559470926575e-01
1.206864701845303672e-01
1.245183145846184558e-01
1.925604024090565580e-01
1.632646494169814888e-01
1.775710141602604986e-01
1.879025404962831325e-01
1.459431619180193151e-01
1.627092857359757061e-01
1.596418548353210343e-01
1.179045122204823437e-01
1.826942634392928477e-01
1.843784768827817500e-01
2.040241581166322704e-01
2.006880534811991412e-01
1.383799924336797660e-01
1.393926702047553756e-01
1.726863934459998695e-01
1.984979947938311229e-01
1.781780770170993955e-01
1.725727224198221887e-01
2.389104729736546140e-01
2.214714888499648426e-01
2.320767968540977111e-01
2.301422921698092483e-01
1.980231462203972670e-01
2.678583055793167800e-01
3.398406775807487068e-01
3.047736073293350612e-01
3.103886524208215314e-01
2.991986333045089097e-01
3.596394598848806079e-01
4.456740382802275025e-01
4.921783972923393646e-01
4.950633527554490487e-01
5.988128743690533939e-01
6.181485397212324040e-01
7.395548626826318195e-01
8.010520193495410668e-01
8.829032830101483098e-01
9.096357329031932171e-01
1.015609161925265624e+00
1.063716622945828361e+00
1.133949916914172018e+00
1.179438951000852498e+00
1.199183487581377605e+00
1.273322531349550868e+00
1.305199685979491431e+00
1.275381932708637756e+00
1.330840072918958228e+00
1.322593108520051297e+00
1.268406366971817301e+00
1.267160957838280533e+00
1.201025285949922639e+00
1.188221222210271044e+00
1.087421882068130952e+00
1.090964008020037568e+00
1.022059091655839413e+00
9.382587725389024413e-01
9.007510153894233706e-01
8.139188275405293549e-01
7.296330914863949912e-01
6.816948641269116038e-01
5.681990879711238396e-01
4.970227173369036744e-01
4.898449468645316163e-01
4.094292906676987864e-01
3.982105277608307681e-01
3.108253703333481721e-01
2.829378561693292604e-01
2.327446421999255499e-01
2.216639516285085487e-01
2.480999635174763462e-01
1.820782201754357899e-01
1.845948755392883001e-01
1.830665654006654042e-01
1.901194372559031343e-01
2.023166763804749579e-01
2.575160516498452568e-01
2.229603364712783309e-01
1.829779429071758945e-01
2.037355791443903608e-01
1.900331110020071212e-01
2.363301810090701338e-01
2.306547815942974200e-01
2.017790614321046117e-01
2.340672729301784272e-01
2.406921714286666125e-01
2.333353253778547853e-01
2.480814976797141025e-01
2.582688140687972589e-01
3.093826977862701444e-01
2.858787685627579012e-01
2.254304160393285350e-01
2.660330048084700860e-01
3.264191554231979375e-01
2.774211443916164144e-01
3.255598607173775250e-01
3.524303864309737411e-01
2.492461412750483496e-01
2.781651284065076446e-01
2.853636523182699891e-01
2.467428006280360242e-01
3.300270607744583140e-01
3.008437419423573012e-01
2.428895097389704993e-01
3.038437798724266115e-01
2.719398655631506956e-01
2.960471618894049972e-01
2.228460691744792166e-01
2.926609485210028838e-01
3.238122287119520881e-01
2.859554047687437039e-01
2.450618921854929022e-01
2.961210877794006047e-01
2.910185951418047812e-01
3.430734096927647858e-01
3.079381648986720954e-01
2.861807904060524876e-01
2.551840533539996292e-01
2.877996069391523526e-01
3.448944620385450688e-01
2.956048955361363362e-01
3.011031892112991382e-01
2.041338362102378123e-01
3.026041015929809008e-01
2.744527194992715247e-01
2.686966236871587421e-01
2.693667937671209156e-01
2.662152490587841314e-01
2.482935094085099159e-01
2.369102357284466331e-01
2.052461726986815338e-01
2.317119251041752648e-01
2.715202133445010491e-01
2.166745220030594499e-01
2.525027899244627339e-01
1.915936553014290222e-01
1.781532130227299893e-01
2.009402744131923158e-01
2.365577026281672490e-01
1.596840137077588651e-01
2.519867217657953962e-01
2.578500011347237275e-01
2.099346463573576183e-01
1.676334719018831021e-01
1.645340021221329829e-01
1.532118925294831124e-01
1.483209608446230121e-01
1.576799074613219886e-01
1.046760014996694910e-01
1.653467741712290606e-01
1.163607680482226236e-01
1.200295549657736244e-01
1.186471168697819656e-01
1.480681486276472780e-01
1.662161587677485897e-01
9.852471108693408586e-02
1.611797427100181701e-01
8.751390596493674456e-02
9.569122364694071514e-02
1.408590426641136428e-01
6.064144176170854078e-02
9.059715854676282654e-02
7.609027198711545981e-02
8.709275736342847463e-02
7.727392082287386221e-02
4.277983115002662040e-02
1.105050536583783438e-01
1.000660327975369940e-01
1.140229545713572767e-01
7.254147661316084905e-02
7.970977478999470567e-02
1.071502571736355214e-01
8.504505104866727505e-02
1.035480319611872535e-01
9.953270484190239464e-02
7.412140035489193923e-02
7.399129342565760603e-02
6.753851996389068080e-02
7.099706380118153692e-02
5.031697042435594180e-02
7.563351669502353658e-02
6.970082322678711195e-02
4.494203753510258442e-02
7.355773897163547792e-02
9.792781128191922757e-02
6.024184352039073376e-02
6.118633375348928038e-02
6.380382016669670919e-02
3.360954179602165803e-04
4.585950720927836621e-02
1.255644068403278524e-01
5.675677198203842727e-02
2.796581733087224325e-02
5.319937588795071309e-02
3.691300699193805074e-02
5.843954439105639859e-02
5.842203015068622024e-02
5.062981028773341774e-02
7.888731194317735729e-02
1.545896934510344878e-02
6.136083985033372046e-02
8.246797553429816019e-02
4.254739781380438568e-02
7.494503789518337789e-02
4.346324694100500013e-02
1.735483832962691347e-02
-7.186291318549642426e-03
3.300259598224915270e-02
4.000619399123356290e-02
1.150832944496257837e-01
5.049272258903861332e-02
3.204151394458369662e-02
6.473003970197280244e-02
3.696060188953330383e-02
7.950510022260011411e-02
9.464199002984913234e-02
5.308518036936991924e-02
-5.299054940730518748e-03
4.498467975974020094e-02
4.303478902888382973e-02
9.686060684591732417e-02
6.105407179944206952e-02
3.580657333737528869e-02
8.937927434783157765e-02
4.379051879356660182e-02
4.340013382995718677e-02
3.210942634886451708e-02
8.182124720012171060e-02
3.080424929945819665e-02
6.631009849722345473e-02
5.873247781498232983e-02
4.866852209380492095e-02
7.388813144239247954e-02
9.265801122479395968e-02
9.365055239134514875e-03
4.132112470158499917e-02
3.880111957163659420e-02
4.919617146013507969e-02
2.851117339794297101e-02
1.496151908781149023e-02
4.244155344386852519e-02
7.610005332797391275e-02
