1.215036120473480530e+00
1.172016675461726942e+00
1.164489761683864533e+00
1.110941271369815020e+00
1.109395921619764414e+00
1.052545932328212475e+00
1.006853598949519091e+00
9.748295911096100941e-01
9.160180557854271655e-01
8.765591121956080034e-01
7.520357820648667646e-01
7.263346117649112088e-01
6.623870064377542777e-01
5.860684958440572911e-01
5.774772021472421857e-01
4.553595964102340465e-01
4.312348018439744468e-01
3.929570783858803429e-01
3.099999768802150224e-01
3.510060128439888016e-01
2.818156519014832218e-01
2.746609078176239782e-01
2.897018346850082082e-01
2.333803047359069849e-01
2.162032499226129167e-01
2.080723448166066358e-01
1.696361758510943063e-01
1.842997778930707820e-01
1.889779386211870027e-01
1.958185121972030596e-01
2.348447973258659949e-01
2.229850699118209045e-01
1.799072262819818024e-01
1.998769646598845262e-01
2.461200336819176215e-01
1.562401284247362798e-01
2.052442961190290294e-01
1.771583366716594499e-01
2.940191062525905896e-01
2.483020473602413902e-01
2.146646823204244048e-01
2.328632880234476066e-01
2.136042132794064852e-01
3.022293321389402654e-01
1.778126869762156892e-01
2.604246842802248052e-01
2.523118864070227341e-01
2.272694329102593891e-01
2.541041288652232666e-01
2.163442582353663490e-01
3.151849643807425605e-01
2.717732491180547827e-01
3.011505515706694447e-01
2.616258965367221356e-01
3.187279733582216168e-01
2.814141585695627001e-01
3.142864880004307970e-01
3.005900051744188062e-01
2.837618427037578162e-01
3.156956713035662387e-01
4.119284218504211670e-01
2.528172134717748265e-01
2.832343511907668976e-01
2.478803025474661526e-01
2.986831469967623498e-01
2.922887458119955983e-01
3.427929961028944872e-01
2.755398671044636538e-01
3.102498536764936032e-01
2.174951088284866330e-01
2.823700431203318706e-01
2.494007223037257859e-01
2.906952254092303733e-01
3.046602057674784869e-01
2.490856146053930797e-01
2.800435108663626993e-01
2.496499920087418833e-01
2.581068307848574661e-01
2.651673973615853441e-01
2.186686674975020783e-01
2.146093948426228137e-01
2.662376294891917183e-01
2.153936421044345406e-01
2.694694866931955923e-01
1.730725286998730517e-01
2.495261052546469127e-01
2.167612560370147379e-01
2.086752937735676383e-01
2.108048266235003909e-01
1.578538053816207765e-01
2.296973706477089816e-01
1.779011339874761455e-01
1.605386799587578961e-01
2.452531100315855916e-01
1.646052720337830844e-01
1.439330133800752476e-01
1.890261908848462624e-01
1.673756997899542021e-01
1.846471271420958571e-01
1.517844589717494697e-01
1.729315266983025012e-01
2.009175552651170094e-01
1.117526234546653841e-01
1.159515689790025228e-01
7.696015254068719336e-02
1.318560694025775193e-01
1.197301777942419987e-01
1.494855014724746911e-01
1.064815878537407612e-01
1.006648493233199132e-01
1.050315891378347244e-01
8.822254770851599426e-02
1.024981240402965954e-01
9.458315204631209672e-02
1.004147153216568972e-01
7.399179712808455489e-02
9.403699123945838401e-02
9.287988217000478497e-02
6.153264315701258147e-02
6.595376608959228892e-02
6.033047359597283610e-02
2.612354750562427552e-02
4.580697410920531176e-02
8.076645738430857091e-02
8.101703590765851892e-02
6.358934494541369775e-02
2.095149144350151593e-02
7.873983735382400484e-02
1.030782395825857178e-01
6.357063213482058717e-02
4.404602573814793420e-02
1.667947750278707744e-02
4.075390782750783203e-02
2.500840649223311923e-02
3.266887403209350199e-02
7.621078505495251787e-02
6.302829981596173858e-02
2.535242626235702929e-02
3.748980204153908036e-02
3.403165832101927302e-02
2.061100907338855870e-02
-7.147776678960535146e-03
5.765927351594989092e-02
6.805535755289870981e-02
1.427684731874594853e-02
1.293234429230860627e-02
5.991468427391061224e-02
1.299179852851397622e-02
-8.203934211449635111e-03
2.064438009148558684e-02
7.536091782400516914e-02
1.984703220097030693e-02
1.712388966029897500e-02
2.362955419708332588e-02
4.585576700146209300e-03
1.104724243821589291e-03
3.445557835296548382e-02
2.113586149542011350e-03
3.429326020370508654e-02
5.638022895155948844e-02
6.219036945441488995e-02
4.925811472131910729e-02
2.029852819981365838e-02
4.685474298366615331e-02
7.267057555685979553e-02
8.421849578010760784e-02
6.085281973801701799e-02
5.151993761360280921e-02
7.886419788213813731e-02
6.962232347084568174e-02
5.365796230420377677e-02
9.749592109825536146e-02
9.299769937588070468e-02
6.343861101480123554e-02
8.199236473765228461e-02
9.952488047939810067e-02
6.378035145999727540e-02
9.195457336535278747e-02
1.369286101242266629e-01
1.074164467423856517e-01
1.021984951767245520e-01
1.625477763651843599e-01
1.443155763204159447e-01
1.582793269513295964e-01
1.172477360718441886e-01
1.354392675518874545e-01
1.465682324698968642e-01
1.563528038999984493e-01
2.204963989829073212e-01
1.565264921557005806e-01
1.882905994737144872e-01
2.258870079533510933e-01
2.098713429192325952e-01
1.639551318103284472e-01
1.942162006192379720e-01
1.639042896245825887e-01
1.589713948965156554e-01
1.852587339207671935e-01
1.863167670879489757e-01
1.747887084796425072e-01
1.544153871757832364e-01
1.450629192381828747e-01
1.238741735685478657e-01
1.661017124152481816e-01
1.703575816659899100e-01
1.913645840917307106e-01
1.273536195120845704e-01
1.807798471988822098e-01
1.803532268929428917e-01
1.961409942749613444e-01
2.497610525190848141e-01
2.689226989830047487e-01
2.829584259512663569e-01
2.816319740208212408e-01
3.040861884734474829e-01
3.816652192399635490e-01
4.375447575236423581e-01
4.797494816680184515e-01
4.966327121221950081e-01
5.375328807843257062e-01
6.150462855221653369e-01
6.776748953442506274e-01
7.054882051145537902e-01
7.747504728887157910e-01
9.341950496917903468e-01
8.908028670603521659e-01
9.847199901223651075e-01
9.949034570740472594e-01
1.051194920431061774e+00
1.063997857213240028e+00
1.091851570962026452e+00
1.155943147969521689e+00
1.159994779810592291e+00
1.197270716527245593e+00
1.129309454785521361e+00
1.109510605532643357e+00
1.070411995397237748e+00
1.000864095343096283e+00
9.987442697566457639e-01
9.210242223015617791e-01
8.235329102870090345e-01
8.372795907458320253e-01
7.227191954064547952e-01
6.856028713713464562e-01
6.235211808499131481e-01
5.579449242019244304e-01
4.638037917575821845e-01
4.820546661529608312e-01
3.690315751064316419e-01
2.727667835335916835e-01
3.324776153996297223e-01
2.970831325129832945e-01
2.072446739932310433e-01
2.180589923804681640e-01
2.301068754742212619e-01
2.235096689996716735e-01
1.865338235207137374e-01
1.831185621557671062e-01
1.727022612316413130e-01
1.423036457776742925e-01
1.109424443516624642e-01
1.346059940877477046e-01
1.763398954655294726e-01
1.773079554405738167e-01
1.520759487064262949e-01
1.387484810903707455e-01
2.040822203949865243e-01
1.594324244732475415e-01
1.787787424645610468e-01
1.275942697571385842e-01
1.663592920950929532e-01
2.049372992812016347e-01
1.355924341984613146e-01
1.798163286704229091e-01
1.974910252538092936e-01
2.322432554963820006e-01
2.227304596317741803e-01
2.481837490300965454e-01
2.261430824973216236e-01
2.315206378657488906e-01
1.796462341768533255e-01
1.820741551481775133e-01
2.651137463787354154e-01
2.039828948059439762e-01
2.040077015653423143e-01
1.534859571155025026e-01
2.567362140875709131e-01
1.933320228733715063e-01
2.040176700047683644e-01
2.629232544821410444e-01
1.650360969748448647e-01
2.730001083755701496e-01
2.080290050380683708e-01
2.288935765077149131e-01
2.101441376451471665e-01
1.933636452539008177e-01
2.100595457892084350e-01
2.072952329963529683e-01
1.941976930403828405e-01
2.761421981860239794e-01
1.992529458740095183e-01
1.699341147423497900e-01
1.625593273853932763e-01
2.352553257536171283e-01
1.676103212915879825e-01
2.114935794600134589e-01
2.729016909495987075e-01
2.160255400255016167e-01
2.168314170259722784e-01
1.875570984734139801e-01
1.991912973472601545e-01
1.890842954662012021e-01
2.006155258382057160e-01
2.367065939353652226e-01
1.696741548454648862e-01
1.542083363461008994e-01
1.708193972466392208e-01
1.970219994102859751e-01
1.531027310132322405e-01
1.662069006010198913e-01
1.684374104663934890e-01
2.125043408758012786e-01
1.703869261368920751e-01
1.112828019338338442e-01
6.646117082724800618e-02
1.314336855380993097e-01
1.004956603758379863e-01
1.018182132657910743e-01
8.127825137579045012e-02
9.080098204186477784e-02
8.504720162277563944e-02
9.223145453888273448e-02
7.047994143263063005e-02
6.417960015773432891e-02
9.670172499698539981e-02
7.591717731066868757e-02
7.141133135407599919e-02
6.517577818132819223e-02
3.528838840384600911e-02
1.008330328465540521e-01
1.143983449271843422e-01
8.639874625396887220e-02
-7.750697212185825302e-03
2.137965728091354572e-02
5.864352202794854974e-02
1.119950640357163588e-02
9.095480034478350267e-03
-1.446204925530938934e-02
1.248548263513370865e-02
-4.488193797964890042e-03
-5.464141784763808934e-02
4.868734617008507737e-02
2.382529700622037713e-02
-3.143986884740723048e-02
3.209371073781442513e-02
7.410923788945436574e-03
3.604980032376378651e-02
2.108660638266360993e-02
-2.629803736486413523e-02
1.504657683282584202e-02
1.444802783893048975e-02
2.302138802254301633e-02
1.963282052752775980e-02
5.052286577682223168e-02
1.532487668711467882e-02
-3.810791028704765826e-02
-1.046500427676392425e-02
-4.836006128066594467e-02
1.839619381871016035e-02
-4.446308020878297906e-02
4.737937368587025189e-02
-2.899829825205456346e-02
-2.210258213464062760e-02
-3.517071621021328198e-02
-4.306704217967209647e-02
-3.768085660243736257e-02
-1.490917990878842109e-02
-2.129353724890943600e-02
-3.446670633162480374e-02
-1.216335738111584686e-02
-3.720619762064847347e-02
-2.049134953790691938e-02
3.335908649719269981e-02
-3.592926046500258958e-02
-2.680328526011511309e-02
-5.115030226744877312e-02
-2.529345807119026679e-02
-2.373594527597437664e-03
-2.776322549439609946e-02
-4.404809436868159511e-02
2.884760688055446054e-03
8.302041404262182345e-03
1.512886944695975705e-02
-3.785587489283955692e-02
4.322240912499390048e-02
-9.562717422939966128e-03
-2.201540359992154583e-02
4.226330494382955077e-02
5.505957903799435504e-02
9.170095888523008276e-03
-2.578256207391597943e-03
3.957871313541484748e-02
-9.638361079375198925e-03
1.110133537236331625e-01
7.721093176826447635e-03
5.365849570947633929e-02
4.249080025916041059e-02
2.408914356632668036e-02
2.798369964945576077e-02
9.424920844769157924e-02
7.575439267462673321e-02
4.810725331374444275e-02
5.635590544737155427e-02
5.279110327373576911e-02
1.075366233008360067e-01
1.125125819244369718e-01
1.042091667892403595e-01
9.933213171275136200e-02
1.136120282692378580e-01
4.817959095994089891e-02
1.084630577844373223e-01
1.345315814761614548e-01
1.113753890138101943e-01
1.076927079181680680e-01
8.837101580613787588e-02
9.140930764092629335e-02
9.353939024842443384e-02
1.164032727847888610e-01
9.539661260448865920e-02
5.529293477726861250e-02
1.338467942952890899e-01
1.254586461097718098e-01
1.203937044248983984e-01
8.177448380840496300e-02
9.562182556706047554e-02
1.270348891427587612e-01
1.141351176976269088e-01
9.535765103326607206e-02
1.596303230506799786e-01
1.013172505506591548e-01
4.539967963975084092e-02
1.483366962241190468e-01
1.633573060726634107e-01
1.783541511481890329e-01
2.096559074826512548e-01
2.060960981856558849e-01
2.833346521459126355e-01
2.460923470503589006e-01
3.258673541006663066e-01
3.520579129486032799e-01
4.500667374922713848e-01
4.494064995317041955e-01
5.325301634243121418e-01
5.931342894716516989e-01
6.586890415859421033e-01
6.940649987434346357e-01
7.896963889150465654e-01
8.405547268600015443e-01
9.076986345219185681e-01
9.975728042988522004e-01
1.000573718815752411e+00
1.006479424867512851e+00
1.125740944528953014e+00
1.117280832534097490e+00
1.118297756514239794e+00
1.093394419742103052e+00
1.110666994632465654e+00
1.006061963599157671e+00
1.083791063378603647e+00
1.025111781271068168e+00
9.460468296009506561e-01
9.242452524245341472e-01
8.584880011746446327e-01
7.479819258482831579e-01
7.199916117127920234e-01
6.616852748825510222e-01
5.830016299649274369e-01
5.189692547310754689e-01
4.940587272465927771e-01
4.175255555632665372e-01
4.181579264148561625e-01
2.965631509573445346e-01
2.877574495207294580e-01
2.122061968279377597e-01
2.294327246246813390e-01
1.497003146074783186e-01
1.702386673353888380e-01
1.795516080486656285e-01
1.319127837156590932e-01
9.011879329458964694e-02
1.405255854191095888e-01
1.177621807647095259e-01
1.012554899448687706e-01
7.336445907449726245e-02
5.409376891891477107e-02
1.711117424552057453e-01
8.844596182501381076e-02
7.865158815699421768e-02
1.212323971444708159e-01
8.501887372880673199e-02
1.345790413149126619e-01
1.644507287375993054e-01
9.660376175462406789e-02
1.238748194005500902e-01
1.502872747969595246e-01
1.053301215391591605e-01
1.190139591297918187e-01
1.472310475685268405e-01
2.138530692357706320e-01
1.336271415387352279e-01
1.547730606365658179e-01
2.415401177874764438e-01
1.947384790328607895e-01
1.236094213105705386e-01
1.707941511754758057e-01
1.985106984231507776e-01
2.273114123963449751e-01
2.284243287010557233e-01
2.059368383447624795e-01
2.128991647108273710e-01
1.544304391520752162e-01
1.743810395394024826e-01
1.577361118186511868e-01
2.288020202251406232e-01
2.101491556153936291e-01
2.027313243478007232e-01
2.462652585523538440e-01
2.162454975369254018e-01
2.341085791620957646e-01
2.222442285477572443e-01
2.244838326349308799e-01
1.666302866185777609e-01
2.259092410714874655e-01
2.093835042816948599e-01
1.811688930999612035e-01
2.119621501464772073e-01
2.277469145282176588e-01
1.837291733209179823e-01
1.614576631788872119e-01
1.598879444580063036e-01
1.359646846468699766e-01
1.693900337062122508e-01
1.885869286301881942e-01
2.191407625016509597e-01
1.390328281646753816e-01
1.699002837084712947e-01
1.555711935334612994e-01
1.502666829029686291e-01
1.001405702127162733e-01
1.111085558188945749e-01
1.911748068759426267e-01
1.622302443907503999e-01
1.355824750661801525e-01
1.360372761341085424e-01
1.395224631291424600e-01
9.877517884408947013e-02
9.498923487322030734e-02
8.369613490208602236e-02
1.022081574395185266e-01
5.760462056074926868e-02
6.720595572447707333e-02
9.734380868030707845e-02
6.665216179254748741e-02
1.985229810634045466e-02
5.618286795887244417e-02
7.918229087125139287e-02
6.163199505391817046e-02
2.876250329692277286e-03
8.004541872462297980e-02
3.728503040098860716e-02
5.055523662097213822e-02
6.753551266516757967e-02
2.840093560615908341e-02
-2.912243748613212863e-02
7.696750754442807652e-02
-4.565587408145694442e-02
6.992522483145371948e-03
5.235845638498490273e-02
-1.078539948533839554e-02
-1.223998191435006488e-02
-2.699720159444807255e-03
-4.592555278191287615e-03
-2.782905519642029854e-02
-2.381841577630628565e-02
2.490347281809436597e-02
-2.574558682521682282e-02
2.916923511276349468e-03
-4.176795999331481268e-02
2.504540578199423995e-02
9.655356778317067401e-03
-2.303028152107666066e-02
-2.853907106456478326e-03
2.192451815066040477e-02
-5.531141466504636839e-02
-5.834691478636173934e-02
-1.675442149256380076e-02
-6.794988283563424547e-02
-7.681759657001720198e-02
-7.932466360405285299e-02
-2.764382972410515601e-02
-9.392329563474097198e-02
-4.561367793429120521e-02
-1.369665161806355169e-01
-2.135580683000707497e-02
-1.966863048981713769e-02
-4.139835169807058041e-02
3.295481102393721384e-04
-1.123107551372904550e-02
-5.869268328366969434e-02
-6.100449117123079440e-02
-7.774044028561633013e-03
-1.320949148086686398e-02
-4.115651630371575803e-02
-8.506199676638991070e-02
-3.443004855534601005e-03
-2.821260138443791587e-02
-3.069217259136366657e-02
-1.127069011406407056e-01
-9.961130836257374443e-03
-2.602086258225313684e-02
-3.846598030432812898e-02
-4.525205390071523892e-02
-1.454681036329589366e-02
-1.368169047934283955e-03
-2.422378339827732652e-02
6.849416929354534833e-03
-4.148736339700527520e-02
-2.329764620035887357e-02
2.022785672791643785e-02
-8.955889013968876267e-03
5.838552110157661790e-02
1.905020911268946737e-02
-2.029029256139473075e-02
-2.817555513371978321e-02
4.669562263771373511e-02
9.327029881519406651e-03
5.951558714440670361e-02
2.035107186880583119e-02
4.842161246668291730e-02
3.573801210920942578e-02
5.811745769222391444e-02
7.697667586883820412e-02
6.027978756065003468e-02
8.408748242719053800e-02
1.776695506272367442e-02
8.555332477030300198e-02
7.799955551850407121e-02
7.351022302225899974e-02
1.352031230622492697e-02
3.886560654168854517e-02
9.918481668893337766e-02
1.061573575476308234e-01
1.107497724915507686e-01
1.008827985630536272e-01
6.747397622564477171e-02
7.461340358152182550e-02
4.389298178313439519e-02
1.123096671993544654e-01
1.668470326755127353e-01
1.077459244779570696e-01
8.827285902224854541e-02
1.122194987380835118e-01
1.076054577783446820e-01
5.974334922855008972e-02
1.196464507525272364e-01
1.091118463392761750e-01
1.079167066213923554e-01
1.738515612319299630e-01
1.130637402916971623e-01
1.736733405689993570e-01
9.837325264532269242e-02
8.371577692696369200e-02
1.125733107059714300e-01
1.823415982904569299e-01
1.375139246960446204e-01
1.339049672237208055e-01
2.070272129746520973e-01
2.095582073987455607e-01
2.669973655687377656e-01
2.630391719857089750e-01
2.937948700912336175e-01
4.144929122890793627e-01
3.877278065933989493e-01
4.401078724153894006e-01
5.354500746355465024e-01
4.976850570878690871e-01
6.652994583740848844e-01
7.602570969353886765e-01
7.958464982288889766e-01
8.005586179484891485e-01
8.691479866140956467e-01
9.474958899855279171e-01
1.005446708042915471e+00
1.084684765295751196e+00
1.116750919530049124e+00
1.087299477314683127e+00
1.091816326859528452e+00
1.087798150279795317e+00
1.123450882669307260e+00
1.118971023772739493e+00
1.061189270819669961e+00
1.022591493698880694e+00
1.041485602919757447e+00
9.471944498171057658e-01
8.085413559570904241e-01
8.085423802824704964e-01
7.526579867445821748e-01
6.746259249697735827e-01
6.570658293600560862e-01
5.474531076339236302e-01
4.686198631914047508e-01
4.212091705815228515e-01
4.113054004069026104e-01
3.036419479108050656e-01
2.876516683242018591e-01
2.910400544594549110e-01
1.929773258638845246e-01
1.756370502900634345e-01
1.333995420028169510e-01
1.390687026688294248e-01
1.357404868937605869e-01
1.331581024137800107e-01
1.046018939835639677e-01
1.150252875076441805e-01
1.524456488107791274e-01
1.314602156244125963e-01
1.853670343253928932e-01
1.022608500286585481e-01
1.110726879914331611e-01
1.320440590798349911e-01
1.154531258971777941e-01
1.340106570438201750e-01
8.153178106898321953e-02
1.324304884631115342e-01
1.745281194202155661e-01
2.100432899587383329e-01
2.011731899668135759e-01
1.662596858002169942e-01
1.816553255033485359e-01
1.818048049678218925e-01
1.598402756644901612e-01
1.521622250655314534e-01
1.927229504974150021e-01
1.861621316789827119e-01
2.186743223009801063e-01
1.259336679163304828e-01
1.958123793617912445e-01
2.407637543606400421e-01
2.250376942997963370e-01
1.812943204507912465e-01
1.743233985081166504e-01
2.147821834050661072e-01
2.420485114422052109e-01
2.360558151696587059e-01
2.258464842089351610e-01
2.431957220147752396e-01
2.329412859234238908e-01
2.442093748791391572e-01
2.550882778278073526e-01
2.140804558361679155e-01
2.010358617249550783e-01
2.493842381539800312e-01
2.118252635621362678e-01
1.681120952814989800e-01
2.684126209205555114e-01
2.320311199340127917e-01
2.292485250812089093e-01
2.157178310253350662e-01
2.444290828035673990e-01
1.786207591163044284e-01
2.147922494982366926e-01
2.204951775411864157e-01
2.256797911589819849e-01
1.548088099992426248e-01
2.205957748768231363e-01
1.867492441463861341e-01
1.761158024908264785e-01
1.450048443691434319e-01
2.548647587208417442e-01
1.799391396248428976e-01
1.869223094308631039e-01
1.436515034646719258e-01
1.248763344540734094e-01
1.906589750014898166e-01
1.211064245566369907e-01
1.960347452915116029e-01
2.062132447493099374e-01
1.241646705097870229e-01
1.287957750959216885e-01
6.152629988263898925e-02
8.071575619172119409e-02
1.471557995965331600e-01
1.610457134523443912e-01
9.519678186888128057e-02
9.501382934171122285e-02
6.181927820766629916e-02
7.073229399280954455e-02
1.399457218059053931e-01
1.049090316691871777e-01
3.735579378320785793e-02
1.038934157641207834e-01
1.538162931074481543e-01
6.674104051991910924e-02
5.455613523794036052e-02
8.808758287412495058e-02
9.703733706697914574e-02
8.781324155346371951e-02
5.009159692292906862e-02
4.354928341936965819e-02
1.119334647368297464e-03
1.276182856792931926e-02
5.740864884950003244e-02
2.760883491149727920e-02
4.822261341303214072e-02
3.098175077692421828e-02
3.742954895329843323e-02
3.371893102437258094e-02
5.320544973839058667e-02
5.409060265738389883e-02
2.604393290282371043e-02
1.848010018501059643e-02
2.169967838392959300e-02
-2.459601974720800228e-03
5.204915153365385905e-02
1.113318347505882003e-03
1.180617396786462145e-02
2.062565117343751614e-02
2.348709627752577217e-02
2.120921309966159948e-02
8.105243147278701210e-03
6.072007461747703366e-02
1.291077531800354644e-02
2.497682838748565594e-03
6.345310438878955239e-02
-1.420740512329386057e-02
6.267637269701442637e-02
-5.121488691006399752e-02
-3.476594846005979199e-03
-4.147501428930011613e-02
-3.208920461051505135e-02
2.263732753414011978e-02
1.801722159772901899e-02
-8.272026354694107450e-03
5.964494197018914423e-02
4.545545274947507958e-02
1.080674577803125182e-02
-4.083000709030139980e-02
4.341497952858909548e-02
1.543300763776324141e-03
2.632297964522852668e-02
4.318256087731043441e-02
9.075725010434305962e-03
6.150898868735772684e-02
1.396719899496757719e-02
4.390054705042947814e-02
5.295464254206262711e-02
6.041324878635918882e-02
8.829581780330235385e-02
1.441039945105805978e-02
8.376262464218485471e-03
3.618084197472076075e-02
1.407646881514957871e-01
9.377185510846031136e-02
4.070861160147964952e-02
5.088720415294896438e-02
6.511008435559637042e-02
7.812509387415629558e-02
9.365441671370101917e-02
9.948669267052029364e-02
1.195609169751233186e-01
1.484670426560862622e-01
8.913619678817527592e-02
9.151111615232633556e-02
9.177096704739853839e-02
9.914255147324789463e-02
1.232120237732938772e-01
1.358308157549343032e-01
1.730646177408642350e-01
1.043970564697633829e-01
1.406585244979616511e-01
1.087343198267907846e-01
1.499514176729406234e-01
2.216078872189357618e-01
1.407034419650675383e-01
2.214921489997683790e-01
1.256358908271327235e-01
1.394652834334957625e-01
1.452175991516309606e-01
1.626524163875986417e-01
1.543821820044640192e-01
1.832205762007535210e-01
7.887919218403161015e-02
1.326629535491999912e-01
2.194200364830597716e-01
1.207185228197403259e-01
1.525152514037938778e-01
1.818563495241712902e-01
1.625033404222814282e-01
1.390247366885502545e-01
1.789729898930066676e-01
1.924551094531180562e-01
1.521451283250707942e-01
1.861565857048680106e-01
2.051763613530997732e-01
2.190906234049449786e-01
2.074081997475394623e-01
2.599483413145379784e-01
2.256055590669659439e-01
2.138109970120740111e-01
2.598657134308680616e-01
3.302649146015128601e-01
2.992383401300603984e-01
2.957709498593958375e-01
4.187238689864661301e-01
4.383506623303553562e-01
5.704210964537678175e-01
5.664083508647936860e-01
6.544417109785414244e-01
6.641490492297184023e-01
7.598019119600284421e-01
8.166197065310339953e-01
9.093655125936573880e-01
9.338037797580612809e-01
9.685201809356648317e-01
1.066167535522322796e+00
1.057581545277894275e+00
1.090452146085317819e+00
1.140525667015645173e+00
1.149041047238615665e+00
1.165887131738464477e+00
1.141284558435185614e+00
1.180353427565255187e+00
1.155279568648038824e+00
1.113054857808557285e+00
1.067766164897422376e+00
9.409036645878078309e-01
9.445917769842380185e-01
9.072777387318521347e-01
8.593820684030549772e-01
7.493076498672834873e-01
7.308265220238671089e-01
6.385356244000262027e-01
4.918175601554349297e-01
5.096377343701843365e-01
4.347496835829463557e-01
3.934799660923053444e-01
4.001679375728841026e-01
3.393128300583022061e-01
2.816256795175949290e-01
2.485319199426036241e-01
2.582394802057297878e-01
2.201224997679339379e-01
2.310148051310175477e-01
1.732915760069788924e-01
1.777109805316405833e-01
1.492602408871938069e-01
1.622420705340839597e-01
2.420994240087165073e-01
1.541817810869863248e-01
1.628805583814728342e-01
1.542146594486157318e-01
1.761196689733201814e-01
1.827695127648023554e-01
2.253040310947646008e-01
1.807607510558005004e-01
2.007936790326650400e-01
1.457565901662701557e-01
1.807550440363312194e-01
2.440407723503480453e-01
1.905726605347258518e-01
2.440236944171620403e-01
1.979148387659481756e-01
2.250988571116874504e-01
2.862291693753666877e-01
2.615032900665270610e-01
1.848123082270694550e-01
3.440852276387736941e-01
2.201806388300685258e-01
3.110367322738334384e-01
2.451734291211364047e-01
2.250000699005673954e-01
2.514160288983479097e-01
2.482075502651366616e-01
2.539827396938556525e-01
2.745958741246496415e-01
2.892687393231020421e-01
3.194054732559927223e-01
2.848271043909286759e-01
2.820529225207064061e-01
2.591109257675420219e-01
2.731666472165842352e-01
2.669596603033007609e-01
2.411173236120684182e-01
3.587922628154291416e-01
2.892113532611973459e-01
2.889883950323684503e-01
3.169929560744449981e-01
2.018711347387968646e-01
3.450692385258958272e-01
2.504699421684510319e-01
2.478120262908583282e-01
2.558544536215465182e-01
2.992587335858621911e-01
3.314173444081426334e-01
3.134080835383945551e-01
2.466863586297223798e-01
2.039159865876019051e-01
2.419616273969534270e-01
2.315538030471921693e-01
1.975733382287931938e-01
2.604253696491939940e-01
2.389489104980915268e-01
2.495770195392397195e-01
2.521349294664558260e-01
2.462430516460024366e-01
2.191922381386676444e-01
2.656634324306721417e-01
1.970367150000360834e-01
1.877966240731306913e-01
1.951709316513147996e-01
2.134035309753728182e-01
2.128520505751081981e-01
1.772870246400401195e-01
1.730266501586131267e-01
2.168820605856084938e-01
1.336630821354585219e-01
2.504926997486610629e-01
1.542926764026997244e-01
1.524641913708058016e-01
1.650371339375643065e-01
1.653195623697235050e-01
1.252054265305265757e-01
1.505810003496610427e-01
1.080867725775416510e-01
1.138934754526995663e-01
7.958030939022629757e-02
1.279160298869226331e-01
1.144842136879601624e-01
5.555449738459872916e-02
9.184656153515978472e-02
1.078420395570659357e-01
1.310338234616161557e-01
6.346987923223580685e-02
8.969227130235986334e-02
6.263664298166710109e-02
1.144417136149540604e-01
6.980785386537469162e-02
1.027146326035714152e-01
7.381794461131135909e-02
3.099272805695191951e-02
7.767347190083921660e-02
4.202300430041396723e-02
1.090404907652452043e-01
1.280252564725753994e-01
9.074669130918965043e-02
5.064842821612630663e-02
6.889958991181288628e-02
7.541026434659245381e-02
9.783126894712906862e-02
5.833685413966906846e-02
7.503435622941717620e-02
1.132320025869510555e-02
6.796594705319999874e-02
3.402238821324014145e-02
6.034346423310228691e-02
2.724547314010686977e-02
7.017098077853700655e-02
7.651178822722375095e-02
5.003355490045154758e-02
3.080496948496616594e-02
7.387688118062087084e-02
1.033660283185448142e-01
1.144026051283362488e-01
6.885621460020520390e-02
6.567609134594304399e-02
1.835072571896992702e-02
9.783349840892766047e-02
-1.052152231373673641e-02
9.579965102795340304e-02
6.188282912139755898e-02
-1.069085551497192532e-02
7.370514596830134157e-02
6.041190842100011005e-02
5.330714456566516130e-02
6.050490723176404906e-02
7.003551503000016165e-02
7.212608515277839361e-02
3.087128792194813315e-02
8.976455153897644479e-02
6.900516083021701608e-02
1.308966961387121875e-01
1.121675110529784247e-01
1.187939302690206866e-01
1.488875468895817511e-01
1.187086816033631753e-01
9.598891851309648837e-02
2.752150029209109172e-02
1.155445105005528106e-01
1.644097881159022612e-01
1.436109249925074383e-01
1.059309490173392793e-01
1.274214382001460644e-01
1.134840202800122821e-01
1.439100476881814694e-01
1.240289301887253226e-01
1.871265517852415128e-01
1.521380248541422398e-01
1.607926966540932368e-01
1.326823766283048156e-01
1.493665466015301480e-01
1.314774842368576224e-01
2.127565163457531550e-01
1.587686758325459468e-01
1.826859753451189061e-01
1.349323773774072088e-01
1.477078911703842423e-01
1.801562359469259245e-01
1.810477341910565752e-01
2.001561007167797501e-01
2.552679362433547539e-01
1.362247986666493549e-01
2.275919179109297530e-01
2.143720236313336747e-01
1.817767217024091886e-01
1.879349207732124161e-01
2.349358359999044465e-01
1.996698916503762966e-01
1.919672880775102064e-01
1.702239282253686092e-01
1.767401857678408961e-01
1.656926319186071139e-01
2.294672599882286168e-01
1.807519742084530701e-01
1.706388401738381799e-01
2.150014775558672930e-01
1.900136190709381945e-01
2.674385859281727118e-01
2.309936401326231625e-01
2.472421995851394882e-01
2.616930124274416403e-01
2.904270032065381923e-01
3.163412287366670350e-01
3.219045764114712993e-01
3.211244937191032878e-01
3.823743533983821052e-01
4.290557432039911467e-01
4.234753970912994436e-01
4.591271413895803288e-01
5.399917892749483972e-01
5.756280178569483930e-01
6.802328098653400712e-01
7.342071355880005479e-01
8.233494677981414434e-01
9.046763475826185008e-01
9.527795918425819854e-01
1.014340688534288271e+00
1.081919555457874660e+00
1.089595103945556032e+00
1.059315550929276650e+00
1.114514906875185840e+00
1.201430608182747939e+00
1.201694581984082077e+00
1.215395523457073912e+00
1.267975072370417955e+00
1.167214531913894238e+00
1.126123380530087204e+00
1.099074272250077033e+00
1.005184430695529763e+00
1.009559369423491004e+00
9.230550353070914316e-01
9.167124246022673173e-01
7.544807926231831274e-01
7.385490414158135675e-01
6.564534881469749061e-01
5.822574079332197838e-01
5.749752741098341779e-01
4.926616851752044224e-01
4.924186621818307241e-01
3.916904788766928380e-01
3.559471225989286336e-01
3.932965834780888792e-01
2.623789260458431194e-01
2.541383292369988611e-01
1.640807515263375260e-01
2.265182649389826663e-01
2.474130870074774946e-01
2.289501503497521906e-01
2.137362637180036384e-01
1.782636288843046091e-01
1.960005946975949542e-01
1.886255148409870797e-01
2.006052224661889483e-01
2.073256521508550498e-01
1.937909125291459589e-01
2.079361594568542027e-01
2.077242212469987415e-01
1.942419788770625433e-01
2.209958086608307393e-01
1.846134560732984597e-01
2.328084510223907555e-01
1.985511290351231195e-01
2.356336130513081439e-01
2.548668771629503671e-01
2.175795625222993468e-01
2.807151169791805567e-01
3.076487634918027014e-01
2.386490210027004122e-01
2.578181190063392747e-01
3.023735102691714749e-01
2.157584770146928066e-01
2.742072099353686232e-01
2.674533885731618654e-01
3.066326590814019704e-01
2.751524211129961484e-01
2.987271646924002377e-01
2.629001555212132635e-01
3.183267810040096291e-01
2.580645808828668786e-01
3.195135982276901543e-01
2.970886378743298750e-01
2.253157208970713032e-01
2.987142906865311032e-01
3.156312486057912259e-01
2.608639708247176836e-01
2.723784557641099058e-01
3.002181553495829047e-01
2.816933177722862336e-01
3.061369404083343904e-01
2.889071342225702499e-01
2.542575350457860761e-01
3.620966243411468666e-01
2.801846738052825581e-01
2.919864106534642567e-01
3.390594324219768918e-01
3.091608016562770733e-01
2.968518755733435266e-01
3.090880050637674348e-01
2.906092051770682305e-01
2.871140377548833111e-01
2.838964962566188910e-01
2.579466930900264354e-01
2.912069333330787879e-01
2.749894551594230241e-01
1.814116471029114108e-01
2.714337000116017196e-01
2.174902377717510826e-01
2.438544434498967628e-01
1.815740285763779160e-01
2.093326700340958357e-01
2.109180349315656899e-01
2.329050089085745179e-01
1.940831085580111415e-01
1.416115852070120862e-01
1.867283968176741416e-01
1.848595831413205326e-01
2.101068752536796869e-01
1.904058037137426052e-01
1.578343127541758928e-01
1.840472487166947557e-01
2.256889789117779710e-01
2.007827277571088698e-01
1.034402490028919208e-01
2.300979326914983358e-01
1.865531416172163393e-01
1.938770715576417503e-01
9.608386967399380751e-02
1.247109921930524695e-01
1.503526254490157865e-01
9.471310053120696182e-02
1.399669784073437617e-01
1.690136250465805179e-01
1.060195685092006901e-01
1.632338900935328685e-01
1.294458127582739371e-01
4.897076294754090092e-02
7.514748404173740570e-02
1.310701303562759323e-01
6.358849525041779249e-02
1.237884829605982590e-01
1.067411996216635073e-01
9.487368393222578300e-02
6.541017555149188090e-02
8.911383394196745189e-02
1.280259260870162674e-01
6.344248515457950877e-02
9.115743600683511028e-02
1.308702015267703689e-01
7.649183872854302402e-02
5.195897731780932394e-02
4.979975875933338042e-02
6.116455507260282198e-04
2.516706769887212120e-02
7.015329197719735732e-02
8.770213468387386135e-02
4.453233992449277812e-02
8.483830128739638932e-02
8.187129988601932196e-02
3.094989775077103961e-02
3.533099917231357495e-02
1.205787685137038948e-02
7.410591938957175606e-02
5.135489376960339358e-02
7.743959670059316625e-02
4.869808702897115982e-02
2.206882530406999166e-02
7.359463143144633068e-02
-9.203920509271518169e-03
4.029412602800109405e-02
2.747473845208409787e-02
9.690396316083055295e-02
1.042030832284355779e-01
6.512199067586596501e-02
3.592934129430098988e-02
1.059500191202409070e-01
3.454333795944090901e-02
1.531576827815232453e-02
-1.265078722922252652e-03
6.310096715508384246e-02
1.043784499987608985e-02
1.064877196839269236e-01
4.872158013988327208e-02
2.993709837617240105e-02
1.045725254000954285e-01
1.001325172769552130e-01
1.266892887389247102e-01
2.890531837521883446e-02
2.585962606519531803e-02
1.334188404274470330e-01
5.999144352133084501e-03
5.745383772726281313e-02
9.944354546719430532e-02
6.188556944678583888e-02
1.121977906454009882e-01
7.557792502201438056e-02
1.529899857887741244e-01
1.401229242291585630e-01
1.311730532357596457e-01
1.166108820541238433e-01
1.005816462412385259e-01
1.318314847188219729e-01
1.031399756458679512e-01
2.017383512977652948e-01
1.578268473471654276e-01
1.260244270018847923e-01
2.028167802081698445e-01
1.579792164554368605e-01
2.046362599178778718e-01
2.068009167659967396e-01
1.816570054011041879e-01
1.330218361277653860e-01
1.559395610984606328e-01
2.829758172761972501e-01
1.604052417478660508e-01
1.705448378281162747e-01
1.651243675681426659e-01
1.518099589147630935e-01
2.015569738938164934e-01
1.404659127102108607e-01
1.557036628193508576e-01
1.897447222770952679e-01
1.727663934807854018e-01
1.850250559083657376e-01
1.792282621396426301e-01
1.453581137474267981e-01
2.253617211091283323e-01
2.173794424865226615e-01
1.571205265316015232e-01
2.041351951287642685e-01
1.808499308236922731e-01
2.358783279002249766e-01
2.394408214388597522e-01
2.645647442713124908e-01
2.150252718848022493e-01
2.231347825578444133e-01
2.325240682494464917e-01
3.975345837464224763e-01
3.782153201826947142e-01
4.270269040668036586e-01
3.902121156974203142e-01
5.005796670415341154e-01
4.825610312806011826e-01
6.044300351137038563e-01
6.510899403880410219e-01
7.034246730034536821e-01
7.590867088078696590e-01
8.733998643793237093e-01
8.836192536266934683e-01
9.980226351246417327e-01
1.009560067294467123e+00
1.069748723216234820e+00
1.115263295347895367e+00
1.144244330673833909e+00
1.159536247077668891e+00
1.229330265667899935e+00
1.200140330456431315e+00
1.080487848731640721e+00
1.131496882760367084e+00
1.153090643757624267e+00
1.045940274564138850e+00
1.024448366718275327e+00
9.740962794000196379e-01
9.617301374168046868e-01
8.211447787158242528e-01
7.618429950258843730e-01
7.397583331735275713e-01
6.711816653606469396e-01
6.145437295238694864e-01
5.494084431078383179e-01
4.806936001931896296e-01
4.498459347388261143e-01
3.926982539325061250e-01
3.375224133292375472e-01
3.065827493967003270e-01
2.607454700585347118e-01
2.289139538884598091e-01
2.445785122989373173e-01
1.704748246176943649e-01
2.159106781696221167e-01
1.762139127728045151e-01
1.728225014194920139e-01
1.648893775268473472e-01
1.817150403264244929e-01
2.092069681344094767e-01
2.185527801595019137e-01
1.967044303784112325e-01
1.694084289376298624e-01
1.935554283828975763e-01
1.120098308440850288e-01
1.944323774847745712e-01
1.917295679847045298e-01
1.377630533961603509e-01
1.708808815315064622e-01
2.009341434681617133e-01
2.083803444873009447e-01
2.299606530118724623e-01
2.556077867064681652e-01
2.052418448714379007e-01
1.796842660222834065e-01
2.424719159262317958e-01
2.603065343497660833e-01
2.634041554862908696e-01
2.430439365213610259e-01
2.922820353746993782e-01
2.272448765601956244e-01
2.864162122446853864e-01
2.063907778697611217e-01
1.757534127089409870e-01
2.107400236253958448e-01
2.308780601510113384e-01
2.499563732506631664e-01
2.235231867686349183e-01
2.566424902616908921e-01
2.732552420242662650e-01
2.652028024619636493e-01
2.509886058231594608e-01
2.914234631279028487e-01
2.312776523947811802e-01
2.477233069852257941e-01
2.378507645143189131e-01
2.730479841105564742e-01
2.395405344212366561e-01
2.628790930890340660e-01
2.736660879660484658e-01
2.320093996401769165e-01
1.970478849878453120e-01
2.357733527014499730e-01
2.159503340938093707e-01
2.176007017882059524e-01
1.595643531281330518e-01
1.816964956675004572e-01
2.507101093125891911e-01
1.947929719404386528e-01
2.536123564246826056e-01
1.933095280629422708e-01
2.250481662400981020e-01
1.983926900494335233e-01
2.208690186081480877e-01
1.890408768563293374e-01
1.981940798026261275e-01
2.237719619746416644e-01
1.959414811423000613e-01
1.560509962531866635e-01
1.153269919870180543e-01
1.630287192512337724e-01
1.739433109519909204e-01
1.603652271387813466e-01
1.241085894364536979e-01
1.496892737408309360e-01
1.596387232948888180e-01
1.763739952420127766e-01
1.225425993336748121e-01
1.978236198211371644e-01
1.625552322939951277e-01
1.189063849965678182e-01
1.166734219513294452e-01
1.455329292681232511e-01
7.008931518258627869e-02
7.012644661311007166e-02
5.086083479909433991e-02
7.724777897432728857e-02
5.460859701369062680e-02
6.537619933683727624e-02
7.071267983391851808e-02
2.624380084835829102e-02
1.045472752304584252e-01
9.540114500822786947e-02
4.205366973183776585e-02
9.663837930724795966e-02
6.029341737742646701e-02
7.819607791823739162e-02
1.234262820746992798e-03
2.867401797438345890e-02
5.457104066328912623e-02
2.789131551275057450e-02
2.474141054742785492e-02
2.402859274376530074e-02
3.600497620535519222e-02
2.571754756351390947e-02
6.680697040369670825e-02
-1.181063552884632772e-02
1.863052669293313937e-02
3.494904017709860727e-02
-2.532987186299523116e-02
-7.105951580326994033e-05
1.382492169557476662e-02
5.217364102827190542e-02
9.764108354541164297e-03
2.710479732375233389e-02
2.786823228942789804e-02
-8.060330907978639770e-02
3.495556235262887654e-03
-1.286563013975766841e-02
4.453020337372538828e-02
1.973564152068222471e-02
2.447057949997938006e-02
1.338414830317437992e-02
6.226942712122679469e-04
2.235005405507729803e-02
-3.429371926017858382e-03
3.579326121216017120e-02
-3.461995820708537591e-02
2.890753475752421212e-02
-1.264994824928077945e-02
1.922203278806202884e-02
-4.755859480926333260e-02
8.593613479161526375e-03
-2.962696909679204266e-03
1.442402867199470834e-03
-4.882405546601002733e-02
6.759809476447414811e-03
1.141029160678792842e-02
-4.400416719186748399e-02
-2.297227066213360092e-02
1.856537321085206110e-02
2.850972528331736922e-02
1.743309392722251425e-02
2.312763655053605427e-02
2.559097305321384602e-02
1.161410733686144697e-02
2.595344975225668052e-02
-7.248137901742068151e-03
2.090658276100949495e-02
4.095843130453677428e-02
8.321897638038891487e-02
4.651196466277589259e-02
1.161201404419375249e-01
1.163687110444136252e-01
6.481229915360760263e-02
5.459777209000822584e-02
1.392971802724819186e-01
9.799544434169521478e-02
9.304271751149476022e-02
6.245258906918292607e-02
7.540513751209908244e-02
6.224261409606245132e-02
1.407924888523426066e-01
1.149372121297539961e-01
9.413847541540058816e-02
9.262948088421903148e-02
8.018120291416450107e-02
1.106967141309279645e-01
1.205163706535703205e-01
4.944847791573912799e-02
9.080803679493693048e-02
1.011499834582480079e-01
1.554129446006098925e-01
1.073270640478553167e-01
7.090057909802455205e-02
9.221126434241479208e-02
1.772269120357574668e-01
1.143509373502582666e-01
9.426511053245917315e-02
7.501585625699555560e-02
1.257765955793425927e-01
1.288975202391229868e-01
1.384912764386196926e-01
2.077898789662795953e-01
9.032550588076612708e-02
1.187178341658335218e-01
1.422025266665576382e-01
1.255277321002824520e-01
8.387478343589122032e-02
1.707403619291620045e-01
1.488097649866649275e-01
1.514095075497586818e-01
1.757604056089309974e-01
2.723945752382688212e-01
2.925394853465805856e-01
2.532347629074725437e-01
2.712846338349685915e-01
3.923733513242440574e-01
4.741598376698877848e-01
5.339079264275501391e-01
4.770066358018766328e-01
6.191439390926705144e-01
6.396557172871166763e-01
6.447463719250873249e-01
7.398560413475105957e-01
8.038869616612958069e-01
9.008980341846675177e-01
9.006675399273262883e-01
1.019440103884707405e+00
1.047855039449771208e+00
1.098463288229830859e+00
1.073101201143533689e+00
1.119857771414433545e+00
1.081475273945248894e+00
1.126816829954873533e+00
1.082900139745456070e+00
1.059367802173896811e+00
1.026877935893360183e+00
9.317546018319781131e-01
9.688800019674199682e-01
8.792942358228781341e-01
8.521505228932715337e-01
7.868621138500646595e-01
6.646391736211028078e-01
6.169513077044274096e-01
5.160028143735186923e-01
5.393325660392802590e-01
4.557531910452417567e-01
3.996331395682750642e-01
3.375104503360750186e-01
2.738007620874500225e-01
3.035038382004108248e-01
2.923113312197092029e-01
2.437521870408322910e-01
1.756156351860563569e-01
1.731097576888804002e-01
1.781220616165301585e-01
1.369070143973528664e-01
1.835055934314052950e-01
1.563169454388080581e-01
1.983559754837584121e-01
1.184140175159149738e-01
3.948489064372524143e-02
1.146887789889075304e-01
1.027599440003806597e-01
1.217474454561629782e-01
1.730930768883519044e-01
1.068540699002063638e-01
1.020177135709234295e-01
1.116640463495010283e-01
1.999632222482957689e-01
1.258862503445991043e-01
1.519091062826156413e-01
2.039392390420717016e-01
1.728404259970803825e-01
8.962154023940965830e-02
1.469988742462149944e-01
1.460386065219262119e-01
1.173423102668021967e-01
1.591935510293416289e-01
9.551590302349530215e-02
1.904580148311030563e-01
1.842709894552664596e-01
1.659470080864588193e-01
1.358438471652387292e-01
2.346794747463894215e-01
1.782840923553946355e-01
2.305160029427565926e-01
1.958248644930733473e-01
2.451371774661721958e-01
2.203922550914076961e-01
2.074427077068294600e-01
1.798784921908132550e-01
2.447413222534821076e-01
2.000341789355135069e-01
1.819011830737987667e-01
2.015056779127930020e-01
2.044372199653568256e-01
2.313692528584604946e-01
1.477315974675198762e-01
2.744663344745774669e-01
2.153848390123428713e-01
1.992559993610000524e-01
2.110439832804388016e-01
1.495200118499704911e-01
1.966808758147399749e-01
2.097297501501449446e-01
1.784134365782577003e-01
1.997709085903236204e-01
2.044595863604048158e-01
1.552174881863364053e-01
2.107506234266841583e-01
1.675191537526677654e-01
2.223966574296267207e-01
2.002045253530120306e-01
1.686946542088383072e-01
1.275982260152552505e-01
1.439421553771855489e-01
1.727552325444380865e-01
1.208730151096558958e-01
1.457295189451707218e-01
1.441182889574394999e-01
1.192970645759064419e-01
9.292702980770822796e-02
1.603835331831187372e-01
1.215704823459408945e-01
9.312131857884230202e-02
7.333635426276741143e-02
1.188800108991634186e-01
8.475308162919706345e-02
1.111077932678981584e-01
4.911585409260757484e-02
8.091167046323591294e-02
5.255738577014851948e-02
1.143867083237608412e-01
6.845974360577691820e-02
2.289736012575462748e-02
7.627111347732608293e-02
8.081372406081333004e-02
2.931549801785975073e-02
1.089577973365387503e-02
-3.502233190174190020e-02
6.008007605109308424e-02
-2.942299992783511259e-02
1.794877432393968131e-02
-3.600115127824701083e-02
6.626557727744691872e-02
4.887873976841618229e-02
1.457964679203785363e-02
3.386706991742413630e-02
-4.542541360198944222e-03
-2.820454004219187169e-02
-5.651558739398391401e-02
1.490314112747723185e-02
-4.164911789543813969e-02
6.204082397451227832e-02
-4.939298250834710940e-02
1.219321256376101892e-02
1.808256426388621385e-02
-6.230288438169970244e-02
-3.739594216320570735e-02
-3.248691410806291147e-02
7.731773759774338006e-02
-3.598106698843648449e-02
-6.411629395498794071e-02
-1.645985517875171028e-02
-6.377091017508784709e-02
-3.521717109665255946e-02
-4.793675592524965917e-02
-1.955796445056179333e-02
-5.263595562297187364e-02
-5.727529651781610581e-02
-4.501191377648150471e-03
-2.856912841003484207e-02
-3.664774796132692913e-02
-9.538046595456056709e-02
-1.899360590832344098e-02
-5.166207818647745864e-02
-2.895637742633648537e-02
-9.227333910232138336e-02
-2.812869244958549064e-02
-3.001309561408416204e-02
-4.190966295304793254e-02
-6.067245463170949787e-02
1.975282298953315308e-03
-5.415821723890307943e-02
-3.049061950574659396e-03
2.634166152549480278e-03
-5.200125351976396526e-02
-2.672038949848881684e-03
-3.590579314067282590e-02
-1.579303604195350652e-03
-4.635041534777649408e-02
-1.908229263191313710e-02
-1.049125762126459915e-02
-1.067784242283508628e-02
4.825053318638222732e-03
-2.751621302636025196e-02
-1.629685279012325211e-02
2.537644391695478840e-02
-4.569819502638163000e-03
-3.136761292762434150e-03
-9.362793248922821054e-03
6.316797513886605875e-03
-6.367121254501686978e-03
5.073339653846575814e-02
1.985704294015679106e-02
5.338055692201575109e-03
3.629566465175377427e-02
5.039431021406519384e-03
2.578106005557513625e-02
9.656186486608962782e-02
2.768354044223174382e-02
6.032693903621228620e-02
1.350003298439949040e-01
8.031558700215180036e-02
6.136943948056342718e-02
2.071984746024664592e-02
8.879252274467476502e-02
6.394554754325082468e-02
1.066394451004707422e-01
7.226660140025595314e-02
1.032235946172814500e-01
1.403500741588585843e-01
1.188366922649348179e-01
6.057836631129916161e-02
1.039235198018252093e-01
1.309966650243747921e-01
5.707826233403870408e-02
1.536324155970523742e-01
1.074186682440084195e-01
1.205565239704308456e-01
9.300743172739130149e-02
1.048738089745085561e-01
7.705856323169743560e-02
1.511329827266335302e-01
1.599718719472822404e-01
1.729182270568629110e-01
5.904948168802542224e-02
1.269024330548432777e-01
1.368289337211532897e-01
1.117983704329745809e-01
1.559201222785248919e-01
1.165131015536824410e-01
2.221723735073644623e-01
1.543925735906671037e-01
2.345836986945107339e-01
2.820518016437954523e-01
2.765268483652727483e-01
3.767426390534006075e-01
3.267226674947749654e-01
4.310844660551727547e-01
4.361364914276757987e-01
5.218484125378191063e-01
5.912995106502431097e-01
6.522740867419213329e-01
7.703988103889594097e-01
7.596653221070612805e-01
8.085515223109404070e-01
8.988823847434505021e-01
9.666631723981085056e-01
1.023213901644703494e+00
1.079717056618115123e+00
1.008629793095971339e+00
1.142016492494320135e+00
1.074669553329450356e+00
1.088120973177096218e+00
1.083883148964787324e+00
9.946423388905822893e-01
1.013891819301384167e+00
1.015242142759781752e+00
9.557239920696859459e-01
8.670982529666101390e-01
8.293138653651171976e-01
7.745528888646108223e-01
6.891760971979986605e-01
6.477977394705090042e-01
5.462267148521469107e-01
4.813559586591800721e-01
4.434848805841757335e-01
3.265919192523716874e-01
3.709367868052063089e-01
3.085924994044922931e-01
2.604028017123954375e-01
2.569535711512759835e-01
2.155511719987382446e-01
2.113886357214929679e-01
2.067448618428658624e-01
1.531062365835351435e-01
1.089961545332694959e-01
1.428759208057420182e-01
9.290642612351603102e-02
8.713729689297514125e-02
9.879907226841427859e-02
1.415318894101440239e-01
1.298414572833082870e-01
1.355383349572018004e-01
1.151339370398667683e-01
1.316820081912694063e-01
1.362899563162420502e-01
1.016590340704513207e-01
1.442754808333063521e-01
1.310155372604719093e-01
1.236085884007732671e-01
1.297330227998219898e-01
1.285693816997887373e-01
1.413906406566418084e-01
1.541971135478890087e-01
1.789323484509379725e-01
2.086993722544716878e-01
1.847921166547295824e-01
1.754291461322386447e-01
1.159329318303229384e-01
2.523582384693754399e-01
1.622234887084926802e-01
1.666712998396550627e-01
2.281382722259617801e-01
1.602342483452099398e-01
2.072567654527075476e-01
1.848150840301376607e-01
1.934783811044298862e-01
2.046580216690664089e-01
1.692094793229260707e-01
2.029051948349352985e-01
2.387130159664113405e-01
2.067505796539712559e-01
3.147277814720699785e-01
2.130252936138698205e-01
1.746093525384100897e-01
1.948139334832756919e-01
1.521024609590858889e-01
2.418689350244882519e-01
2.568355639944140956e-01
2.328225856973783481e-01
1.809285290830223436e-01
1.782981991771921682e-01
2.246567371274154346e-01
1.847689807984341515e-01
1.721784380744730003e-01
1.661942784031489040e-01
2.485881826998918576e-01
1.755288469065915402e-01
2.111374660271779502e-01
1.992167594916242068e-01
1.536319483056554358e-01
1.765016462427598243e-01
1.412874224218229335e-01
2.106519164873381367e-01
1.356490624739017936e-01
1.695706536536292774e-01
1.393189820067686491e-01
1.218360394217265774e-01
1.772589165028847502e-01
1.245919298397447084e-01
8.057017660968461559e-02
1.433754170935084282e-01
1.045772165039172974e-01
1.256663015281720974e-01
1.417503389144893766e-01
1.218973281498915151e-01
1.330086288726005650e-01
6.257072474285477193e-02
1.326750584114548548e-01
8.304820164415047112e-02
4.447631505705123417e-02
9.004584654329982063e-03
6.882698940640963325e-02
5.000690589629731148e-02
4.607112420448819523e-02
7.491348766377495250e-02
1.122781074222813646e-01
2.951000081106257972e-02
5.531717364650368812e-02
3.163057968181334084e-02
1.527775647330835429e-02
1.074865561715796988e-02
8.695596844461937758e-02
3.466884522647006861e-02
2.527548673324997788e-02
7.252125513195817330e-03
2.678701247402890534e-02
2.714678281019382994e-03
7.696862568160653395e-02
2.396028198369978823e-02
1.805381502146716916e-02
1.496330805322706320e-02
4.840620035855273950e-02
6.345332812018267266e-03
-9.329776680092861929e-03
7.872496381612057587e-03
2.497559578499928407e-02
3.503550470745157852e-02
4.423238254299709238e-03
3.394007066095220543e-03
2.494663228662126822e-02
-8.809773779810720074e-02
-4.554800807282960440e-03
-2.575338518972302912e-02
-7.390875701871035125e-03
7.345476633999724336e-04
2.671636864011332768e-02
-5.275898634194156611e-02
-3.328394636186652461e-02
-3.876326860206547043e-02
-3.054930458916680497e-02
-5.360264553507890217e-02
5.158765114495587889e-02
1.366297734044410669e-02
-3.552576143787261609e-02
-1.148253701908665339e-02
-2.454808962564888203e-02
-6.251046972788835282e-03
-3.326275063246515729e-02
-5.508009707853747661e-02
-2.557267137076246408e-02
3.416491074863726995e-02
-5.054188340915920230e-02
2.836001800877300735e-02
1.384446428727253639e-02
-1.317782614514914630e-02
2.324791794029904685e-02
9.112864734996079658e-03
-5.898412762041659041e-02
-4.532994993294677671e-03
-1.009119118657336722e-03
5.642475576637179940e-02
4.058466179375698479e-03
1.294622155190369370e-02
-1.219798430802280370e-02
2.428128750922868562e-02
-5.776461002704111336e-03
6.634376323642282580e-02
2.517262291349538911e-02
6.220293307871282290e-03
8.302666595240212888e-02
1.150183045796257866e-02
6.286902829938934012e-02
1.520313266597868654e-02
7.329471217696435781e-02
1.012629586390940695e-01
5.455088001932530128e-02
4.337068310126627330e-02
4.905460499878397385e-02
8.656293772197293235e-02
1.507068168561999100e-01
1.294569454195604596e-01
1.369665985617394277e-01
7.404605162746116798e-02
1.431741944213870132e-01
1.438093276397559850e-01
1.270618410527881714e-01
1.024414285094413929e-01
1.537715655750963306e-01
1.072114559620146457e-01
1.499138553209733993e-01
1.211232622839711059e-01
1.050160747899886726e-01
1.241492994110201115e-01
1.967623491633667954e-01
1.038721121080182358e-01
1.694456754404512488e-01
1.655205109043753064e-01
1.352026834898890362e-01
1.244664662993595072e-01
1.038328142733174475e-01
1.802612505390029929e-01
1.064338030125375617e-01
5.936054498171815935e-02
1.537035639936863984e-01
1.061995151002814719e-01
1.467661996797344492e-01
1.144735138699893295e-01
1.438242302144770723e-01
1.719561641744076774e-01
1.891787020646598372e-01
2.353341849227850724e-01
2.127662427977705384e-01
2.373277763673857788e-01
2.525256245208756245e-01
3.175898105227808466e-01
2.908730516480324546e-01
3.515147697195941112e-01
4.093295386030041394e-01
4.316156327700102491e-01
5.544466451556967490e-01
5.796772390335476199e-01
5.939098348338649469e-01
7.055330024922232823e-01
7.960896017234577737e-01
7.983038799686190679e-01
9.220424329629414162e-01
9.469153796292771874e-01
9.985026730699116948e-01
1.075442454753110511e+00
1.085115181650680993e+00
1.121554242688032943e+00
1.133867189586750035e+00
1.089503253941781269e+00
1.154906354969942095e+00
1.139974716734962312e+00
1.100566385818655846e+00
1.005356991327564620e+00
1.061587637518860427e+00
9.705254100591197419e-01
9.095768515092390594e-01
8.488266208463146612e-01
7.653618919771220108e-01
7.746667691676505374e-01
7.676400978919463158e-01
6.164886341416001558e-01
5.973974301052343838e-01
5.117928738784999210e-01
4.684624663503315078e-01
4.081371267620436116e-01
3.883103221623187551e-01
2.882800852274137737e-01
2.922258322692486421e-01
2.929368654456824261e-01
2.543119245629662517e-01
2.218861656670676197e-01
1.979141675924070976e-01
1.707307679250363586e-01
1.608026164145397174e-01
1.174573486516260618e-01
1.742675622647339717e-01
1.973009289480735506e-01
1.640863364231273380e-01
1.560907805807534576e-01
1.750395853365983856e-01
9.590400338593994822e-02
1.473504803177472233e-01
1.640101033956168630e-01
1.190963722207012548e-01
1.794891814547294462e-01
1.237362291275460185e-01
2.047115859830549445e-01
1.955470798614432348e-01
1.878647538558547714e-01
2.212381607216305224e-01
2.075633385471248593e-01
2.220966937334862001e-01
2.209260053786686329e-01
1.910857392720242132e-01
2.682641930623150262e-01
2.627670870232371447e-01
2.422684968421296714e-01
2.377510686528774009e-01
2.593910414225035765e-01
2.781236187804120297e-01
3.006648216814870045e-01
2.302984308929703627e-01
2.806860849965623905e-01
2.492224136197925821e-01
2.058420732412318543e-01
2.812820895761963258e-01
3.019225402694959981e-01
2.885890156428333464e-01
2.555510902130178064e-01
2.732017039257099711e-01
2.832174943948904122e-01
2.798392276803705614e-01
2.996734156813939398e-01
2.909035674092054213e-01
2.448159222144033476e-01
2.622678446842761635e-01
2.453520669624264239e-01
2.640870579357469938e-01
2.016774979146938873e-01
3.138274284407897019e-01
2.305763070472538478e-01
2.363166511612696252e-01
2.517039191599355075e-01
2.051751289708964587e-01
2.335125830445278217e-01
2.454939979960063801e-01
2.865614074489130081e-01
2.378454547850301082e-01
2.177210445892702462e-01
1.922671078190819061e-01
2.861815303796511056e-01
2.201919832662348198e-01
2.160979370529285959e-01
1.681030967989902425e-01
2.205122234611643361e-01
1.825641114291546019e-01
2.397187809195915620e-01
2.048013080562826049e-01
1.898722471714773263e-01
1.416539314227580060e-01
1.735838891548754093e-01
1.652941278822534776e-01
1.705754091327773003e-01
1.029729098395757020e-01
1.299952762993393796e-01
1.376448673800694800e-01
1.628068282909361786e-01
8.521777175444275598e-02
1.799690723202426179e-01
1.712308677295246717e-01
9.966845963371551154e-02
1.991816869121331990e-01
1.279593595350291269e-01
1.133325697259569137e-01
1.303155698618634339e-01
1.210316816571027909e-01
1.081095568887019964e-01
6.827460825861891847e-02
8.402756919511035483e-02
1.043127301246358357e-01
1.151889098713946846e-01
1.300462427897544349e-01
6.996067136128669706e-02
8.299618733733009346e-02
5.787689096597732619e-02
1.076940709205431029e-01
6.285610855016449117e-02
5.200057117314711708e-02
6.906277784828782074e-02
1.470172170693824498e-02
7.893417994421617068e-02
5.133904418776780165e-02
1.417095329430190787e-01
3.830293095661482794e-02
4.711095675318240777e-02
8.404435340963813117e-02
7.549591178902417821e-02
8.173304586888990864e-02
4.099284030338670726e-02
1.381353127293150074e-02
1.272132001745238106e-01
6.170967404652079324e-02
5.214885960151256772e-02
6.881612593213187745e-02
4.914403726971508513e-03
2.979324003270801199e-02
1.177878662040766564e-02
4.776654166051726158e-02
1.215310159489033787e-03
6.268331193046221272e-02
7.800120426688758601e-02
7.703835426302538258e-02
5.610923234232725876e-02
4.904674670877097464e-02
3.125017241653721412e-02
5.788647713122559851e-02
4.191104655984823069e-02
-9.969139137177084053e-03
2.867665286516262596e-02
7.215585157116047310e-02
1.597610068336005953e-02
1.690627398036488593e-02
4.695973089522090249e-02
-1.026682011037304693e-02
7.870906349124681678e-02
7.825174498401260559e-02
8.980367787959910031e-02
7.057699914741163982e-02
4.108497019957144808e-02
3.268181428192282190e-02
8.920392139752350569e-02
9.740750778363362061e-02
4.588459191885611160e-02
4.547977716092321820e-02
8.620441984504498278e-02
9.480387600621781319e-02
1.228280117721019804e-01
1.188638458562488454e-01
1.009234801122674968e-01
1.388289733205851639e-01
1.018077505361949381e-01
1.076409602910702035e-01
1.470031099313424683e-01
1.549731741811409269e-01
1.604607277325107717e-01
1.302552131348020947e-01
1.424438935119779481e-01
1.188999242822192659e-01
1.763983369334251872e-01
1.360588241616787764e-01
9.816229842362658720e-02
1.489262763467147921e-01
1.403964719772406167e-01
8.856158480359907492e-02
1.560340707234569302e-01
1.999255259632295167e-01
1.918028646488828259e-01
1.943982160621439692e-01
2.271645976643699716e-01
1.690690151540932828e-01
1.538000768553272057e-01
2.043974019677942400e-01
2.014071773374347674e-01
1.535433048515627563e-01
1.868313097716133020e-01
2.086464632055808899e-01
2.009644992388325280e-01
2.148366162185387229e-01
1.729062224558714500e-01
1.508687052625114766e-01
1.666866512258676769e-01
2.211862732012937482e-01
2.282255100897615518e-01
1.950247497081132320e-01
2.496226972399508415e-01
2.052167581978474875e-01
2.025608518748501785e-01
1.858883379087586663e-01
2.390815367322013663e-01
2.895946981309334145e-01
3.159788768865527397e-01
3.342592621072111858e-01
3.458812007750617368e-01
4.122365764650648967e-01
3.735940936063122386e-01
4.814331382796601111e-01
5.023227222665744840e-01
5.526681957836254711e-01
5.600807979789040880e-01
6.726803484332575245e-01
7.590658785032714517e-01
7.238310368788059002e-01
8.747911116152610189e-01
8.442056102362913705e-01
9.292070966315733038e-01
1.023518377094938980e+00
1.122640036918577389e+00
1.112960972584162045e+00
1.164179959007146214e+00
1.146707519604337477e+00
1.182015297935245401e+00
1.189525941454357083e+00
1.232754487828320089e+00
1.143753657582343930e+00
1.118805452568910619e+00
1.134220358622421987e+00
1.049833059227817778e+00
1.009200356443020530e+00
9.620722904378445905e-01
8.692530096186491528e-01
7.637223800699061149e-01
7.935538399507577889e-01
7.012089333751542197e-01
5.974783593052055419e-01
5.998805938139049054e-01
5.811106290734477930e-01
5.051121803122722298e-01
4.849263906360629650e-01
3.437621505412623568e-01
3.512089525548708346e-01
3.224722111490085918e-01
2.812279408364654065e-01
2.523273872144313201e-01
1.549829747627922971e-01
2.799432517375967655e-01
1.694418359526978501e-01
2.367934205375615275e-01
2.043025257611014722e-01
1.995211415342853789e-01
1.925517603707470327e-01
2.044674987555031298e-01
2.187210896455387410e-01
2.300262782685823792e-01
2.004453271055809949e-01
1.713992856131733855e-01
1.741608213538589633e-01
2.466441489171677937e-01
2.116903136287639486e-01
1.935931799236326745e-01
2.066802538467761852e-01
2.307492914427908826e-01
1.996937781017586455e-01
2.418497006331904731e-01
2.848962938151117785e-01
2.481714937647253594e-01
2.030190130527600445e-01
2.862614621474872667e-01
2.975671662571670040e-01
3.030190977371703953e-01
2.735945526203952261e-01
3.452730041288375462e-01
3.007106852862408974e-01
3.714164996566733379e-01
3.251394667183221676e-01
3.231851502203023641e-01
2.709485429625354547e-01
2.633390840891997042e-01
2.971411096225471393e-01
2.895361239987876978e-01
2.805549091344665680e-01
2.938781222477055421e-01
2.926678254473745744e-01
2.799551804047180070e-01
3.191470283683706666e-01
2.768741617419041567e-01
2.978446327430419593e-01
2.621438279721796105e-01
3.007395830087189470e-01
3.026649636408634825e-01
2.664048731456972186e-01
2.957138756913751387e-01
2.887612761221531321e-01
2.757165855016022737e-01
2.735980442175146021e-01
2.979318821301752407e-01
2.824795307811718281e-01
3.072701986833740184e-01
2.441513550340771443e-01
2.661170548286909687e-01
2.496243183231243445e-01
2.660056620998558774e-01
2.682360743990759300e-01
2.205186328802467011e-01
2.694400319960641443e-01
3.120776721449872171e-01
2.477404149550883061e-01
2.119115040382005544e-01
2.244192783013760628e-01
2.186086711769950341e-01
2.034045354920249182e-01
2.401409555058167666e-01
1.587602393054060035e-01
2.165959294119010614e-01
2.420863307888444504e-01
2.350970583207803721e-01
2.240032574047180480e-01
1.684326554296495249e-01
2.269571218260243162e-01
1.892614209698958716e-01
2.160388285806741915e-01
2.009212600435099916e-01
1.731033557069893702e-01
1.515983353212189133e-01
2.252104082650918104e-01
9.632344318284409568e-02
1.400397894600117765e-01
9.870238396175118334e-02
1.400973400368672184e-01
1.431183107419997658e-01
1.090685644937350041e-01
1.073779575995688906e-01
8.096054609426431292e-02
1.304241013851528130e-01
9.928496601672098798e-02
1.224769441769295863e-01
9.074344419879340484e-02
1.106462188388655649e-01
1.223156471487500258e-01
1.115027038717285590e-01
1.006077100248587430e-01
8.844663922041515192e-02
1.032435823332605307e-01
6.834288343809005739e-02
7.816741734677887243e-02
9.215525969840707154e-02
1.257064992421894623e-01
5.917088632441934448e-02
4.901822968894333638e-02
8.227608315167492248e-02
1.081768417641345015e-01
9.465417882329908716e-02
6.938616415912478297e-02
1.040169399326829336e-01
1.154543267014951358e-02
9.487637428829714947e-02
5.386827334064757389e-02
8.102845402416600229e-02
9.127390076078645276e-02
6.581890457783032278e-02
6.114870905291446002e-02
4.639734935149263106e-02
1.080423453676926104e-01
6.684104287980778547e-02
6.243787627475021196e-02
1.003598901833541446e-01
3.935581612310230099e-02
4.633482167664977613e-02
8.138794058244078200e-02
1.059700059254895521e-01
5.358455224331190592e-02
6.338780447875788648e-02
3.709430790648629572e-03
8.942874221603039353e-02
1.809371354047434322e-02
3.405579589563008380e-02
5.556352418001531818e-02
3.013355513259178067e-02
-8.868947560435561095e-03
1.197492715965055299e-02
5.174496617930109815e-02
9.344013831615161081e-02
9.079909128480018188e-02
5.957119123140835332e-02
5.260875129831536767e-02
7.164318994198225210e-02
8.729927929696079669e-02
5.086500679659070739e-02
5.172688600560734762e-02
5.312860338057787124e-02
7.715394429758776207e-02
5.660371165490590828e-03
4.705992256109396005e-02
5.844399166855058364e-02
-1.051077123208846859e-02
7.366589867597812813e-02
7.830438639567259551e-02
-1.249481736453449815e-02
3.335922072482341849e-02
