1.290626685645662519e+00
1.290038763884372441e+00
1.241122304084019801e+00
1.261343636693220471e+00
1.209785983775763851e+00
1.148966000445215130e+00
1.084978987350407653e+00
9.633021761200321054e-01
9.219813406930983390e-01
8.798376728223281651e-01
8.625568259473943566e-01
7.855054612035123895e-01
6.578183582548448038e-01
6.439671536384719008e-01
5.275322943278909493e-01
4.196435432886984063e-01
5.048791436639737951e-01
3.341683187127085786e-01
2.749915285338225823e-01
3.324438393384251400e-01
2.853586843011098884e-01
2.800584148184118161e-01
3.044592686309929852e-01
2.611911031398178595e-01
2.356419685634272843e-01
1.830669879044795056e-01
1.872332601992846568e-01
2.149880793340068486e-01
1.819814894249900394e-01
2.179689373673719954e-01
2.009929088351514737e-01
1.898059884497489136e-01
2.316405733110016296e-01
1.935791293069763774e-01
1.633039851479619886e-01
2.453559897107262522e-01
2.123855606041486765e-01
2.096770571341307343e-01
2.170329149779186562e-01
2.080499267112788930e-01
3.080697702551921657e-01
1.950405189821926288e-01
2.490744164732021093e-01
2.486890735832285593e-01
2.707296397550609246e-01
2.399370366357952977e-01
2.916347690629728651e-01
2.481369999488410583e-01
2.468547890080819707e-01
2.675239711681932642e-01
2.785392451992506624e-01
3.038389086001846984e-01
2.348774144429549016e-01
3.037901270334448789e-01
3.080050149826398243e-01
3.024261870645015282e-01
2.802024910882850994e-01
2.690284971614156917e-01
2.997729126158299451e-01
2.927426316610989288e-01
2.419634100323055093e-01
3.141431619122327934e-01
2.666153725076952363e-01
2.674935687718418276e-01
3.184732493613772752e-01
2.907335329349216568e-01
2.797840322094733434e-01
2.723114753896879736e-01
2.746495313337961597e-01
2.791613341957888683e-01
3.274136084759406429e-01
2.177803633332151267e-01
3.484743360701295645e-01
3.404850740528048703e-01
2.563040330866799832e-01
2.695253643491140050e-01
2.659824667303186674e-01
2.888332875286676038e-01
2.570605498893772656e-01
2.603788411443553885e-01
2.801783885629661741e-01
1.822219721313713126e-01
2.311042673887976073e-01
2.381088696013743122e-01
2.167180057756014633e-01
1.705721698170598599e-01
2.179294285827283462e-01
1.952392388711515769e-01
1.936629869744180277e-01
2.010659433835206289e-01
1.454469157737023621e-01
1.822348258617015049e-01
1.652770990382987082e-01
1.419116349795968846e-01
1.902489769599060021e-01
1.314424042347941968e-01
1.812313160929619749e-01
1.859495579777432073e-01
1.510869956627260702e-01
1.822476568333037950e-01
2.138990658934372124e-01
1.565981862684975301e-01
1.253603289771546558e-01
1.652391635833835581e-01
6.695434823544335612e-02
1.907719026979597943e-01
1.190196505958733136e-01
1.201632473879862134e-01
6.054096538820769036e-02
1.306607525321381302e-01
1.028621423422691888e-01
9.123946163575705204e-02
7.277460137709559906e-02
6.120950293285727650e-02
6.210678817861897683e-02
3.209071544573419144e-02
8.355706531073908705e-02
1.218929048772463553e-01
8.309718288085411741e-02
4.368868955293945394e-02
7.530223069702540739e-02
-1.680648347145720367e-02
1.113348448740176522e-01
4.092985857152664497e-02
7.075606072450477124e-02
5.141902209619292341e-02
6.839477780962702202e-02
1.188378353666140336e-01
-1.721000186177563257e-02
5.287404903250284699e-02
5.193044709344163401e-02
3.035972479769066812e-02
1.789196325828473766e-02
6.730163977511985363e-02
3.617429095777277559e-02
3.588018506491975207e-02
2.559902784153409577e-02
2.868161181690877595e-02
5.064958057842124106e-02
4.833237244960510159e-02
6.985754044680351701e-03
2.027716951433014558e-02
5.905809520718917349e-02
7.816435218268522056e-02
7.744584545405845677e-02
7.442146068425831151e-02
3.157397806934299223e-02
5.607747846885125648e-02
3.549039420038163639e-02
1.848014257696751345e-03
1.990145215813123036e-02
1.703253976799659966e-02
5.063842706978378266e-02
4.649282248980689258e-02
1.931563214347411378e-02
1.545772122380384590e-02
1.741571145111489582e-03
1.232417583939901182e-02
1.904307595812583173e-02
3.220604248818660642e-02
2.594866830099241961e-02
-1.276734416022440310e-03
8.621261332183410842e-03
2.041332181176407079e-02
3.945753444017202627e-02
1.000800078574300145e-02
-1.822529251983227849e-02
-6.791138037658338636e-03
3.723029752032520207e-02
4.274301130448540653e-02
1.249595724850769904e-02
1.836995696451061005e-03
-9.003598333722028987e-03
-5.818873915634830557e-03
2.516815067932133901e-02
-8.365782890152127782e-03
4.588478768556635695e-02
5.878504446696996427e-02
5.058892778431975726e-03
1.768283463258657484e-02
4.883114545970750758e-02
3.035862119871536591e-02
6.364579595303700155e-02
9.080963341253828203e-02
5.866968536684006447e-02
1.741532525079501903e-02
7.733786472547946045e-02
6.606154648351558745e-02
9.623480348531315842e-02
1.541569034399357108e-01
5.983531108119968106e-02
7.088735297668634361e-02
1.057739006403155130e-01
1.274132304336242083e-01
1.669715080701244247e-01
9.739228385794361509e-02
8.812911197931849738e-02
9.460152208911058735e-02
1.092636899457563732e-01
1.188924545599872595e-01
1.351412636842560522e-01
1.345484621963574934e-01
9.859628848888968289e-02
9.413057989305415041e-02
1.397090382520647933e-01
1.226881731517080604e-01
1.300163178552901089e-01
1.763392984635420158e-01
1.713178466896879137e-01
1.420795685056038260e-01
1.846410562558819801e-01
1.874514895794940628e-01
1.964661843932404284e-01
2.024494164461271284e-01
1.496234688971205262e-01
1.889588204429156759e-01
1.463523092890917365e-01
1.917953825638590293e-01
1.482899405858893738e-01
1.562980486514584932e-01
1.264676780830290836e-01
1.277397630154600283e-01
1.729408309288484324e-01
1.937030786388521109e-01
1.391492802701532194e-01
2.175910699312846308e-01
2.243485069849103231e-01
2.129387105173116135e-01
2.459721581118556599e-01
2.220400355662711933e-01
2.198452868577207286e-01
2.760357231578947634e-01
3.616730142621163435e-01
4.033478398413689048e-01
3.746487837966815948e-01
4.240347800884047280e-01
4.879374510280586330e-01
5.155789044422147693e-01
6.181297881921989923e-01
7.163626122155385412e-01
6.788342252029717638e-01
8.341297003271579413e-01
9.451820440329565809e-01
9.936157116665668143e-01
1.037549686199547905e+00
1.082362522074182154e+00
1.159314415766731221e+00
1.177986195954250581e+00
1.182421023024343265e+00
1.235890968855815508e+00
1.172918029214328639e+00
1.232326385425927873e+00
1.208430585820740255e+00
1.170736732485383680e+00
1.130336490408291317e+00
1.131916838540781844e+00
1.060294181766922694e+00
1.009228812537168896e+00
9.183787900355010470e-01
8.709444034305547921e-01
7.813281408505080572e-01
6.949943902685044028e-01
6.558248181665042864e-01
5.596558439753113179e-01
5.420157578794936315e-01
4.136882951545531872e-01
3.907865007046418815e-01
3.312661005858260066e-01
3.805066024639551792e-01
2.549417196934380403e-01
2.421014396994664863e-01
1.560330984905228813e-01
2.480135341315015118e-01
1.551315696455500270e-01
2.110741793120290144e-01
1.245029863287853422e-01
1.192291317963905251e-01
1.684116013195989248e-01
9.415075925630010667e-02
1.521873006900067160e-01
1.165535881903305843e-01
2.053761572793558199e-01
1.968772679368129830e-01
1.835401423162911216e-01
2.187393080551701674e-01
1.338894913069511305e-01
1.798722724450174115e-01
1.322408500031515832e-01
1.910860333041535519e-01
1.793814705234196283e-01
1.364548302034622740e-01
1.760114539756810204e-01
1.848808444971382081e-01
1.880896841493516769e-01
2.439176783986552188e-01
1.620148673951770091e-01
1.774669724790607916e-01
1.123115838306505132e-01
2.249851190732351514e-01
2.325740136342996089e-01
2.374995274505997955e-01
2.127728162791656108e-01
1.943979707312161742e-01
1.831175477421710385e-01
2.380505712404359098e-01
1.983198611493128261e-01
1.745256713334220888e-01
2.572913593886735906e-01
2.163563579693359162e-01
2.333035814718510681e-01
1.271274226491026782e-01
2.279134874806005295e-01
2.221891082509214466e-01
2.848418341231912509e-01
2.211535906482011704e-01
1.369109368359538725e-01
2.195825177739603729e-01
2.257042717276425414e-01
2.633763312853995009e-01
2.206188969565216484e-01
2.066768967256456258e-01
2.131049900970610478e-01
3.034526061607688563e-01
2.279492059878983901e-01
2.000937300635188820e-01
2.374863250516383584e-01
1.665751023454113966e-01
1.750039429246925404e-01
1.775388628442627903e-01
1.348318736436540655e-01
2.176671880194459008e-01
1.570829251400339133e-01
1.815700501667543432e-01
1.548332971946007608e-01
1.785529452463259226e-01
2.239796017885810064e-01
1.469612804734060085e-01
1.379099728973055272e-01
1.078646463191698102e-01
1.337230457101595271e-01
7.690095651071790495e-02
1.789994566347445082e-01
1.062654390523445069e-01
9.156299548477056516e-02
1.107266402350968598e-01
1.321008545745816498e-01
9.809057529120915331e-02
1.367521683490179607e-01
8.128267566229180341e-02
6.545531661726829153e-02
8.382323892013501809e-02
7.562465808311168158e-02
1.056106722307730145e-01
9.738176217463884177e-02
5.129419587686547682e-02
1.137874915305130130e-02
7.642223834139555416e-02
1.361840449478480403e-02
4.541470592407589879e-02
6.075291361695206449e-02
9.939589955600354465e-02
1.072735441811432794e-01
4.630306326044544840e-02
-3.465924963329582859e-02
-1.037945443048206295e-02
1.709726709282315821e-02
7.580059879665625167e-03
1.953944537239931528e-02
1.703490645197149739e-02
-2.845405198799507568e-02
2.643017896306321807e-02
-2.505575695040006615e-02
7.009374098220097493e-03
5.773438694075103128e-02
-3.484587241705897065e-02
-3.503506111407830859e-04
-2.007001289008486858e-02
-4.157892172275898940e-02
-7.306347146077224464e-03
-3.766103660626718419e-02
1.049993630732195399e-02
4.089317581229420795e-03
3.587152927280806702e-02
5.411000235925382540e-03
2.010699970983811924e-04
-8.486340453361024272e-02
5.583423214190565143e-03
1.029425703594280539e-04
-4.862198339504749528e-02
2.987082859973163446e-02
1.937433411357658564e-03
-2.132854783221935224e-02
-5.397307920079585930e-03
-1.494250570985768134e-02
-2.434812056612802034e-02
-3.704040946882496133e-02
6.938169535692831347e-03
-7.651298800709407932e-02
-2.634030959275688796e-02
1.289292107262878656e-02
-2.967121480802505790e-02
-9.227522251819709337e-03
-3.389884151578733545e-02
-6.519787451988522109e-02
-6.131411871037772965e-03
1.100325761958579479e-02
-5.158541989654392979e-02
-1.731974808202960125e-02
-2.528714592313926687e-02
-4.547999364973977221e-02
1.819058444183105361e-03
-4.083848386998670948e-02
-6.472045356879266298e-02
-4.371753912733715441e-02
-3.676933798339424020e-02
-5.168976161315812223e-02
-4.707222245669070992e-02
-6.471608449327820312e-02
-3.768494100681563097e-02
-2.165254183731111018e-02
-5.338828990159875248e-02
-5.733075950091329892e-02
-5.354441970054386879e-02
-2.524370109200875165e-02
-3.460118671570806825e-02
-6.679646498823187117e-02
-5.304032705007041132e-02
-1.508487188509824786e-02
-2.124578367148672806e-02
-9.658086388845341097e-03
4.332484463175122202e-02
7.036608781165784587e-03
-5.345417122917706793e-02
-1.309254772895073957e-02
2.008148726360883818e-02
-6.903634694550388196e-03
-1.250256442055921666e-02
4.856161291589244922e-02
1.291575551802110616e-02
3.579900593675605647e-03
8.254374288775200019e-03
8.890951893872681144e-02
8.569575820692877655e-03
4.117768942840945023e-02
4.739855130351967871e-02
7.674877059772317045e-02
3.611225233451009070e-02
3.947920558168848543e-02
9.315404119206893707e-02
1.473728099692068749e-01
5.985881114402896025e-02
6.156103760015025489e-02
1.586678142061498931e-01
7.661277197990033760e-02
8.083597277690647565e-02
9.962815184194306894e-02
1.089258206087172220e-01
1.063245867517041421e-01
1.296755724947274979e-01
6.051825511686577397e-02
9.683791109842071476e-02
1.372739102972073688e-01
3.643786624183155409e-02
6.630703748076308135e-02
1.272548714319989283e-01
1.085926359832032340e-01
8.669732449662838347e-02
1.155496276972286240e-01
1.194551095748442593e-01
8.006779503490824013e-02
1.053848618959427608e-01
7.406633650936761404e-02
1.465800126577968543e-01
6.909684089412160279e-02
1.176038450001777869e-01
1.528662925514302218e-01
1.991633744757173030e-01
1.462980680219606866e-01
2.508921214904438757e-01
1.544172297383387127e-01
2.305365397730792520e-01
2.209598674186906697e-01
3.250876361514574153e-01
3.123940625213698086e-01
3.285083094458807196e-01
4.461902109428474983e-01
4.502866757477270165e-01
4.833298115753509316e-01
5.752718881565168640e-01
6.806247450276562416e-01
7.130532180252925345e-01
7.733701810766366869e-01
8.516911802114586205e-01
8.437236506318623874e-01
1.061677019105502495e+00
1.028497398462737467e+00
1.106207224178445303e+00
1.160730229274085534e+00
1.112489619220828674e+00
1.124715595448359640e+00
1.218199078595265439e+00
1.141735013309914004e+00
1.139230373950375075e+00
1.102028108369201842e+00
9.987367389937938933e-01
1.036790391627274710e+00
9.885615650837196178e-01
9.638444271038579814e-01
8.543757366873876435e-01
7.826954237622197885e-01
7.488701958759160782e-01
6.911708544073145166e-01
5.621132396986532331e-01
4.729503280675405597e-01
5.383230151674941455e-01
4.613851264895075799e-01
3.422510095046831236e-01
3.055545643045610160e-01
2.726451413737045470e-01
2.118050757870946765e-01
1.889058965324938999e-01
1.768232121143553104e-01
1.163060517935247951e-01
2.118876364646422039e-01
7.741617221390204029e-02
5.473424511235136514e-02
1.376042077389654783e-01
9.358386335194207595e-02
1.153939108984917139e-01
1.014746190253827396e-01
9.026685933661816874e-02
1.001475547038804120e-01
1.174630451123174352e-01
1.424293415043905719e-01
8.908336579830244961e-02
1.297674687252970693e-01
1.058612243699535715e-01
1.131757689101678260e-01
1.022727382957747122e-01
1.244018104387142609e-01
1.008954851741329928e-01
1.081166450143223740e-01
1.193881220696982326e-01
8.330495047587335722e-02
1.269479183731812011e-01
1.445061294525366580e-01
1.743363637546476164e-01
1.256026067744241137e-01
1.698985246524182813e-01
1.857706234118833288e-01
1.696859702311640794e-01
1.864788871856084274e-01
1.901161662653120255e-01
1.753997144124670726e-01
1.686995693893635906e-01
1.959438779916606865e-01
1.602222668718176479e-01
1.269803455925525293e-01
1.739959702183165313e-01
1.799116744220115860e-01
2.022789846870780284e-01
2.015611663963710609e-01
1.794119952137771534e-01
2.013522868921099884e-01
2.256824543310769204e-01
1.926265628492964399e-01
1.694940511778256775e-01
1.841814780120205886e-01
2.164481300539844166e-01
1.502511924214101346e-01
2.114472623772332138e-01
1.729348549732074580e-01
2.198210232937712616e-01
1.927571568372861976e-01
1.997150343519820681e-01
2.060265387052133967e-01
2.081142410213226435e-01
1.973252757930360757e-01
1.402260932131669247e-01
1.870124225942718099e-01
1.202966957718188956e-01
1.210157265025737783e-01
1.497618700118003576e-01
1.853687002749559998e-01
1.402229841792282938e-01
1.150259807323443795e-01
1.528491618235202076e-01
1.155645138065649058e-01
1.384099499197756766e-01
1.237791983804111401e-01
8.617000856920226104e-02
1.440981598481862469e-01
5.563949773331614002e-02
7.319344018685999820e-02
1.143749693325134820e-01
1.762706187153885440e-01
3.223446168711670279e-02
7.659250754881892498e-02
4.828676098392978289e-03
6.632673653675927317e-02
4.639947636368568079e-02
6.246512474575689061e-02
9.913353537728163134e-02
7.819459849597182322e-02
3.729688247201603385e-02
6.480952074611755209e-02
4.176818719416193482e-02
4.305929221709615951e-03
2.985076087384729016e-02
4.186378764680846049e-02
1.353948213011080814e-01
5.996577273443351452e-02
3.857104452856780635e-02
-3.993096464612817809e-02
1.623865280892367036e-02
5.039609868470290577e-02
2.101604983652738401e-02
3.628097196509026678e-02
1.438654490666445990e-02
2.730925685003704473e-02
-5.751930086295089367e-02
4.105790727685924152e-02
1.374351202289875867e-02
2.267558205219384615e-02
-1.070380422739079795e-02
-5.593266066928823110e-04
3.523601674275872453e-03
-2.542239278483006751e-02
-4.567073467329836600e-02
-5.672098667298392655e-02
-2.865391374430246302e-02
-5.214672829004493582e-02
-4.911637881224921454e-02
1.557650056582374903e-02
1.905794974714546119e-02
-4.122537889354306595e-02
7.493084333124844232e-03
-3.805616723137977137e-02
-4.449266138912459645e-02
-2.283036689889987592e-02
-5.694098762237322781e-02
-4.523490226075309317e-02
4.584565174898101725e-03
-2.617302385340888188e-02
-2.513201565806474913e-02
-4.370970654894223983e-02
-4.671916180065793789e-02
-3.398363494472423502e-02
-1.431758170093277299e-02
-2.744664446627056997e-02
-1.956306395020522906e-02
-9.189938732183468295e-02
-6.791801794208371379e-02
-5.609975659314408308e-02
-2.449419456720786439e-02
-2.638670914633459846e-02
-1.756276084780713370e-02
-4.704955809811953160e-02
-3.306198776558170321e-02
1.736338584895281284e-02
-3.422086402398793331e-02
-9.034651772211593768e-02
-1.927298459560879140e-02
2.519284306516052230e-03
2.208182920474928423e-03
-4.082808102075664858e-02
-3.764247895414590817e-02
-5.879241233318517612e-03
-2.292741792470905093e-02
-9.233989113178076025e-03
-4.120528888359042963e-02
-1.124314076597324880e-02
-3.637431981996146202e-02
-2.454239916876951172e-02
-4.832829064275420694e-02
-3.781710442893031904e-02
-5.387304109262203849e-02
-5.517286840509776774e-02
-3.335567862978016523e-02
1.063990724742149008e-02
8.330612354979304024e-03
2.968147875764487464e-02
-5.511773716321506644e-03
-3.333940561653477713e-02
2.648386616959391704e-02
1.940166543336522414e-02
2.005016709842565026e-02
-4.177282658777620172e-03
2.187232785603879237e-02
5.772684153186229822e-02
5.920472286391205430e-03
-8.350521063040891590e-03
5.577835243740183330e-02
3.188181716354800826e-02
8.311033059935084288e-02
5.550482635580097218e-02
3.882720030921910787e-02
7.910510348278265713e-02
7.817562806282113419e-02
8.256944963764469014e-02
5.538607828063125266e-02
1.280425965516744924e-01
7.776799448474439047e-02
1.423390056240342316e-01
5.112231001174862011e-02
1.316803844151613057e-01
1.235530995016664579e-01
1.020604889489381550e-01
6.335667273288826673e-02
1.168548790066534226e-01
6.118061330912106383e-02
1.042816644809523297e-01
1.426035962516626343e-01
1.137738894517597438e-01
1.142479600976904902e-01
1.619650954602838699e-01
1.248596070887404708e-01
1.726054364611194769e-01
1.116857074823985468e-01
1.528565931286505197e-01
1.189494728477855090e-01
1.357060887295086227e-01
1.033878594802354750e-01
1.397388687745933777e-01
1.473893732772107446e-01
1.493526897556728128e-01
1.036548224971420851e-01
1.994571063517331655e-01
1.941461497775074374e-01
2.181730231540899845e-01
2.745766246504925956e-01
2.558327218777640688e-01
3.122642641299963606e-01
3.539552985747152491e-01
3.667486346725220558e-01
4.245808891249908124e-01
4.549989485451237936e-01
4.639773614060068163e-01
5.775110525554977281e-01
6.241442762733786509e-01
6.878477984025223035e-01
7.795987527560501729e-01
9.388033190887714596e-01
8.975979369975257693e-01
1.008585323536132838e+00
9.920150811429362392e-01
1.105382090720316901e+00
1.156478525062629270e+00
1.132897423971248596e+00
1.166476456584094823e+00
1.166558290264284592e+00
1.206740841455981705e+00
1.186399677944312225e+00
1.176843010586433813e+00
1.113198338028684509e+00
1.027857401176181851e+00
9.886180464456773009e-01
9.228866636832709913e-01
8.747184041694194834e-01
8.166003047288865613e-01
7.520549034145448397e-01
6.934026197739273645e-01
5.747215691734567367e-01
5.906343126292210588e-01
5.134105231960550686e-01
4.365427793356346231e-01
3.791605325421502637e-01
3.329050596498712711e-01
2.957647636053832851e-01
2.837149924770030474e-01
2.344099232790612664e-01
2.213407948034918638e-01
1.936785143663370956e-01
1.558314895907372821e-01
1.119122430201367202e-01
1.911691697934819190e-01
1.610840736145806029e-01
1.762509117489699795e-01
1.199311152519050988e-01
1.440081442881638307e-01
1.159269678448641844e-01
1.555734891325213920e-01
1.854066996541634538e-01
1.869897467207719544e-01
1.462561776625996013e-01
1.713630288671601498e-01
1.691640521476161230e-01
1.623976145286774586e-01
1.758505268877860184e-01
1.445767030960573851e-01
1.264159907477638567e-01
1.902747247594298863e-01
1.491517106335319975e-01
1.612622957712952221e-01
1.780079007671952207e-01
2.407782716007452195e-01
1.979131566482581206e-01
1.776023757203544773e-01
1.710298153121234677e-01
2.064677472457928931e-01
2.089076261571977122e-01
1.837088742325844182e-01
2.259220437385947577e-01
1.755283132325880235e-01
1.952181468996890545e-01
2.708703590276352879e-01
1.971097030049155374e-01
2.300845588877582226e-01
2.473258938633552950e-01
2.917923141436978840e-01
2.840370118801786581e-01
2.587461806915172802e-01
2.075209079825348357e-01
2.114216193273504019e-01
2.258316992291588277e-01
3.130441941984926646e-01
2.543371246419446341e-01
2.369702838828212643e-01
2.432292526145269085e-01
2.771528570868370678e-01
2.164419780163806817e-01
2.350800742060614179e-01
2.239182586593747581e-01
2.067439180871974147e-01
2.184065912299209822e-01
2.336593686575881845e-01
2.289386743426666815e-01
2.588446969975048972e-01
1.948670073394894176e-01
2.170795788872529608e-01
1.704673229628820008e-01
2.001470313961352110e-01
1.521976901772915114e-01
2.084654249173207574e-01
2.443519003797021971e-01
2.164965607875332099e-01
1.693619950943631158e-01
2.057174455453292805e-01
1.272947510739743104e-01
1.802940225380293970e-01
2.386522650160939341e-01
1.705033099623883275e-01
1.448196882577994504e-01
1.379633785477551444e-01
1.514694302819996063e-01
1.369753501988007494e-01
1.192034249130576734e-01
1.241394425956397207e-01
7.407967588454097974e-02
1.414163413709740302e-01
1.470585037276731510e-01
1.311000114100208946e-01
9.530944551793653352e-02
1.123010258327479666e-01
1.095262920677534113e-01
8.408489728634703508e-02
1.235553141807220479e-01
1.102387525167744936e-01
1.113219817128603961e-01
8.737839637745409282e-02
2.880178682310235647e-02
3.701622989237117467e-03
5.234322767166739443e-02
3.845961862452226820e-02
5.871353058507332301e-02
2.302298130629432810e-02
2.036562588311879168e-02
-9.165141850171018567e-03
7.861648254710600428e-03
3.343027670202748658e-02
2.666744056623393880e-02
7.335515118890660602e-02
3.029257780558920754e-02
-1.014246295562798439e-02
2.749679481349709409e-02
4.849015720253416206e-02
-3.842625191111438687e-02
6.742247182148521090e-02
4.214946481425225350e-02
7.004443564967463565e-02
4.103516476946829361e-02
1.268149416401525252e-02
2.256348493702762387e-02
8.883968394206097352e-03
4.729921584131234480e-02
-1.852658124461198375e-03
3.091190332175465169e-02
5.446058339081375627e-02
2.623487865222142237e-02
2.116792737360548293e-02
3.091038591355967091e-02
-2.671410982248646065e-03
-4.765161635087091646e-02
-1.254416032605132347e-02
-6.557858247856413955e-03
2.681920145099046804e-02
-1.055056797045849162e-02
-6.784309956615965781e-03
3.900268803207133234e-02
2.813841714042826514e-02
5.252714137066308298e-02
1.340353760586543257e-02
-2.921553199145596191e-02
8.092381020808772640e-02
3.542522911557490634e-02
-1.798702460583077867e-04
4.382839824048741922e-02
2.423385354724829494e-02
5.546576973205939037e-02
2.642480883074754816e-02
7.509446165516800269e-03
2.913116536702822085e-02
5.082340478476286144e-02
-1.096262308325790871e-03
2.524994585329496527e-02
-1.133195042613834719e-02
4.048711223187415054e-02
2.897567002782249976e-02
4.785221736983605312e-02
6.064974701121748218e-02
1.225487344679658877e-02
3.968974621976563422e-02
4.297502352817066107e-02
1.889365157504501250e-02
1.071032051445531402e-02
8.895303954475577979e-02
3.318585706618203124e-02
3.587557052114580258e-02
4.395344359204385321e-02
6.991765846448363964e-02
4.379612152390142260e-02
3.809685964493657317e-02
6.981409527062590326e-02
9.020600855151948705e-02
8.672733980016887612e-02
5.844539696659258043e-02
4.861985854365068194e-02
5.673826693283116895e-02
1.001225504059286842e-01
1.107001153020702039e-01
8.495623981700516081e-02
8.779610747636654167e-02
7.271752648268973995e-02
1.116752000370037079e-01
1.390752489075182119e-01
1.029846773135210669e-01
1.594115383886609283e-01
1.011139302492534697e-01
1.133093853546735946e-01
1.368095404256499947e-01
1.504386891255065084e-01
1.423760876866172476e-01
1.616463334378419048e-01
1.641022123169148528e-01
1.963993591179920284e-01
1.660989371783729573e-01
1.568643466398060848e-01
1.814435700825749453e-01
1.183164368714300502e-01
1.323786667609829770e-01
2.022072294940590320e-01
1.604494986176632776e-01
1.537104337865785042e-01
1.916258396591841995e-01
1.751519596359708830e-01
2.080506508127079046e-01
1.672481232553098274e-01
2.181987005205223984e-01
1.699936127300203381e-01
2.090231347540073004e-01
1.849221266140654851e-01
1.595717348243739786e-01
1.846444891984485026e-01
1.940564307246488152e-01
1.934482138272816398e-01
1.803445545920085435e-01
2.566547957466284169e-01
2.336371910387047002e-01
1.761709090261561750e-01
2.680611702276823882e-01
3.009919586338033470e-01
2.541202724721018935e-01
3.261746285035529991e-01
4.137150035998939934e-01
4.344873680544212302e-01
4.834146080740187035e-01
4.964239715302178335e-01
5.650833974339863897e-01
6.122069762072148702e-01
6.615868539139816429e-01
7.086799134106077647e-01
9.158332553769761297e-01
8.986553744705825242e-01
9.939534330265679118e-01
1.080359472018871392e+00
1.106780445785290778e+00
1.148183985493352655e+00
1.202338633448881033e+00
1.284035201286236605e+00
1.244898002608803012e+00
1.209053932706185552e+00
1.218103165668711796e+00
1.209579184442174604e+00
1.208089146326456476e+00
1.143759609397125176e+00
1.118717149420753287e+00
1.080315657512762817e+00
1.057066880519847096e+00
9.377658493129719108e-01
9.162075175061205057e-01
8.376858421704220792e-01
7.828564201928539523e-01
6.233177272280848724e-01
5.762004630435878516e-01
5.224056562416476979e-01
5.512648081682629542e-01
4.346331461991941314e-01
3.751790207913290875e-01
3.644724596648123427e-01
3.929265605698651909e-01
2.788740162714245518e-01
2.526005326267378726e-01
2.791913317335876221e-01
2.398196988208096680e-01
2.184215944139636656e-01
1.937571661060863426e-01
2.088833934523717240e-01
1.140697020389696420e-01
2.000510697611116717e-01
1.529240727923598109e-01
2.345030525329742654e-01
2.234274343188132894e-01
2.172450289007673563e-01
2.568026056242824207e-01
2.805966798901995407e-01
2.046623462911520419e-01
2.102786100374083311e-01
2.351646678391690337e-01
2.367057559196959482e-01
1.513362404479370871e-01
2.191330988303880900e-01
2.050149983808176313e-01
2.490104355267545588e-01
2.547081047125457909e-01
2.461019068318756609e-01
2.289736700756657972e-01
2.378560709869383394e-01
3.134482213955277485e-01
1.896640819675839140e-01
3.570917358202566616e-01
3.254758578191750962e-01
2.677521670932517805e-01
2.951539604677876905e-01
2.752627309978303294e-01
2.762100462327947703e-01
2.699950399949663793e-01
2.656374071195261033e-01
3.089112792446668809e-01
2.632125955351007351e-01
2.923914294223611821e-01
2.794990313279946403e-01
3.510953794809723583e-01
3.255092579876641135e-01
2.709395370216501897e-01
3.321920569941579915e-01
3.046068547303418805e-01
3.256232880792685469e-01
3.198691725833061605e-01
2.470712714457182213e-01
3.059038326757963500e-01
2.853485901086543208e-01
3.435204702658453124e-01
2.551219510558215275e-01
3.021591673810574141e-01
2.415103538034728548e-01
3.402601442181372171e-01
2.893561589611789997e-01
2.530277227619679437e-01
3.086509968773647472e-01
3.146819720510999341e-01
2.700026009780378544e-01
2.477823955789046906e-01
2.146085278278490605e-01
2.149405887626468781e-01
2.021092324701179721e-01
2.703404382277905249e-01
2.671966414354139951e-01
1.936900824356771467e-01
2.588700556856061707e-01
2.076948876199698202e-01
1.943600930428353579e-01
2.210949819302474584e-01
1.997027913467392390e-01
1.425381605638555427e-01
1.811700206182007278e-01
1.453984738227214191e-01
1.295345216204123462e-01
1.580706080255298573e-01
1.695074378785750013e-01
1.266336703860309609e-01
1.647505004723228417e-01
1.607463170200338354e-01
1.747292740325217530e-01
1.431643017333655010e-01
1.663963715062745652e-01
1.646725033479382594e-01
8.948422054571546214e-02
1.848346246323710473e-01
1.652121952063154431e-01
1.153523570099372342e-01
9.137515272232864250e-02
1.424732840020617453e-01
9.241300599358413803e-02
7.771414032784192127e-02
9.605174394024365569e-02
1.395668753030667453e-01
1.444591302477930550e-01
1.534769683248245475e-01
8.728627043625751536e-02
8.712515050597514910e-02
8.471632983187440957e-02
6.765110597692422512e-02
6.432792972652863484e-02
6.931966705725409184e-02
1.365858102183963030e-01
5.250486028345370537e-02
8.293150009724936655e-02
9.266688328718677981e-02
1.364161040248038081e-01
8.022702650900179200e-02
6.135800072207003852e-02
3.881029093295393362e-02
4.012946820336898979e-02
6.534298573806512911e-02
5.528460356428389899e-02
6.164667880530182165e-02
7.980242572874360341e-02
4.181848974917554140e-02
7.181888611747257178e-02
9.092172382287286303e-02
4.195947814942077581e-03
6.358584136052351787e-02
1.007510208819814013e-01
6.973908312587052960e-02
3.780548291664777988e-02
7.458135454951445031e-02
3.999929814208395829e-02
8.188539190141423674e-02
6.919287141054081269e-02
1.120607839001748485e-01
5.151337584535342629e-02
6.782230472464208237e-02
4.419842439298948128e-02
5.758341105149265143e-02
2.882566330159039986e-02
9.416155912045932885e-02
6.170970724374437444e-02
5.579843215593345562e-02
8.237494535244664629e-02
1.013989391760114489e-01
1.240149640730647262e-01
3.100394635899513321e-02
7.786115696464361580e-02
8.630484270577942763e-02
5.577954022595373040e-02
4.009243535478426018e-02
9.548321025853931387e-02
3.399283252878300410e-02
7.490025865989632936e-02
4.302811859292575425e-02
6.683528262492210992e-02
2.055933530085173391e-02
3.774297360405987067e-02
1.637809362838854588e-02
1.527942375358860572e-01
3.182818474507465023e-02
1.038317410776187361e-01
5.718143720745946790e-02
1.126749019898829612e-02
9.342832292840363984e-02
1.659653762418373812e-01
6.839820260230591864e-02
1.505052318331411565e-01
1.578170744664812997e-01
7.019126938743515398e-02
5.446051906958655070e-02
8.672612918391171821e-02
1.470623068869422734e-01
5.807164950270135573e-02
1.377325704429531728e-01
1.301964896363384250e-01
1.119988967562834392e-01
1.214309215042882195e-01
1.352961774883903734e-01
1.479448015647600867e-01
1.990057431011079125e-01
1.417471555176038345e-01
1.556949814564644319e-01
1.814295081061944870e-01
1.373072854083536853e-01
2.192012229879152230e-01
1.498460222454670587e-01
1.926143835081360611e-01
1.739518378133122767e-01
1.852033621161927879e-01
2.479600054583760982e-01
1.984472957488390421e-01
1.719260643037541780e-01
1.670699881488995342e-01
2.345826589257156425e-01
2.114977515978301303e-01
1.839610414640021896e-01
2.330376497132279345e-01
1.758562221989207475e-01
1.745196783204326918e-01
1.966145443028400885e-01
1.919738358706543357e-01
1.482667367636984479e-01
1.856925926420766038e-01
2.183484440856449660e-01
1.908061566558411637e-01
2.026563500019067932e-01
1.754222154415271406e-01
2.181641053829137533e-01
2.294973126149294218e-01
2.639255941461997601e-01
2.214357462314498204e-01
2.354223103530906913e-01
2.775775595022211828e-01
2.729690340668287640e-01
3.196424187440018994e-01
3.503654014822693008e-01
3.289358415072941022e-01
3.652038965405460247e-01
4.242101569863553912e-01
4.380803250737098642e-01
5.985610759418398263e-01
5.623069384699712625e-01
6.968028037103114469e-01
6.959996069763609849e-01
8.260297866908359321e-01
8.968255574761497817e-01
8.762971951412439342e-01
9.899206078397660979e-01
1.105794824387221764e+00
1.113563013782147726e+00
1.186802697021811515e+00
1.208572703071959298e+00
1.259069864581352949e+00
1.291689133330689909e+00
1.258529434439120687e+00
1.263210654785826614e+00
1.241404484721656099e+00
1.190408848395671182e+00
1.215118901557348252e+00
1.153673947427777069e+00
1.138167159174466203e+00
1.101216142408269150e+00
9.640487345566088884e-01
9.015818192790356900e-01
8.271956685095217532e-01
8.206430107008214625e-01
6.682376768687745550e-01
6.542670062980923129e-01
5.371367798933882609e-01
5.676622779898444771e-01
4.918314719555128001e-01
4.025995047501093049e-01
4.324604323365647263e-01
3.167235165861527202e-01
3.118156161761913014e-01
2.145483449592396064e-01
2.766177757200257159e-01
2.286296746003379232e-01
2.179048422003632968e-01
1.844556729112783455e-01
1.720604412274333583e-01
1.830293245309704830e-01
2.345658348939034243e-01
2.064517719494031456e-01
1.678684137621071770e-01
1.281550982757704293e-01
2.556104192019948984e-01
1.252120933002721370e-01
2.365670504299077770e-01
2.210946058716330986e-01
2.042552371577364689e-01
1.971526118445522113e-01
2.416551555030406750e-01
2.558853932968184752e-01
2.605630903341639160e-01
2.653111207112260339e-01
1.909091210464606558e-01
2.200624529328647216e-01
2.256695459264023429e-01
2.504562277524611802e-01
2.611636561140860957e-01
2.885287308415709351e-01
2.591703643740764229e-01
2.868745144254922774e-01
2.560188991653076229e-01
3.313845761084204811e-01
2.533628339150778563e-01
2.554228093007541167e-01
2.853760846961345132e-01
3.142269909808484418e-01
2.581256351952454509e-01
2.741052086391696507e-01
2.734046646427777394e-01
2.544493436747686799e-01
2.696023152978125892e-01
2.661116515548122008e-01
3.267907922434122314e-01
2.917873108625918532e-01
2.714306655252644584e-01
3.420284997139556027e-01
3.395134328210357433e-01
3.355989948495082809e-01
2.690657867268796410e-01
3.118135087003635619e-01
3.431767710339203581e-01
2.648518260979448868e-01
2.677126592625426738e-01
2.583999262134797359e-01
2.750967405839670477e-01
3.201102437891030217e-01
2.639777045274057099e-01
2.415546595384291950e-01
2.516942573867317345e-01
2.861517018545562951e-01
1.616173265396771697e-01
2.538314397181405946e-01
2.309862580701120827e-01
2.136887461888972439e-01
1.757510733477709863e-01
2.421635844242365776e-01
2.099250326185976012e-01
2.274463055860017069e-01
1.748068171744035504e-01
1.465192515213149804e-01
1.616784523402319818e-01
1.864103374288307857e-01
1.334157436760610993e-01
1.869814265404590448e-01
2.274071697267781023e-01
9.736240235192746006e-02
1.456234231292421466e-01
1.565434776460910282e-01
1.507972799000885655e-01
1.908334756496657958e-01
1.336669470627060707e-01
1.327141840638795256e-01
1.256087070271558748e-01
1.462445705616145231e-01
1.764460306989586447e-01
1.225284103066336949e-01
1.638763024918848399e-01
1.163437132507103844e-01
7.127587962204648409e-02
1.383863748780844172e-01
1.002238456951839163e-01
1.398285915811864899e-01
1.178114991036181142e-01
1.173084324323940830e-01
6.284959053684148478e-02
5.339815167641435295e-02
7.769196048682119882e-02
3.493649679494889582e-02
4.008604958450741329e-02
4.700264775393744876e-02
2.987025891356842253e-02
6.065414678468565579e-02
6.190912600207418987e-02
4.294065007919461302e-02
1.887670216252210556e-02
2.908046823092208175e-02
5.865726004371090568e-02
4.229194071463127091e-02
5.076451962087527581e-02
1.898871725940427801e-02
5.654346918515056053e-02
6.572800794519514933e-02
1.469611636528762866e-03
2.544046643481664288e-02
-1.198354709103794866e-02
6.101459779348518409e-02
1.017928749305813951e-01
6.093955744166092148e-02
2.827861636397498504e-02
3.634954195589015086e-02
4.772303774804111109e-02
-8.266880044502555175e-03
3.038912501366261565e-02
2.719307930355354189e-02
2.039014909926114769e-02
1.364758157091701916e-02
2.838104843791493248e-02
-5.097989008726381416e-03
1.943948523209514806e-03
3.231835811600829167e-02
2.226657746197635915e-02
2.362281949972642320e-02
5.193523572782915432e-02
1.944347065803618893e-02
1.596077127230296003e-02
4.170582664341915269e-02
7.503491557538782830e-02
7.896690062220570322e-03
3.564001969793277602e-02
1.434667094343016619e-02
-6.154330025248129499e-03
2.180493957619877854e-02
4.113375827960863429e-02
-1.737328600437782616e-03
5.733495127638577743e-02
1.270274105625728532e-02
1.186823710614484141e-02
4.852391623768597534e-02
3.507509232341893962e-02
6.137399498338740045e-03
-9.876720449668046145e-03
8.214382458953556343e-02
3.750289401508950793e-02
9.009355831182949692e-02
2.101080185981214071e-02
4.770903609280997132e-02
2.900466271987214850e-03
1.198983070914199159e-02
3.173636613205108731e-02
9.724888043695929796e-02
5.711430895560930254e-02
8.576668540761683834e-02
1.171336548395090077e-01
8.815046981191236586e-02
9.031712178179590600e-02
7.066392832237233801e-02
1.138915539483126432e-01
8.524224629828038025e-02
1.124573922885968164e-01
7.274526292480328060e-02
1.074021768808396532e-01
1.036472542932779517e-01
8.542885544692878363e-02
5.716620700513926068e-02
1.133844461999424652e-01
1.215885608847154797e-01
8.222409579116037037e-02
1.208524486579508617e-01
1.294243573677776593e-01
1.577751525301106239e-01
1.375802278699347903e-01
1.529997083888351150e-01
1.309650276855042761e-01
1.292975126044449141e-01
1.375114227626039742e-01
1.308086137871637689e-01
1.396109645084317452e-01
1.645129004649457660e-01
1.671405339658852407e-01
1.657142400522562398e-01
1.628939301072434565e-01
1.941864306940691842e-01
1.946030386634099441e-01
1.601630775768650428e-01
2.023758542020909490e-01
1.983034512473720035e-01
1.601122167717125289e-01
1.369865582530631620e-01
1.445248754860017359e-01
1.580496616910944396e-01
1.467112939033643482e-01
1.278615180115491579e-01
1.282950740681182977e-01
1.498348762853907723e-01
1.497958518590249977e-01
1.170749225653089087e-01
2.080575271456049091e-01
2.255944398904362047e-01
2.271558982408815597e-01
1.646757423917459273e-01
2.446754605194685628e-01
2.910904201632041888e-01
3.468225569053149382e-01
4.116803003297883068e-01
3.891031072421357040e-01
4.409065842455651696e-01
5.033638172143585221e-01
5.282581496597561488e-01
5.839782792349644813e-01
6.978429927605964700e-01
7.581889818565979988e-01
7.991861083599161031e-01
8.251758763177705625e-01
8.731009464401587872e-01
9.965534445027960375e-01
1.053970035580901854e+00
1.097503138711435566e+00
1.173539880294791837e+00
1.185469555754111948e+00
1.141838499570629661e+00
1.272332307421117026e+00
1.136922482555937863e+00
1.184422760536407271e+00
1.148504294400937376e+00
1.160344530537344321e+00
1.065065143282763582e+00
1.073152181064282118e+00
9.868154124591146381e-01
9.554332712479853829e-01
7.958840023820613618e-01
7.935247522937459719e-01
7.516941425621269657e-01
6.287356331365571149e-01
6.062054720647046535e-01
5.424832314943610623e-01
4.829160814250479383e-01
4.104812479626005484e-01
3.941563211753461027e-01
3.390202338857865039e-01
2.988967501588831177e-01
2.397219424425577339e-01
1.994686196466636252e-01
2.199936057847320381e-01
1.654421334129973498e-01
2.147872569540673626e-01
2.209930361218334083e-01
1.300460400581899267e-01
1.205407802653513660e-01
1.546774635875144688e-01
1.485447877952722207e-01
1.379841502573730672e-01
1.569568537250680684e-01
1.625814440402734151e-01
1.207074012489856435e-01
1.212932625712694612e-01
9.444078972331768074e-02
1.035824057914837698e-01
1.297269025477331972e-01
1.524617630874038898e-01
1.908401733592707816e-01
1.895448874035847997e-01
1.894981463230858421e-01
1.737933774898440809e-01
2.508948819294481991e-01
1.523193299688398450e-01
1.844427128422052031e-01
2.060421329438921478e-01
1.669993220615966500e-01
1.940031605500583956e-01
1.631050834646859682e-01
1.993822782337567601e-01
2.567665372424435266e-01
2.202724744948768576e-01
2.756840413934000811e-01
2.626777099445483099e-01
1.778216855714860045e-01
1.893855789566336600e-01
2.684650590172680817e-01
2.238496874735556585e-01
1.834752767311293720e-01
2.571286918411832545e-01
2.751813739738834808e-01
2.739037336834828640e-01
2.441002389675158146e-01
2.644563800581519741e-01
2.437640837281773165e-01
1.982721672643163180e-01
2.594706506706148108e-01
2.181605810514229415e-01
2.784482382730226746e-01
2.106228286949182738e-01
2.116729082075203272e-01
1.837264207114038261e-01
2.352627398303362150e-01
2.675814048487357710e-01
2.314182529362860674e-01
2.064969643218195483e-01
1.868962352869226184e-01
1.769484017178892254e-01
2.293818989458968616e-01
1.695858437283915832e-01
1.216539908536884429e-01
2.698966450382331295e-01
1.839634934915281572e-01
1.591520911528134241e-01
1.455945397808373065e-01
1.772068834791024616e-01
1.211317888239059476e-01
1.319353688269733205e-01
1.583752368161739366e-01
1.139154478132256149e-01
9.982298452858187621e-02
1.139386408893529878e-01
1.160420248248871244e-01
1.119465748937258504e-01
1.058620223327792487e-01
1.171601996501605708e-01
8.267543098229590548e-02
1.072732206854390552e-01
7.582836964751756004e-02
8.462013410995267160e-02
6.416069237923005542e-02
2.400591636292069564e-02
8.261103662310820273e-02
1.007990739334906349e-01
7.182624551031507876e-02
2.257415940352019978e-02
1.536748490366824857e-02
7.630126029923584019e-02
5.912786694404913168e-02
4.726298125664209898e-02
6.416844006990160554e-02
5.489071311388894064e-02
3.479605027703503578e-02
6.926492827271121810e-02
7.545602539197138192e-02
5.904080182512082275e-02
4.031706955482531468e-02
1.769660669072833231e-02
1.267718772539151023e-02
3.084563449425565401e-02
-1.119042663442688587e-02
1.215796685878657579e-03
-1.753304727315222952e-02
-4.030474073032488946e-03
-2.879384511260018112e-02
-1.281783908070992239e-02
-2.018320403334281088e-02
2.178953354633648282e-02
2.263295951468904249e-02
3.251685963381580058e-03
-5.996448813159583474e-02
7.327415891110189428e-04
7.563786865027476158e-03
-2.993940284006452526e-02
1.553335877290430711e-03
5.410622019510882841e-03
-7.238122144877426334e-02
3.853947642095664761e-03
-3.242518083959653602e-02
-6.809454064755848801e-02
-2.311501690185721256e-02
-4.031483907044519643e-02
-3.937833312557821597e-03
-1.183796103789429635e-02
-1.457037075706001106e-02
-5.491901382986461716e-02
-4.378354796916703734e-02
-4.173739207759158409e-02
-1.354209353055354018e-02
7.891368326128370136e-03
-1.730167873247945298e-02
-5.890766143446773961e-02
-4.704732964229199621e-02
-2.207582015747167059e-02
3.245568493358899631e-04
-3.776041517115795443e-02
-1.425715055828025504e-02
-8.111862385012331977e-02
-5.064414203306712853e-02
-1.225572120487308792e-02
-1.055443183326522510e-01
-5.997264297176174708e-04
-2.119253159485945739e-02
-2.957151691868876303e-02
-9.260568311673439412e-02
-2.249855471671405316e-03
2.912096074664845963e-02
-3.609913479890545368e-02
-4.211614781371297855e-02
-3.489556683736749071e-02
-2.202361635530718231e-03
7.307975508458929015e-03
-4.084468904581597948e-03
-2.721200440956476896e-02
1.552940334703602904e-02
-4.934053462773661802e-02
2.272048519030642200e-02
2.943284837800943382e-02
-1.916910561435272026e-02
4.829097895422537756e-02
2.866095164595187234e-02
1.958489742212424223e-03
-4.946954112649767921e-03
3.229765568267017883e-02
-6.584514315810051366e-03
5.992672488014186977e-02
3.577754501264573950e-03
9.844058994034925181e-02
3.769305473523067163e-02
-6.741953691968283202e-03
7.662704214296719996e-02
3.022643860032279278e-02
-9.760107559686412304e-03
1.074508597271601751e-01
1.372244010926562952e-01
7.533808464433955354e-02
8.323162580278418987e-02
8.200813746067554810e-02
9.080032633586349045e-02
6.698717127204770194e-02
7.979274525247526118e-02
7.780319209143436721e-02
8.708571935040668177e-02
5.399589150871910576e-02
1.220805886988033384e-01
9.884550340764891585e-02
1.194822851640593014e-01
1.150609422992727171e-01
3.376954030390084266e-02
1.168580045548444357e-01
1.291757668811969739e-01
7.965558691432358951e-02
1.058208310815613451e-01
9.587819329906230315e-02
1.181530036035972620e-01
1.018298534407254818e-01
5.413489521291587475e-02
7.692441579345131453e-02
1.252288904972318484e-01
1.206188726353795981e-01
1.802655350285477798e-01
1.115458913968430388e-01
6.271718690446145827e-02
1.624460672480431689e-01
1.567437663373223156e-01
1.113171442975454395e-01
1.712060551884930781e-01
1.700474343042197578e-01
1.532848702809687935e-01
2.107091234066276464e-01
2.111484021294568469e-01
2.167627071221613910e-01
2.918648373324718159e-01
3.588052526348917137e-01
3.848033958066468530e-01
4.191864441421051524e-01
5.116434490703084537e-01
5.499209343407783779e-01
5.936979671621627208e-01
6.940162761488762877e-01
7.480086282105784523e-01
8.771796300244079081e-01
9.142242662983143253e-01
9.738129750875479385e-01
9.536566709915443862e-01
1.079417399878069173e+00
1.126808038444378157e+00
1.084339813806703301e+00
1.131077178834681396e+00
1.146136440593310102e+00
1.202161712199269372e+00
1.196221858850836872e+00
1.116221062854228174e+00
1.072115655726202155e+00
1.001559793995699943e+00
9.672068277245671197e-01
9.384828286920731122e-01
8.789921064007805152e-01
8.322921449600286792e-01
7.825250439141244740e-01
7.030072505663803595e-01
6.082499052900052217e-01
5.591728972068389369e-01
4.746389860468891997e-01
4.271676617316250146e-01
3.785367020484359246e-01
3.596232236347422506e-01
3.202048347951238494e-01
2.293230149464888235e-01
2.213831137264186955e-01
2.138795958966514810e-01
1.648587693010621913e-01
1.390600578725735836e-01
1.647027550198778834e-01
1.421560127759964876e-01
1.130023431091591590e-01
8.046416363002667493e-02
5.688509271164014780e-02
1.080846815041377751e-01
1.204284645621662569e-01
7.138545093810601261e-02
1.344867679144654549e-01
9.734913249488968967e-02
5.848244788696799201e-02
1.291307609885707641e-01
1.156082621164897517e-01
1.183336919812487537e-01
1.523836613044855237e-01
1.769593623187342979e-01
1.537640987758585320e-01
1.284955180209446657e-01
9.339006643783384631e-02
1.684354061683235038e-01
1.556998152456963158e-01
1.349184966981865352e-01
1.468633533907809097e-01
2.112912449092943235e-01
1.987417456849741582e-01
2.077475334893026382e-01
2.089039451550625537e-01
1.882772039630711824e-01
1.524128979900092884e-01
1.894415689150809046e-01
2.084721444597787410e-01
1.876860858006686450e-01
2.011931240031493706e-01
2.118112200912704579e-01
2.256443417982957333e-01
2.262407738101410437e-01
1.879492381682056346e-01
1.600821858772251138e-01
2.462404576559273639e-01
2.100626619826408414e-01
1.915341227210405339e-01
1.441919746157006854e-01
2.207499154763404303e-01
2.132979228906252411e-01
1.889712927141679877e-01
2.073935464169151255e-01
2.364444314836073313e-01
1.542320755838968716e-01
2.237831836643855155e-01
1.596447199020725460e-01
1.494974463029802580e-01
1.739725237149619130e-01
2.199581606505676135e-01
1.522994516610075566e-01
1.679625936420417465e-01
1.240802931032536638e-01
1.800920559838007085e-01
1.348747925383672053e-01
1.426690467581611388e-01
1.790357677925369928e-01
1.271477576121141650e-01
1.557629518264189994e-01
1.478010453756477272e-01
1.408407137714842439e-01
9.815278254162650151e-02
1.293475001291021220e-01
1.136449581651085838e-01
1.059487953403829424e-01
1.307138214192319348e-01
6.627614367135815920e-02
7.953180185745567510e-02
9.382657411801204050e-02
1.349247924796770359e-01
3.000512825940981204e-02
8.530625813366568555e-02
6.920716727172310234e-02
9.255689281966199278e-02
4.362401322060932563e-02
5.429956886501587088e-02
2.900735280313791742e-02
3.898799379592143149e-02
6.608104837122573405e-02
5.506882563622536586e-02
3.061732753365097037e-02
6.150420058500392917e-02
1.037142777205466437e-01
3.155946219752389648e-03
3.901716196842447415e-02
2.120592511713596806e-02
4.877297728410959210e-02
-3.625960812207638939e-03
3.983509968242118782e-02
3.461791629358695888e-03
-3.259786290468073833e-03
5.658880404708015177e-03
2.880492539247138384e-03
-3.150346997674160349e-02
-5.956222175247521955e-03
3.092135837466102738e-02
-4.642567034297638562e-02
5.453413767767117948e-04
1.498833709169611339e-02
-1.836215158596981797e-02
-2.627466708561970038e-02
-2.064573246487841351e-02
-5.043828189211709695e-02
-3.019355307681348410e-02
2.578285365654958000e-02
-3.051335639623220519e-02
-2.750102408924904804e-02
-5.704691109317090725e-02
-1.794397754914515628e-02
-6.270474132780029519e-02
-3.786365823992038360e-02
-1.142152307113090681e-01
-3.278069633631440494e-02
-2.939595089979176248e-02
-5.733040579982652540e-02
-5.145530028314884013e-02
-5.636300431179143422e-02
-1.612506686708460937e-02
-5.294341972700720989e-02
4.381222406479985676e-03
5.629232479242581022e-03
-3.579729808451734274e-02
8.665124858225042859e-03
5.772979186895232928e-03
-2.575441590030980513e-02
-6.435459523811482008e-02
-2.667647644668239351e-02
-3.077358231878045761e-02
-5.359785765777282107e-02
2.324075041701788302e-02
-1.747757920680449717e-02
-7.215120526469892548e-02
-2.366374211208162673e-02
-3.372493109297532154e-02
-2.148147265209119500e-02
-3.901051788040840046e-02
-7.099226531498464832e-02
-4.731440278133366983e-04
2.263376954005092562e-02
-4.268898684906356766e-02
-3.315974544460464218e-02
6.133337937892863190e-03
-4.047610646799611189e-02
1.025678551071738942e-03
-2.496270369659271682e-02
-4.527875355729824025e-02
-3.639371615247263131e-02
-1.810988109359112919e-02
-1.345664103001016632e-02
-4.634254695794913503e-02
-3.407150910415567002e-03
-7.262875095273391146e-02
1.676277477820477951e-02
2.297723985079899028e-02
-1.978294797252494117e-02
8.390866822915496459e-03
-2.816149993080066527e-03
2.273979545725640650e-03
1.050407859702916918e-02
1.814938688320253540e-02
1.105222553981700245e-02
3.869257979990498725e-02
8.080716524267697598e-02
5.401103799073388861e-02
3.902045369236226136e-02
8.609365931626729307e-02
8.859807323200888374e-02
8.532229833374357919e-02
7.606762259688781835e-02
8.110202036930494462e-02
9.285763897626680974e-02
1.126201081660783559e-01
6.133205568219137621e-02
8.183270605708303780e-02
1.174326634407435732e-01
9.739927029656775259e-02
1.006192229384341025e-01
1.275530436691082459e-01
7.638286748066411280e-02
1.359222617974493175e-01
8.282253267001499220e-02
1.015613619913496579e-01
6.750084357036073568e-02
1.024986402283961373e-01
1.348330699438156921e-01
1.245886618334089008e-01
1.123992394351265300e-01
1.334488406591444187e-01
1.342705022774038082e-01
8.892232846329672924e-02
1.542028455201605031e-01
1.390868741209182191e-01
7.883390376948924694e-02
1.718388826528201019e-01
1.163784061851174528e-01
9.525501864625356141e-02
9.221443353809313792e-02
8.841779242180834719e-02
1.276725068130235285e-01
1.286778271120131989e-01
1.290143392769727559e-01
1.677627183898791619e-01
2.412311353411754622e-01
1.967745644593036913e-01
2.346097544820234249e-01
2.930049018076234524e-01
3.665905860703243535e-01
3.598520205248714743e-01
4.149542053348543869e-01
4.785944515047571568e-01
5.246476396556939426e-01
5.211396409524450268e-01
6.122090944353782982e-01
7.230243346761271450e-01
7.535752312351710058e-01
7.982777924283319670e-01
8.951562226459587324e-01
9.825681447046161754e-01
1.039243481767383237e+00
1.076933867285080115e+00
1.063870810822924673e+00
1.160087223578430748e+00
1.139680042323816922e+00
1.208949633248298516e+00
1.205904876892261113e+00
1.169498566322781929e+00
1.125582595832214539e+00
1.169588238161694882e+00
1.104364116572114307e+00
1.019131566021783897e+00
1.035870324522697672e+00
9.318568526278406816e-01
8.460820168384113327e-01
8.298326121234816943e-01
7.536735110634968926e-01
6.796416742219961726e-01
6.035535050061325846e-01
4.996670505870426937e-01
4.421492057941427412e-01
4.075943903768354803e-01
3.106614065583113149e-01
3.343906490801328846e-01
2.845707716563941614e-01
2.549097126560500581e-01
2.718317928440187048e-01
1.668094137221829976e-01
1.859136137771488784e-01
1.323914199826208282e-01
1.929499748552539196e-01
1.152033643091637249e-01
1.968721333447632227e-01
1.073994296555344091e-01
1.438455212334817102e-01
1.495833630289768179e-01
1.612151596158565847e-01
1.051441830462430949e-01
1.045182215962882910e-01
1.296309854554870133e-01
1.682948996089073668e-01
1.519363310651679899e-01
1.886729735017056431e-01
1.359045538225442940e-01
1.580695292554217812e-01
1.681543700334913183e-01
1.713887170852427533e-01
1.976549605466749460e-01
2.218428404787460284e-01
1.716784863323508881e-01
1.798343418072242128e-01
2.070644051882010728e-01
2.123486010214340192e-01
2.387117459192142355e-01
2.130215846908171673e-01
2.077713598304775922e-01
2.698376384264362104e-01
2.305246529904400321e-01
2.451414527182356751e-01
1.791384023636414802e-01
2.248949024068311597e-01
2.652472945513237867e-01
2.368659784812723601e-01
2.331816830474752744e-01
1.801671092021810416e-01
2.341430457917155206e-01
2.766258355167132144e-01
2.401545844425761189e-01
2.546097061488546975e-01
2.308681375088494359e-01
2.304960425876378116e-01
2.418031382073460578e-01
2.544178910482832734e-01
2.618287453918167751e-01
2.586138011078397136e-01
2.258753256345306937e-01
2.404556340898587052e-01
1.941301764391282492e-01
2.376551720985539407e-01
1.674653214062400419e-01
1.794712722955770778e-01
2.279951739992380766e-01
2.349583384099500627e-01
1.792359111735397637e-01
2.287191791201106661e-01
2.034530468975455364e-01
2.385928135940570960e-01
2.442855581597165870e-01
1.294341648452462801e-01
2.499377956138349177e-01
2.153934983299032047e-01
2.016790319746671334e-01
1.690366120989157950e-01
1.899538534966737358e-01
1.807644066323756404e-01
1.908077564417061944e-01
1.712444346171702880e-01
1.723924229991141421e-01
1.732375958317804998e-01
8.797305654447612477e-02
1.327678175817376682e-01
1.367126404323114608e-01
1.204215813613470215e-01
1.609849774673658973e-01
1.710538000139178172e-01
1.221882555619022981e-01
1.175542166465066707e-01
1.123600640984342564e-01
5.755211649196845941e-02
7.387364242310373585e-02
7.000912188109929823e-02
1.161018215436725315e-01
7.605078859624561649e-02
8.169609848207717850e-02
7.507718295498941319e-02
6.862448841800121435e-02
1.356461676597764676e-01
7.267736439339722576e-02
1.082656503299782025e-01
4.185640110347083054e-02
2.654923629167197166e-02
8.371271842811764397e-02
5.883520746397393614e-02
7.030876513420938889e-02
1.030107980846759613e-01
5.204289541689045145e-02
5.584490114607146283e-02
3.177851712694106101e-02
4.380628725286309783e-02
4.574124136596618984e-02
5.061151011835432478e-02
4.288184561750708890e-02
-1.401535085533279178e-02
7.665714499570677742e-02
3.206403686470583880e-02
7.564991014304187078e-02
2.044650801875992109e-03
1.064784044676187966e-02
1.844987061130519412e-02
1.120851941372385044e-02
3.344788388988390732e-02
5.449716627029482091e-02
6.222364896305596083e-02
6.294255968057344691e-03
1.715942940235668651e-03
4.218112256480013172e-02
-1.304353785045126932e-02
3.830561483618578900e-02
1.070855517060301590e-02
4.257571557210290854e-03
-6.717673138568115709e-02
2.497533132627841740e-02
5.189910479626954481e-02
-1.877539119478792429e-02
2.520647296406228893e-02
3.171913933357402293e-02
9.605302083610968433e-04
2.985757892747795475e-02
4.397414170126268812e-02
2.279609657897981728e-02
3.418998013859161911e-02
1.011419667034348796e-02
4.271932389333616548e-02
-3.257485075900567323e-02
4.248609924156693946e-02
5.696427783653523758e-02
-1.816893451611737570e-03
-1.773262182274906382e-03
7.092540317462252275e-02
3.493384247671207921e-02
-2.126753055943423482e-02
1.903395843163424583e-02
-2.474950093217592045e-02
2.158395069446891398e-02
2.899902836981657975e-02
4.991676997267492644e-02
3.421070086990424947e-02
8.318513409452588103e-02
4.081131642239185786e-02
-1.756592274077169516e-02
6.052060865490597324e-02
4.786917672046393790e-02
4.226006053018484254e-02
8.195593448938011394e-02
7.835379851403455331e-02
3.071762844654142219e-02
6.817935051711906946e-02
1.092315799769044971e-01
6.969779064415844438e-02
3.265108898105066604e-02
8.722445508850733276e-02
7.019028843881802704e-02
8.482343600746852785e-02
5.951103151905788591e-02
1.028887540724960359e-01
8.002941590479964451e-02
1.263364540052160923e-01
1.473788713945955453e-01
1.172238278916516441e-01
8.788992471170532783e-02
9.854057192364489015e-02
1.312285384605481331e-01
1.401524702356446994e-01
1.193599158459557746e-01
1.336069244530667111e-01
1.613734187832399081e-01
1.802298922340420939e-01
1.518331231993144403e-01
1.742043792104349120e-01
1.592646006351738919e-01
1.720650747425588323e-01
1.461227064195952663e-01
1.801076890119496232e-01
2.117900688769186468e-01
1.838911546099715466e-01
1.872681294001971031e-01
1.494536497729478386e-01
1.875953962643078510e-01
1.166335800363611092e-01
1.985564069217080618e-01
2.225660862441395937e-01
1.638356467571948361e-01
1.728915387407267412e-01
2.090719334634643101e-01
1.562681854147978666e-01
1.958901267230055143e-01
1.607902155499800478e-01
2.027694834598792462e-01
1.816409122932471365e-01
1.110602830824038573e-01
1.686907643556559699e-01
2.060988723752180674e-01
2.762157724488369936e-01
2.272492370453066401e-01
2.309648435664337363e-01
2.836545615653011110e-01
2.080964112666910948e-01
3.698491543630355594e-01
3.861577041379769537e-01
3.937797881965118263e-01
4.771209165442135691e-01
5.160642150542892326e-01
5.593669334341296873e-01
6.402921156174246065e-01
6.852474612834217327e-01
7.594010379648084008e-01
8.387369281993495296e-01
8.784611269508885156e-01
9.521520519245312286e-01
9.839517069877816713e-01
1.038862865486548381e+00
1.078601762166930156e+00
1.185019369787297716e+00
1.200189800934858830e+00
1.199827658397702557e+00
1.238339765061175379e+00
1.221568874751644884e+00
1.251038618906997080e+00
1.256165896335071475e+00
1.236873411618347962e+00
1.153209803216006746e+00
1.104788843545225774e+00
1.000988843613882961e+00
9.506235980760883164e-01
9.697278644772533429e-01
8.675319537722284702e-01
8.276867212583967071e-01
6.695415634562875695e-01
6.576636287388044622e-01
5.446236962139338056e-01
4.720885609067955180e-01
4.552970594000524396e-01
4.867878212947970851e-01
3.631290803679558810e-01
3.854083642318779646e-01
3.059921398231204570e-01
3.216133095726045887e-01
2.809150637011227358e-01
2.802436942016455212e-01
2.106667848940872723e-01
2.207994459688416289e-01
2.073848186989744602e-01
2.736866767098797282e-01
2.204652592173846071e-01
1.871288931840909553e-01
2.519774589316830515e-01
2.552937686904960257e-01
1.743838868997564240e-01
2.047375688641171754e-01
1.882302945622161827e-01
1.562521575665389295e-01
2.131015502494742475e-01
1.203849025189191041e-01
2.189703381568720852e-01
2.196491545814932833e-01
2.240031409040639243e-01
2.242149743208099455e-01
2.223220554437356500e-01
1.886005321208119867e-01
2.023455365472664469e-01
2.470471191198934657e-01
2.515260578327033203e-01
2.829380252884111657e-01
2.468352655811313634e-01
2.326347333336512557e-01
2.591088451041900775e-01
2.058203463355271490e-01
2.802998923675532050e-01
2.951230852463480603e-01
3.202859405502814227e-01
2.914287016694683818e-01
2.515232589496125271e-01
2.665872649956228524e-01
2.835399252280487725e-01
2.694032338914126856e-01
2.564793359322368738e-01
2.743759249623178853e-01
3.222713902004352149e-01
3.047593958036412531e-01
3.192360702823280327e-01
2.697917406699850140e-01
3.341138466530527706e-01
3.026039289058351511e-01
3.032711893197571618e-01
2.881852518702204269e-01
2.140583406144215273e-01
3.278419735548054881e-01
2.935620371947064711e-01
2.515197332484849224e-01
3.416705183802836721e-01
2.773057857718645991e-01
2.625756106878950336e-01
2.412418594628930879e-01
2.482073380324536782e-01
2.152695245950123348e-01
2.463371745856594852e-01
2.519767875802223500e-01
2.683162946264825433e-01
1.928570122078806792e-01
2.189419182034150757e-01
2.015494921118710370e-01
2.611499590513418623e-01
2.495511027147746530e-01
1.672738983326493567e-01
2.114735292904440234e-01
2.568733101452368994e-01
2.320872187707398449e-01
1.946177617984002350e-01
2.128930728732709998e-01
2.190204677318851045e-01
2.430505936069381479e-01
1.721898153239553586e-01
2.211413648676744392e-01
1.589278355823147970e-01
1.526304602402476784e-01
1.603191695102604841e-01
1.659065973857750675e-01
1.791053063173982940e-01
1.490233625461212519e-01
1.321613465761065087e-01
1.173325616419945150e-01
1.565581837707736845e-01
1.357482685151775170e-01
1.393608804120534117e-01
1.383744605760916513e-01
1.645149804270032989e-01
1.525141562247995242e-01
1.377693628289074490e-01
1.072662578024894259e-01
7.005884305246815047e-02
9.076990009409578730e-02
9.930754144876521861e-02
7.853507368581527648e-02
1.130960460774703691e-01
9.539573482284890993e-02
6.378474124412006341e-02
1.290045383896143705e-01
9.904494098981780903e-02
8.652702530359998589e-02
1.139539488962421632e-01
5.561987544850320597e-02
5.859136455451251918e-02
6.463635021373631551e-02
8.937161761293241358e-02
8.187861684344055480e-02
1.642468873210128077e-01
3.984731814248138743e-02
7.014276730403200266e-02
5.826205600232699233e-02
7.828047009806829437e-02
8.988694885464904027e-02
6.977456366240147867e-02
7.284147227698542504e-02
5.006420366291677859e-02
1.089992116754218282e-01
4.501519300827796360e-02
-3.555119086616626012e-02
3.976257099571471609e-02
1.285408784485876643e-01
2.097569155106021946e-02
7.035107274760710183e-02
3.144284406364834805e-02
6.888641676224271926e-02
8.766827200119647889e-02
4.034418408982939908e-02
9.211107201012386225e-02
8.587150879398099124e-02
6.263660692857436763e-02
5.061832548962227202e-02
4.584146173778377159e-02
2.787220188858301542e-02
1.836220966812973643e-02
6.940512985874824903e-02
6.202388168403984853e-02
6.399650751391602888e-02
8.165860719441048188e-02
5.054070999194637537e-02
9.121676823014279734e-02
2.100343327532318283e-03
1.047997222365011916e-01
4.986440422113815052e-02
2.957637730344820845e-02
4.726459432817054634e-02
9.801493768263200290e-02
3.066722027657207625e-02
5.339381466292657252e-02
1.932701631035624312e-02
6.237282370467201603e-02
8.785037429345654569e-02
5.883527373346863348e-02
3.931854052920869674e-02
3.786120413493171410e-02
5.346804758402449315e-02
6.648764853456985702e-02
7.610090439571325083e-02
1.876143163761879312e-02
3.540597999345433677e-02
9.335385768177154042e-02
6.481330805162632824e-02
5.426631730722882713e-02
7.330868654091428349e-02
-2.040214985518665203e-02
6.993077089782148703e-02
1.254504607734579502e-01
5.192625949978149635e-02
5.801369473987654651e-02
3.980800934836810356e-02
2.089805084071050950e-02
3.460928580964081624e-02
7.637747904139421951e-02
6.642592561998737766e-02
2.325605317732091365e-02
3.038497345068391295e-02
3.093126500797623024e-02
5.424624290841589119e-02
4.326797624480819421e-02
4.708975914234252158e-02
1.690072102133369919e-02
9.778162837380510730e-02
5.801634008546617538e-02
3.329776405072550072e-02
2.505591743160196991e-02
3.733317379143951537e-02
8.394839212184937449e-02
9.402958150049700592e-02
2.968948041723130926e-02
3.551316778718735523e-02
-1.566140810558988572e-03
2.046147274342435818e-04
5.247874393939407772e-02
3.897367623544990833e-02
3.755990638608346088e-02
3.341194553801487416e-02
5.783956549412804654e-02
5.203837706995228379e-02
7.930517072420108227e-02
1.260465848803354327e-01
1.582135905575501877e-02
1.079923358728180488e-02
9.626180110356651054e-02
4.598895194517499396e-02
7.185539160689496940e-02
1.390637116086260172e-02
1.569118535562008532e-02
7.342790694680009778e-02
9.802900587203920713e-03
9.032644923119287350e-02
7.248644021522952785e-02
2.648748803713866368e-02
9.373142149135071932e-02
6.323598437250343984e-02
4.081742866159343563e-02
4.958188237404837634e-02
-1.133163339079783227e-02
6.530835286626651692e-03
6.972156450996722099e-02
5.299808599067640930e-02
9.023458171726886357e-02
5.810998521008044204e-02
1.020228225259219718e-02
1.502551632220539696e-02
2.137205620666883521e-02
2.829357533795955407e-02
5.034778351316004930e-02
8.125892096295891931e-02
