1.223600366431951469e+00
1.219107059401004944e+00
1.248932706611662447e+00
1.184736681566523009e+00
1.169764397664995625e+00
9.941126133313114011e-01
9.609706075846822237e-01
8.379851949362199237e-01
7.069000778136077523e-01
6.214643695486378183e-01
5.161624389631558341e-01
4.550797863916927755e-01
4.000447638358627933e-01
2.922330567048281869e-01
2.715981535901031418e-01
2.369177754594211371e-01
2.053823538088764000e-01
9.541475938968634052e-02
1.063773754398740917e-01
1.125034141526935066e-01
4.704700414357785437e-02
3.287681455111152173e-02
6.711811436040622525e-02
5.377663544088059216e-02
6.116920568542573433e-02
5.382480904390643528e-02
1.354796318130943034e-01
6.037280083960949728e-02
9.595334050837608930e-02
9.858368994400447394e-02
3.737884294218579706e-02
1.373467525603771222e-01
1.177057641420210660e-01
1.094173803554310404e-01
1.423851864790853239e-01
1.153311995704134341e-01
1.494494307879469519e-01
7.303214596722744367e-02
1.602486499646025853e-01
1.476880620651676301e-01
1.546400045598679829e-01
1.298768501808856835e-01
1.550370093927256887e-01
1.605594492402942775e-01
1.401462326990406682e-01
1.912718637102589492e-01
2.337769868423958675e-01
1.498274984350251304e-01
2.128534900685363773e-01
1.909785683921296773e-01
1.926961592720345673e-01
2.159058282763347270e-01
2.209300439159986307e-01
2.279961681578917265e-01
1.923823245454016895e-01
2.624646334912789647e-01
2.352447908678749200e-01
2.532354179455182375e-01
2.740183291826432388e-01
1.816422078048252065e-01
2.594093967874613882e-01
2.363056480013816796e-01
2.720427980896550912e-01
2.171889317322205915e-01
2.685487348364153370e-01
2.076075106232178891e-01
2.496091562877197356e-01
2.438799483275916613e-01
2.280347763862205501e-01
1.986299358446131369e-01
2.149929346414906350e-01
2.497864591881105434e-01
2.623865085756879600e-01
2.716601667524920494e-01
2.237752685745117431e-01
2.101304891266945751e-01
2.103794932822310726e-01
2.488278087317225551e-01
2.004171246057422362e-01
1.810364624297037817e-01
1.636090050254928874e-01
1.603783183601056594e-01
1.699541358204872121e-01
1.289249903650050710e-01
1.257258471731083904e-01
1.356283065450063774e-01
1.170096769109318230e-01
1.415122061023574573e-01
1.369367014256073212e-01
1.177699179055830547e-01
1.178626309945531164e-01
1.000807370679714092e-01
-2.369361255401438229e-02
5.746988901394165655e-02
9.880326282874891952e-02
4.643364200993138624e-02
9.146514781942399752e-02
8.755466874960159129e-02
4.685037697607873086e-02
3.192036475222942427e-02
4.496237940725668347e-02
3.861150492930384703e-02
5.421971467920508325e-02
-3.912538190527854731e-02
5.003452490653259588e-03
-7.211900456794116676e-03
-5.604121880903020769e-02
1.220338329248504827e-03
-3.216249786795695453e-02
-1.840531937158107478e-03
-7.704839345099421047e-03
1.786961712239725289e-02
-5.725614641759555618e-03
-5.128427132182226955e-02
7.697183800702403489e-03
6.789211075328804856e-02
2.568700780486489130e-02
1.208747628259289331e-02
-1.574902768837808942e-02
-2.608795888697613280e-02
-2.953210451031382591e-02
-6.762278735478771674e-03
-4.922008404118732861e-02
-9.601815778136613827e-03
-3.710808043641927734e-02
-6.954307581639172786e-02
-3.928045978215805034e-02
1.781330617501996477e-02
-1.628645753333334001e-02
-1.276741215084173098e-01
-4.191967340172179923e-02
4.819772928617474528e-03
-3.175568875322318935e-02
-7.580819988314058122e-03
-3.561016284987386649e-02
-1.865983164503647387e-02
-2.351872895352326992e-02
-4.432917079569258234e-02
-8.160738226465315964e-03
2.030876904527839297e-02
-1.441159305729943808e-02
-2.312821645561198569e-02
-5.182206973064926170e-02
1.355432974054410211e-03
-4.237134613083810147e-02
-1.045267073930056939e-02
-4.640172226286005258e-03
1.932789868037958214e-03
2.307804904277586944e-03
1.058780821358365487e-03
-6.586876001879411746e-02
-5.407163585526840455e-02
-6.956233657136648429e-02
-7.163871817089617622e-02
1.729708539710278839e-02
-5.801433344359487043e-02
-6.215584585167813897e-02
-2.990094479099363392e-02
-5.040164981935137123e-02
4.011455890425244530e-02
-3.557725675865109488e-02
-1.355102082443072203e-02
-4.973886025912457182e-02
-7.547707719088198042e-02
-4.662671056895857646e-02
-4.529632951399992918e-02
-4.432447911793397505e-02
-6.920447766834279812e-02
-1.554152098030226609e-02
-2.792540585562641037e-02
-6.203785540145266564e-02
-1.029719875387435923e-02
1.194386647063747087e-02
2.784997558467337125e-02
-7.756126585882572311e-02
-2.345550272869920475e-02
-3.892989991170428543e-02
-1.335693741769700821e-02
5.218051926196645013e-02
-6.698399328440587941e-03
5.729436382844114994e-03
2.194874973155333531e-04
7.920397170145410115e-02
-3.303996522129237084e-02
2.494557464356596255e-02
2.146729246977632094e-02
1.668345094823747710e-03
9.225661259429404626e-02
1.094769097204748021e-02
5.701484834111957001e-02
7.404077315110470237e-02
5.926567429785085245e-02
3.488096074155469517e-02
8.664135817446200205e-02
7.322098713502697698e-02
1.242736010049905332e-01
1.189363098810694991e-01
1.646752325588119736e-01
1.119561173465627446e-01
1.280281751659981815e-01
1.006361943798881053e-01
1.631539148476915668e-01
1.118455494071066147e-01
1.075368570474763974e-01
1.252601733910075343e-01
8.749991836342223273e-02
8.907668121297979136e-02
1.169344526276656498e-01
1.188964983534986919e-01
1.106265932385470385e-01
8.578672942079899888e-02
9.160027780639934392e-02
1.075736651008843831e-01
4.140043042079857849e-02
7.017192678299234709e-02
-2.050782062929858152e-02
8.697307895042519221e-02
4.099025609113431806e-02
4.392612171290301987e-02
6.832293089974819655e-02
1.000817751495727548e-01
1.679834310412786913e-01
7.065627490014519951e-02
1.202034592170035526e-01
1.894693669479880771e-01
2.070898015907571554e-01
3.102062256047094513e-01
3.464535489741313312e-01
4.541528177322613491e-01
5.049691006175941466e-01
6.205933900785105539e-01
6.719006394251098024e-01
8.565435123029794262e-01
8.430432510237862997e-01
9.622575933943922077e-01
1.020148786966738941e+00
1.152035184225056463e+00
1.192172432410532057e+00
1.167565607488093127e+00
1.240792914228463939e+00
1.174930834813157965e+00
1.171512645633497662e+00
1.123414205130748300e+00
1.025899290966677979e+00
9.761597170554738856e-01
8.511874065241011866e-01
7.673733836385502327e-01
6.496100672239546459e-01
5.048022144569656033e-01
4.654467284500309887e-01
3.587503862927501896e-01
3.515375678668233306e-01
2.034630695720628379e-01
2.257634700646698744e-01
1.379743666412252545e-01
1.188678276910744014e-01
3.672070572118913551e-02
4.732536069425104935e-02
2.106529614808968359e-02
9.341124915998166856e-02
2.882969565591135541e-03
5.451923324767876666e-02
5.369820377057143296e-02
5.345048642722919491e-02
3.438322071928373580e-03
7.842714586492187390e-02
8.845733198596661406e-02
4.351423663681743687e-02
2.340866786997709836e-02
1.678467063813236793e-02
6.228391096151464357e-02
5.584783858015776592e-02
6.535570855261983725e-02
2.558449391931588712e-02
7.330141483186294882e-02
1.130423334543534664e-01
1.096941687697297330e-01
7.940057081328907862e-02
9.518780753578881537e-02
6.106753402179340706e-02
9.181568135732862124e-02
1.081976638958288550e-01
1.439671876840157294e-01
1.102529274465412212e-01
1.067244619927357197e-01
1.667471314335918220e-01
1.373732071914552377e-01
1.307092675735440912e-01
1.858380559357218909e-01
1.805498437416832580e-01
1.655870254634923544e-01
1.659743376455616592e-01
1.922509734626700328e-01
2.010067658339132202e-01
1.946934486879828008e-01
1.952105199230290133e-01
1.761222662735027200e-01
1.801979643852429369e-01
1.932570065253023106e-01
1.709152217110375405e-01
1.682588976327668018e-01
1.982707320453770683e-01
2.305162817382278295e-01
1.380240682962424748e-01
1.873584160602048410e-01
2.056852735018950828e-01
2.276140988300269230e-01
2.469159817794957523e-01
1.822113682023221992e-01
2.457198660304813487e-01
1.963983181408264500e-01
2.029562127070770883e-01
1.420002069550050372e-01
1.826548155189947620e-01
1.908466035480797796e-01
1.376393765489573595e-01
7.438407629529567022e-02
1.510264837000925842e-01
1.339136912107894706e-01
1.743265264495542644e-01
1.113488057383148211e-01
9.973908050627391941e-02
7.905953426658623995e-02
8.856289567890558712e-02
1.807157964936343952e-01
4.635489960693457007e-02
4.717419615117535853e-02
7.893808120350065405e-02
1.332170353256731110e-01
8.973941233793067407e-02
1.076956487583505540e-01
4.334471995014369666e-02
7.117601174140723852e-03
2.943710639658349976e-02
3.344627481223236970e-02
3.198167965657962991e-02
1.989980556632480607e-02
3.891594133276457534e-02
-5.075271071308812276e-03
-1.622636221172106541e-02
-2.902364647977777323e-02
9.013705512306270651e-03
2.004663190610711521e-03
2.776379551398840823e-02
3.783695852728755082e-02
-4.817432106145141252e-02
-1.441875206100946827e-02
-2.425277331090996968e-02
-6.696397694928800381e-02
-3.928617528491278044e-02
2.116224991100686820e-02
-4.703611241423577560e-02
-5.407479431264016617e-02
-3.355644124885859281e-02
-6.381375547981564533e-03
-4.446547145009949881e-02
-3.295166745618297033e-02
-1.066495008876022499e-01
-2.215118595014513997e-02
-3.378449449806869564e-02
-1.487116758225782293e-02
-9.833651284149072525e-02
-5.218862334841255918e-02
-1.491200147989659580e-02
-6.119237950758924655e-02
-4.352914646295522050e-02
-5.786145017740462054e-02
-5.757931073297836710e-02
-1.141063226540141307e-02
-8.947635528005171146e-02
-4.858816084865579671e-02
-3.979180703894281967e-02
-1.942967971652808518e-02
-5.142609704083678929e-02
-1.886565984513440680e-02
-4.970830461176029696e-02
-4.459560751858774458e-02
-4.583165900396887760e-02
-2.868274782489098340e-02
-3.213932856302110369e-02
-8.181549539830000606e-02
-4.192873899525367820e-02
-3.221907695704585850e-02
-4.570725375249579114e-03
-7.865020931224360468e-02
-3.218863726272364056e-02
-5.871289077139498630e-02
-4.243640065670349626e-02
-8.029239846785228563e-02
-4.836143938033523465e-02
-3.823880759964512488e-02
-7.672738914420974832e-02
-3.943735970951246783e-03
-9.347690635951849680e-02
-3.072181701476257853e-02
-1.193475468763184472e-01
-5.372930987729326174e-02
-3.120671862945863587e-02
-2.365352114398940747e-02
-4.753955451955432787e-02
-5.087037724365008062e-02
-2.572575237731528769e-02
-1.322660629447664632e-02
7.894146949926905688e-04
-7.801530652989477344e-02
-4.382539398638410355e-02
-1.019337849966827636e-01
-7.526478200183561729e-02
-5.324908125673447762e-02
-3.819080579934047703e-03
-4.158366572718131399e-02
-3.294357117205952423e-02
-1.211051195824923432e-02
-3.777526341933692966e-02
-7.374992723231840741e-02
-3.224033411291198081e-02
-9.140100407686861661e-03
1.317102785855041314e-02
-2.157901907214876402e-03
2.277110932740676608e-02
4.238468001299802723e-02
5.390673976459676303e-02
3.129293235865532319e-02
-2.006897751360474380e-03
8.500543251143827250e-04
9.798481564007519018e-03
1.827211451997162034e-02
5.962026851030560043e-02
1.192780787609927784e-01
7.486603524363541484e-02
7.161943811288774830e-02
1.083416616020583811e-01
5.962894350148658512e-02
1.203452723896911158e-01
1.222630260539405017e-01
9.862985323952544459e-02
1.627551260959628487e-01
1.358928647961771263e-01
1.056703807750355578e-01
1.012286533878137273e-01
9.315311015194821520e-02
1.020980636334771208e-01
1.022182256877723766e-01
9.429592341325004901e-02
9.545141096464349051e-02
6.350306883257311741e-02
7.910699763113604455e-02
4.463539436660733661e-02
1.009970610819051623e-01
8.668771766552332836e-02
7.617153094293897808e-02
1.020079658783939469e-01
4.531080781963589543e-02
4.619045421148079006e-02
2.023499801153180039e-02
9.382664360444994966e-02
8.163767162918447728e-02
1.062526252369914714e-01
1.201107483879398363e-01
7.049018623056588218e-02
7.784239625285195585e-02
6.775217315153908570e-02
1.187180001900919046e-01
1.805896553691447026e-01
1.766703304623134241e-01
2.643543231555404716e-01
3.624663821046948398e-01
4.696577667966217451e-01
5.077361884160451755e-01
6.261229224477367072e-01
7.753107468075391973e-01
7.632078427266659748e-01
9.451314458594627377e-01
1.012328521618142574e+00
1.116417425137488317e+00
1.170358056220593967e+00
1.166604866339955082e+00
1.211551576162088084e+00
1.171174060883662271e+00
1.181079552338652361e+00
1.158651739444918505e+00
1.109136542979946460e+00
1.050132991931596704e+00
9.880992220329332110e-01
8.333914031829569025e-01
7.823507290660081104e-01
6.570979719531815366e-01
5.138360815827405226e-01
4.582249899787966263e-01
3.836891841770836420e-01
2.817664987017040046e-01
2.121858294206823425e-01
1.577000197418108596e-01
1.297510929977556959e-01
8.513295634664147515e-02
1.209235911725090179e-01
-9.726490681309957198e-03
5.270841255318583357e-02
5.551458433718563928e-02
4.869197711683988239e-03
2.386665938506635914e-02
1.993382103316897885e-02
2.900266647234794881e-02
5.366326984205783274e-02
5.442349763863098266e-02
2.342012417007750813e-02
1.054757625605619309e-03
5.635169776081129511e-02
3.726092472265174482e-02
4.697382030327383606e-02
7.559041832684385009e-02
6.211342137528042678e-02
9.081343944231060061e-02
1.635856712552491432e-01
1.154806210786177428e-01
1.420510739584803506e-01
1.238992620407045747e-01
1.177990629169921866e-01
1.381995523408968973e-01
1.436612440729308215e-01
1.621151471484051920e-01
1.448369815431915786e-01
1.105382468331549406e-01
1.123520961647897221e-01
1.766886939571272741e-01
1.353376146405576297e-01
1.957743688077972499e-01
2.211558264418493069e-01
1.799184363423225186e-01
2.281197649057908339e-01
2.044606285612411700e-01
2.020293664661235999e-01
2.076184026708365327e-01
1.842883557833028818e-01
1.838149296939968758e-01
1.661739698429635648e-01
1.959689319544199171e-01
2.841424902119217277e-01
1.766802675036127368e-01
1.872196604195608405e-01
1.988917459570485879e-01
2.003505914158835444e-01
2.307488517565458030e-01
2.033856367454843217e-01
2.143740386457348435e-01
1.929622371964910543e-01
2.018488328787122477e-01
2.115288477400252554e-01
2.060686451940694219e-01
2.659066588551093346e-01
2.016304789234953376e-01
1.918136570656657769e-01
1.184895460164126779e-01
1.955782555139460033e-01
1.238272844623466151e-01
1.940762620772338853e-01
1.760192626634927704e-01
1.897107910992406887e-01
1.406041816366004338e-01
1.541758662468412089e-01
1.672650665737548947e-01
1.126569141443071187e-01
1.523500613747230392e-01
1.444646800174574086e-01
1.169880248534014011e-01
1.619217620083650000e-01
1.236228953049948454e-01
5.160382673789248864e-02
1.252638346507110867e-01
6.975679227963868523e-02
1.074671454812133609e-01
8.659486420010020780e-02
-7.161073137332857330e-03
8.478136738629538094e-02
5.472257857439764839e-02
4.252706293670055482e-02
3.879112978069121365e-02
7.048380315156302367e-02
1.475724149759246456e-02
7.159155868713311388e-02
-1.137788272564739175e-02
3.932118432731085411e-02
5.008090867915114541e-02
4.601778947157411648e-02
2.598834465675637154e-02
1.135466494781483052e-02
-1.646604767018871457e-03
-2.432952194563979542e-02
-1.054784188068518327e-02
-2.095810051173929017e-02
-2.784096299692628146e-02
5.823150989874999878e-02
-4.910259986972895230e-02
3.475570663454121551e-02
-3.745249572597762061e-02
-3.223533086095568823e-02
-3.381429522112533448e-02
-3.694516410083602265e-02
2.319369570424144322e-02
1.240018822533484749e-02
-1.289280615317686673e-02
7.472964427355405226e-02
-7.488102766160855198e-03
-5.610689537164787778e-03
-2.832835353148635549e-02
-3.219081678376582711e-02
-2.427458084489426612e-02
1.709044750857622447e-02
8.539373720571704143e-03
3.003387162463889981e-02
-3.024747313576243296e-02
8.934306096282445056e-03
4.302401445260908841e-04
4.335689813996715727e-03
-3.453312104494900281e-02
-3.968790488663100080e-02
7.763414457662315762e-03
1.790905517026036148e-02
-2.667298507817389419e-02
1.031618517517802341e-02
2.821092169280401893e-02
-1.842467015691903048e-02
-5.052077451117630708e-02
-4.654089154123292743e-02
-2.717823502825736023e-02
-2.000200017579184530e-02
-7.427005790971940268e-03
-6.518925229607689699e-03
-1.389450789868023131e-02
1.499944471837888829e-02
-2.782553780012810007e-02
3.334694990737981785e-02
2.405689163131028221e-02
2.235272445823940565e-02
-2.289047967560075419e-02
-5.991133061301438800e-03
1.986364686355276965e-02
-7.062200719882817668e-03
-2.119102217526608323e-02
-2.144247272395454623e-02
-1.891242157953105379e-02
-3.182360975146199950e-02
9.046158403163538642e-02
-5.271004921842572383e-02
-2.187728734345220291e-02
2.730891335630818151e-02
-8.920604594679814453e-03
3.290891639198414466e-03
2.826192967603423367e-02
5.019847540794802193e-02
1.411738048233138199e-02
5.335431301186521758e-02
-2.156579407537333529e-02
1.513610858685358364e-02
5.241579895380951010e-02
1.013180057030749759e-01
1.800045396593161554e-02
1.783659428083408244e-02
6.770108684263129173e-02
6.467359059249752629e-02
4.735730404897269680e-02
3.842231843268594654e-02
6.566157637868677566e-02
1.029706613566940959e-01
8.364480207610792972e-02
1.350831887605748460e-01
1.021198450392936941e-01
1.303842702930813890e-01
1.266581589914348160e-01
1.119238389666002420e-01
1.544614173180370309e-01
9.802774251201584743e-02
1.226046555140575395e-01
1.309937441603225838e-01
1.585394220798581610e-01
1.691413834622313428e-01
1.282880177979694447e-01
1.259614146251122613e-01
1.582550146994919360e-01
1.103617496537369763e-01
1.866561121874383000e-01
1.489784225925592231e-01
1.192380768697998555e-01
1.166606721542856190e-01
1.591738600147320493e-01
1.552753030692178016e-01
1.200925294396092552e-01
1.358044999301436517e-01
1.011484568520299998e-01
1.229406700622615312e-01
1.706668275459854167e-01
1.862885701618175460e-01
1.125432222886163930e-01
1.292987828545316131e-01
1.269522447719505232e-01
6.436280939847126292e-02
8.499085883541179776e-02
5.702977596474474720e-02
1.514662303538591437e-01
2.133965629080037119e-01
2.107179031240311584e-01
2.115638321953061951e-01
2.476110069345364706e-01
2.898040448586272078e-01
3.920950488106050291e-01
4.367686822166555460e-01
5.116530932542681098e-01
5.643979845634580217e-01
7.095145321709825925e-01
7.845644864646686978e-01
8.988547678139431341e-01
1.011334686844413300e+00
1.019253239398037802e+00
1.134894220299418777e+00
1.190851758618328038e+00
1.230283987883726393e+00
1.234266973373147502e+00
1.245955885656346851e+00
1.213195246273967243e+00
1.228751372669251829e+00
1.154849281610489165e+00
1.077003260343533997e+00
9.225517643792966460e-01
9.437691238926476656e-01
7.743370533676796619e-01
7.403288336003318593e-01
6.152679824815785459e-01
4.967371915269921390e-01
4.839465339855945070e-01
3.679720362064624051e-01
2.823351629236779958e-01
2.256406960793858885e-01
2.260315945056465270e-01
1.454131014573314951e-01
1.243409669504399601e-01
9.865495079904633424e-02
8.035174488965360351e-02
7.321391431488138979e-02
1.418992663077757455e-01
1.164903831122320182e-01
9.306351824854240673e-02
7.099424726814723696e-02
7.355606534713993172e-02
8.272556565222667635e-02
1.517357201726449167e-01
1.116833534295386121e-01
1.306946167297317607e-01
1.199124660222726790e-01
9.327077446078645140e-02
1.290662168300149570e-01
1.000551299394421279e-01
1.746928664442008172e-01
1.230129915067402768e-01
1.350657728594546192e-01
1.834569045270638687e-01
1.450151772828146002e-01
1.663353437584683125e-01
1.007318787115942527e-01
1.771266806780891490e-01
2.115339871830652363e-01
1.817436501914163616e-01
2.240449873610722009e-01
2.133833255222067904e-01
2.529449130055702044e-01
2.045123570814190994e-01
2.253471607600723570e-01
1.942861896901335594e-01
2.411170522153095186e-01
2.364293236353927630e-01
2.827423391056589352e-01
2.397002977379010247e-01
2.498507884687654057e-01
2.460222499098066451e-01
2.703822999990298515e-01
3.320694790233381655e-01
1.698708653069535279e-01
2.752848810454416317e-01
3.133872788864087156e-01
2.636667264997460403e-01
2.953678560029296407e-01
3.148396564199216763e-01
2.707006893260847646e-01
2.583877786436025170e-01
3.045248756837447557e-01
2.893498334924636817e-01
2.701851451143728600e-01
2.875177611533122901e-01
2.946886431071048529e-01
2.605806588293831938e-01
2.672437705926348772e-01
2.693029288365170193e-01
2.349873133805866487e-01
2.793894582478834154e-01
2.074506238265470537e-01
2.288174247828870245e-01
2.499364139425540587e-01
1.891840436181892182e-01
2.408220105005548228e-01
2.140659231108276439e-01
2.416870594843463782e-01
2.138188296292317658e-01
1.840132170314504323e-01
1.892911562376871082e-01
1.838271619087953335e-01
2.299955993803923238e-01
1.653949744373995334e-01
1.523551635190717457e-01
1.443761849400984898e-01
1.497749033837441901e-01
1.040899175448843916e-01
1.208031475508538344e-01
9.625933019817077552e-02
9.469929781203123564e-02
1.399788442819671908e-01
1.115578076013778175e-01
8.363579435764964543e-02
9.671797826871469939e-02
8.939638991910676957e-02
9.412898559023846756e-02
4.332467057637522795e-02
5.200822811834445586e-02
3.792733120132756042e-02
5.082228833634061527e-02
5.297735010326982963e-02
4.067664709142754242e-02
9.189908804342308835e-02
1.216119373230412082e-01
8.881429426271991723e-02
4.489748692462092183e-02
6.614931921341410392e-02
5.599928293350900366e-02
3.803069303499341525e-02
9.448790320210784244e-02
1.135531233692999159e-01
7.957838596767963235e-03
9.411046465692168850e-02
3.213231361882812331e-02
4.105869699717849819e-02
5.657468747393358532e-02
9.378253121622165400e-02
5.513402619137034583e-02
5.849259846101194371e-02
7.121439923629591107e-02
7.550826467936583297e-02
6.012911228843464267e-02
7.499139995395587288e-02
2.626048676669534565e-02
-8.065850415227483750e-03
9.853085316879094113e-02
1.249963746736393322e-02
2.749737953156831949e-02
3.347940261778493964e-02
2.824790811685979133e-02
2.154365563661087002e-02
5.722084178132889193e-02
5.754499493339260141e-02
6.193887808391120020e-02
6.009568116144654859e-02
3.093323819996161503e-02
3.095211290903418511e-02
7.715955507175907557e-02
2.803753096668152450e-02
2.755052886216837957e-02
7.179620881998888260e-02
4.349224793186952376e-02
2.905302546989408513e-02
2.951059718813743571e-02
7.829170478787751686e-02
6.237549770257139192e-02
5.213967289231402624e-02
1.033557141681811647e-02
5.287038762889448296e-02
3.962914638019166685e-02
1.905845174642413833e-02
2.886371491802927972e-02
6.834622413757548975e-02
8.536479633339730255e-02
1.709252906990188503e-02
2.170394605388065168e-02
7.141130340428465673e-02
3.938913455404911834e-02
6.947277722947217682e-02
4.159970674870536872e-02
7.315743147929343326e-02
1.640063486277021365e-02
7.607033074138408457e-02
-1.179786223953989410e-03
9.200839233581795118e-02
6.593797220818825577e-02
8.317668478374083685e-02
8.031627417614006781e-02
2.557993085232735872e-02
1.216074997758547493e-01
9.478058963814905979e-02
1.118725348036079537e-01
6.992905622896013196e-02
1.061259705484744326e-01
6.486011786173331850e-02
1.141229917006833794e-01
8.715527985504145647e-02
2.714289096720945982e-01
1.453711512026673869e-01
1.732378783465270133e-01
1.319629370024347770e-01
1.575493559791657505e-01
1.788024382405107859e-01
1.253979082981319104e-01
1.431568372998131000e-01
1.980169618032266710e-01
1.675010316424899171e-01
1.564471846537499045e-01
1.643592061845098040e-01
1.505493191426097999e-01
1.318537416227384962e-01
1.425936538415732424e-01
1.970892957654467037e-01
2.174761766917502337e-01
2.738540915949616572e-01
1.973404914046771597e-01
1.598149140962252246e-01
1.963348944641905014e-01
2.166129012099884954e-01
2.241561802051844354e-01
2.183996721732680557e-01
2.042271156158875778e-01
1.860909567242531037e-01
2.011619972186014238e-01
1.390862640772995706e-01
1.098481347524705720e-01
2.284240226475909019e-01
1.600542379736012988e-01
1.739267618944270177e-01
7.129395141279563919e-02
2.006068546776339223e-01
1.899282444554991067e-01
1.120846207742380030e-01
1.570021051943340240e-01
1.866259698796836064e-01
1.585691303086394777e-01
2.358389624889997427e-01
2.851908061042195408e-01
3.051321885512784937e-01
2.996980779327702016e-01
3.769567884114995437e-01
4.757296435524103195e-01
5.526705200292167941e-01
6.419578554439162588e-01
7.354521368921279612e-01
7.869233152201317028e-01
9.625762484408285635e-01
1.050475898487376325e+00
1.132439137447375677e+00
1.202663163490168108e+00
1.238544961115266574e+00
1.267493456430227594e+00
1.273097893881273590e+00
1.346131363297343952e+00
1.273911367941323869e+00
1.179167624938322279e+00
1.164677944313304181e+00
1.024869025488309493e+00
1.005680297415452618e+00
9.063741371634065347e-01
7.866549837181521232e-01
6.762383479653695240e-01
6.266959545729041681e-01
5.191936718896941194e-01
3.836188810718517694e-01
4.076496409612946348e-01
2.829748204392092403e-01
2.211695831736905371e-01
2.604234020351993140e-01
2.189848063297624992e-01
1.496973192602832625e-01
1.063497554848518989e-01
1.036631226743584544e-01
1.092706782764429202e-01
1.538343104825663499e-01
1.538934809606363197e-01
1.198259376443163438e-01
1.357523552730860172e-01
1.125744374211059273e-01
9.618235732432520169e-02
8.154431484905297345e-02
1.409673954053418110e-01
1.634153921210855787e-01
1.265329930189401375e-01
1.831907677761770159e-01
1.419495314944427822e-01
1.621280364328916979e-01
1.592583379852697545e-01
2.093906884827594905e-01
1.935906911109175899e-01
1.836570048844711200e-01
1.943630317574325528e-01
1.630893266969596633e-01
1.384525647698527928e-01
1.961921913617178936e-01
2.129507048721978324e-01
2.412678465483640566e-01
2.268902470961366713e-01
2.240260282669885583e-01
1.558290778964637746e-01
2.660298072589339924e-01
2.622775389075026609e-01
2.858398022582683828e-01
2.674361823742562039e-01
3.059060458721103437e-01
2.595274440553698159e-01
2.790060592473076473e-01
2.912299013220731592e-01
3.071938867009732510e-01
3.028433977472538285e-01
3.071862503806533917e-01
3.029691018088056520e-01
2.906968596752962375e-01
3.246057898013555709e-01
2.479386529070531642e-01
2.793996691779751518e-01
3.456411508567937552e-01
2.768270339876519048e-01
2.932906895117350921e-01
3.354196302670138241e-01
2.876829760383929346e-01
2.636729861249110796e-01
3.214226913983752043e-01
2.731510207209543184e-01
2.711565032847194634e-01
2.139531075895954593e-01
2.647637380848277822e-01
2.839625019537995176e-01
2.451338722232717093e-01
2.139298613649818215e-01
2.320214650713891547e-01
2.218277661308735438e-01
2.263374976696816976e-01
2.119252605857585015e-01
2.707717754053579617e-01
2.231900586324605529e-01
1.551316160408330314e-01
2.026632823470151945e-01
1.924897150754955877e-01
2.227082929193613947e-01
1.754203951469577305e-01
1.678500188898715828e-01
2.226605334608686704e-01
1.281919754192506478e-01
1.777992969166143911e-01
1.495412548374129014e-01
1.265134176544925881e-01
1.161826657921332245e-01
1.706477010979269848e-01
1.383213821937565591e-01
1.370629113761685225e-01
1.405986269865074634e-01
1.192520794371830783e-01
7.247167340320617712e-02
5.267491621967846510e-02
1.417598898376835059e-01
9.777348058109444628e-02
9.008961309351948277e-02
1.382408650137665340e-01
4.877355478242302589e-02
1.804656269969298621e-03
2.016587839168562657e-02
5.578113290414342396e-02
7.260379343646471140e-02
1.083963729535324383e-01
8.967229180849556336e-02
-1.458623098303925281e-02
1.443328057657013441e-01
4.618722193588446073e-02
9.366641716372037241e-02
7.167130688711176312e-02
5.403155490674556999e-02
4.545343887290159007e-02
1.799364147772961747e-02
1.162673898568056946e-02
4.426468495256370705e-02
6.679261665127188274e-03
9.691320792360558212e-02
4.960616918878736625e-02
1.087661375520277418e-01
3.226272673429642773e-02
2.701623491685496703e-02
6.190774086305501911e-02
3.589766207402042553e-02
7.240332162320856080e-02
8.592837030990976843e-02
7.536013999106069838e-02
8.295140182822269281e-02
6.620607063324580877e-02
2.489040280796246674e-02
7.526304603267133797e-02
6.171894774119043858e-02
2.200086939341984460e-02
2.556323928431743567e-02
3.730920925541929278e-02
7.319500760455027732e-02
4.315928069040034232e-02
3.929628678143895493e-02
3.451939732735951477e-02
2.853616974894609623e-02
4.077278426839553438e-03
6.272707238391272977e-02
8.242810114577850400e-03
4.071074956740029088e-02
2.635870575077120526e-02
6.158621928200061491e-02
2.834204773174554826e-02
8.461056954121446566e-03
6.842029340849710428e-02
1.410804900327319172e-02
4.373748505447073304e-02
7.759246070730715927e-02
1.783834182619440864e-02
3.709524620236130665e-02
2.783041887499407632e-02
4.539504312377441730e-02
4.021837465897601382e-02
7.085554432645813083e-02
2.575956717532458529e-02
8.392705820502580072e-02
9.536118590026604336e-02
5.665310144229695338e-02
2.721983260210457736e-02
5.190542777147312548e-02
5.186794301369521132e-02
1.115343503517366441e-01
5.830085733834258765e-02
1.062035712328045778e-01
7.168233557162327629e-02
7.362904258413655034e-02
6.583030510831036630e-02
7.312252803693983227e-02
1.124120103850916319e-01
6.882200063240707932e-02
1.247826851476394605e-01
1.446694481363725859e-01
8.930919106369782090e-02
1.490522490044795534e-01
1.500933518266452660e-01
1.505905149500565143e-01
1.112819745267056848e-01
1.325564985240300642e-01
1.381567164814968551e-01
2.099468169078615998e-01
1.521157023633155081e-01
1.517937436228093406e-01
1.273538697467607728e-01
1.367041638889870958e-01
1.489192562094331929e-01
1.833362408593861292e-01
1.322537976334514087e-01
1.568711565621977722e-01
1.222553421413983821e-01
2.207264415728008577e-01
1.817830790915343497e-01
1.871614844218393303e-01
1.437539136806715301e-01
2.092622624999623815e-01
2.168810825782390428e-01
1.706004875801753751e-01
1.505157345852329576e-01
1.773170670895259371e-01
1.783080490885399771e-01
1.776576480009286474e-01
1.666641066154629092e-01
1.709727110906277825e-01
1.169294046334392739e-01
1.613851462560646211e-01
1.177974360128682257e-01
5.506479244790178640e-02
1.176140175553062606e-01
1.189676262749571195e-01
1.507181468577249717e-01
1.813493130480078319e-01
1.806247825501691162e-01
2.607648924310652649e-01
2.185447292827450150e-01
2.175357617115536157e-01
3.381668626550514700e-01
3.762597125847351731e-01
4.327570867780681785e-01
5.382790381077238173e-01
6.132532945131603519e-01
7.112329578527204488e-01
8.750539467537311600e-01
9.298225365825831812e-01
1.010084297890655458e+00
1.149124822282940439e+00
1.162757177001674691e+00
1.188902436191671352e+00
1.221136011214860595e+00
1.272699576971577429e+00
1.218246792836813253e+00
1.203359869867980825e+00
1.178207015078060582e+00
1.157292122284431457e+00
1.081629313817516591e+00
9.718496667184175486e-01
8.547908161477767441e-01
7.382555858300547946e-01
6.687247927643462653e-01
6.165960421871180541e-01
4.802579590757603545e-01
3.835953662792458974e-01
3.237675198619192063e-01
2.615379362847804479e-01
2.368961595185650748e-01
1.577060373017973582e-01
1.614169658535406504e-01
1.422992220368307636e-01
1.179175114864785268e-01
6.259929782710527135e-02
8.254915680912229548e-02
6.645409237442927164e-02
7.789773694935597792e-02
5.998738210787423614e-02
1.186867308137343063e-01
8.954416652614263783e-02
3.880943022891324146e-02
5.153247055681254435e-02
1.321387715117486317e-01
9.555813264839656263e-02
9.454404296888656301e-02
1.456297235912994703e-01
1.129777967186037652e-01
8.760067632784224179e-02
9.571003580030469637e-02
1.545777913642207568e-01
2.029539460788695182e-01
1.736554652455290226e-01
1.434665844529308676e-01
1.546076377110475464e-01
1.693543733945950258e-01
1.137697260284105533e-01
1.814911792297321802e-01
2.046488685927850271e-01
2.465444470157791834e-01
2.321696167662987975e-01
2.632674451103134694e-01
2.615099801350184716e-01
2.584267999706788554e-01
2.226067005832252366e-01
2.371134528211610304e-01
1.812944432958065732e-01
2.396000553705217584e-01
2.565975836975507018e-01
2.346449647745977585e-01
2.000182121457404760e-01
2.964420384006506981e-01
2.633829650705937220e-01
3.045998227775910117e-01
2.765532354277612792e-01
2.961645731646110891e-01
2.903375812005145606e-01
2.349028652501339853e-01
2.393634408369730293e-01
2.406370728125443170e-01
2.228676291351695260e-01
3.027041645898794764e-01
2.484440075597139364e-01
2.579331932613903589e-01
2.007518686763704319e-01
2.613563209191450132e-01
2.202331207192753659e-01
2.656883171267298560e-01
2.022882718494342924e-01
2.574736479186359173e-01
2.401115248942687908e-01
1.920144714051464085e-01
2.423798059747243050e-01
2.279578519232038636e-01
2.016519873851154443e-01
1.504739751695037264e-01
1.974857069137581356e-01
1.685725943146772488e-01
1.611219760163917769e-01
1.548732699173033800e-01
1.447666212770290506e-01
1.127346608676605411e-01
8.632182857464236470e-02
7.328040663866837445e-02
1.271523977465535138e-01
3.881019419445683183e-02
1.267942103839704016e-01
1.138227929239289116e-01
8.334868550224837358e-02
1.171945695974405260e-01
7.275191068591371768e-02
8.746308999882647373e-02
1.071755541337469225e-02
-3.024483253952018821e-03
5.215325376752018294e-02
6.710015826623413893e-02
7.834379076793811236e-02
4.015990098010617515e-02
4.873581197709488805e-02
6.100405302462332674e-02
2.987593747141658457e-02
4.782787006769638471e-02
-6.948305080970823902e-03
-2.587237580811857854e-02
4.901447964942941271e-03
4.144200615602601501e-02
-5.671809344548103468e-03
3.281403324204958810e-02
-1.972691730171463251e-02
-8.446377277330479466e-03
1.438291356254423579e-02
-1.467048777878506710e-02
-1.122658731150674889e-02
-7.605874232749602892e-02
2.596620661370151184e-02
-4.068061938845285788e-03
-3.007037335822190099e-02
5.215839161776331112e-02
-2.751864221539970096e-02
-2.025793710366491363e-02
-3.452103306075900852e-02
2.663547068990615441e-02
3.578579856432012596e-02
3.209325320566783213e-02
3.116140420292297722e-02
-2.708941109427554644e-02
4.044301646583859516e-02
-1.612066773021814114e-02
-5.702079855873343206e-02
-2.399510237641757499e-02
-1.853589388093188767e-03
-3.138379547174122153e-02
-8.016578001072079823e-03
3.310122981018279176e-03
-8.145593092542952052e-04
6.192924137889707289e-03
-1.917441931344954220e-02
-3.588793042280371409e-02
-5.845604850681750814e-02
-1.725753191391352082e-02
-3.098555526809089467e-02
-1.865642260869372279e-02
-7.743958855240190564e-02
-6.107413839311126580e-02
-3.997263536522181748e-04
-6.491766529859760437e-02
-2.168095281356132234e-02
-4.099883965407241648e-02
-4.296328092164153345e-02
-1.359030197070730875e-02
-1.525969119738463525e-02
3.616537921992506177e-04
-4.893166486431475837e-02
-4.217489686079245459e-02
1.837188890106751862e-02
-2.165018147570646478e-02
-3.410257629582167521e-03
-2.865201644843297021e-02
7.064097810670598443e-04
-8.667157761321894749e-02
2.364528233083369735e-02
-2.325624435804080764e-02
-4.556259698042487705e-02
-3.824735379751043746e-02
-1.232174250160808504e-02
-5.516713742718424435e-03
4.504852118158531732e-03
-3.275998379528154147e-02
3.219167329120551507e-02
-6.341312404871714270e-03
-4.214875674738521871e-03
1.015143974953550479e-02
4.104265475886478831e-02
2.464351960765077260e-02
1.416409565213313723e-02
2.574820680791166383e-02
7.728936606909761475e-02
7.782840576959787482e-02
6.275832384876389725e-02
6.198027442369467843e-02
1.327467079600481159e-01
8.308829470477936685e-02
8.041962445611842980e-02
7.467440020593699157e-02
9.703452524709402227e-02
3.631573053886477664e-04
1.276785336501667922e-01
6.349567504612732560e-02
8.452475235997924941e-02
6.804096395734091085e-02
9.144261695582785177e-02
1.062766546265342810e-01
1.455406603056589032e-01
1.592947132611750582e-01
1.799818787686051080e-01
1.252879585681091479e-01
1.154588979904834639e-01
1.445668569827855687e-01
9.405451326911647147e-02
8.857351957602790926e-02
1.038061028589371826e-01
1.105279891131115133e-01
4.576313558984389240e-02
1.355813973274027084e-01
1.062516676547112932e-01
1.182639773570619279e-01
4.241758103595337503e-02
6.493722297115045450e-02
5.917057685587941845e-02
7.104054443376245365e-02
7.373520889253851185e-02
1.001111738445780719e-01
7.857260795050270696e-02
5.803188133996823456e-02
1.545457001274965214e-01
9.458294833599159568e-02
9.507388707537395289e-02
9.267123776131785950e-02
1.871797135878056073e-01
2.496507876850355412e-01
2.490620249252109009e-01
3.664731693140200752e-01
4.245562233220507298e-01
4.521326163757664052e-01
6.147549070639726221e-01
6.837282349688934557e-01
7.556435777788729213e-01
9.143833972904995555e-01
1.004646010708599935e+00
1.023453515531495883e+00
1.134733321668955686e+00
1.183316332415333072e+00
1.207031017236287251e+00
1.204288670709694697e+00
1.204220955287679029e+00
1.204517969558881463e+00
1.136762553192593561e+00
9.978442125908633109e-01
9.090135277486918186e-01
8.255355697809380056e-01
7.427545176865928411e-01
6.613341946954363060e-01
5.726918938924053792e-01
4.913966201072840767e-01
4.065899971432149762e-01
3.291687887542985580e-01
2.976678074526485362e-01
1.558006444811613489e-01
1.686506091570127985e-01
1.302015246592026498e-01
5.241951925947609114e-02
8.351814307116942060e-02
6.202859773704386126e-02
3.798217207364944226e-02
-4.071708788288008751e-02
5.650926960703156476e-02
3.270116489686099304e-02
3.824306191124470650e-02
-7.388991369488609462e-02
1.468150892266707058e-02
-8.761125339612624296e-03
7.730200429888001157e-02
1.008104196149451487e-02
9.272086207453314466e-02
8.234419278341116588e-02
6.606570384121859818e-02
9.936348304545364329e-02
4.302377723465572457e-02
5.460344720325763235e-02
1.115632035565203017e-01
6.213086380811504161e-02
5.706179510930813048e-02
9.376208294459667525e-02
8.352972180919515655e-02
1.725503940254606294e-01
1.464190539499622135e-01
1.123944886893353395e-01
1.060660071032294705e-01
1.525874836823484793e-01
1.842319144469096726e-01
1.633381446575906115e-01
1.318823087792141691e-01
1.228815108376015153e-01
1.599470663986513330e-01
1.857817406289123952e-01
1.668894137306680958e-01
2.155885158492286957e-01
2.051560187799745805e-01
2.000525256040784905e-01
2.113331367574242114e-01
1.571804173528369708e-01
1.862041121344916172e-01
1.717766407071756318e-01
2.158741701593732687e-01
1.744674965942697165e-01
2.080621020605729898e-01
2.005627363790630779e-01
2.228998186012806082e-01
1.679126575712164282e-01
2.157948161712473500e-01
1.681119623591287859e-01
1.687573728125313921e-01
1.904501799914823656e-01
2.271659242820368851e-01
1.622816315520971553e-01
1.299958121913769582e-01
1.504017446182157047e-01
1.622894272827185569e-01
2.246805431632046268e-01
1.747320723502904793e-01
1.346942517231551617e-01
1.470293375801313973e-01
1.921680956243482785e-01
1.314254790210506729e-01
1.252396013516159368e-01
1.132682779472608814e-01
1.395700547140006076e-01
9.612793480930853507e-02
1.312336473221042965e-01
1.301238887549009404e-01
1.098477548319503616e-01
7.797041599297066528e-02
3.607063737098512024e-02
6.472974363015056298e-02
4.493227175599077972e-02
3.529387676763561660e-02
4.530948617504786113e-02
6.085946282179225536e-02
2.196869715254283484e-02
-6.230887376249202858e-03
8.108000434121423461e-04
7.505014659054166926e-02
3.578137880728147341e-02
-1.421630107325547177e-02
4.860236071380874545e-02
-1.628723494083404721e-03
6.976997742968366056e-02
5.369979873819992477e-03
1.077086117191478065e-02
1.543505153117199352e-02
3.161668329470723737e-02
-2.920720839937732821e-02
2.307391142473342455e-02
-4.030986685755792720e-02
-3.493769783434126641e-02
-2.614717786063501526e-02
-9.523847187684550408e-04
-4.046015478862347026e-02
1.713322705526841572e-02
5.716134693226224139e-03
-3.444099506381980563e-02
-6.603270503707667216e-02
-8.318536748897806254e-03
-1.024085721477081545e-01
-1.838276329436748166e-02
-6.631981180456372749e-02
-4.809836502731437702e-03
-8.488046074083413495e-02
-6.390250112555910522e-02
-3.155151886989429610e-02
-2.724110128751204563e-02
-6.460605379498780831e-02
-5.626564715388081978e-02
-1.815168292157769148e-02
-1.691034457483247405e-02
-5.800924031335758652e-02
-6.597513473678355556e-02
-8.910264630075750980e-02
-4.066314379275554752e-02
-2.410573505562752655e-02
-4.413104006529482148e-02
-7.658575578638839032e-02
4.616595661539345252e-03
-1.122048979115524980e-01
-2.286178284611702083e-02
-4.279605891582517752e-02
-3.530965087432341720e-02
-7.303163529622397343e-02
-5.404011276508476069e-02
-4.069174509209741442e-02
-5.207444571388963883e-02
-1.033020277179437230e-01
1.916671887327615897e-03
-2.989926511627922015e-02
-4.828891784075842880e-02
-4.624659962560098703e-02
1.433422776746157146e-03
-7.118166936148680179e-02
-7.772361830219018386e-02
-2.290004781362607253e-02
-3.418844982857517645e-02
-7.796476596791029889e-02
-1.452919042163492575e-02
-3.777389046272278117e-02
-7.289385963178006411e-02
-3.046445818342155554e-02
-3.404505065364135663e-02
-4.585667567356808971e-02
-3.047775706432951509e-02
-2.183924906300926255e-02
-1.162676353690442893e-02
-3.405428771365483914e-02
-4.338895412998595991e-02
-2.585690808855810666e-02
5.193370419178340580e-03
-8.871845458429047926e-03
-3.452932389613182218e-02
-1.972713080596468285e-02
3.219886010844582452e-02
8.631835432752477111e-03
-5.070915790540760082e-03
2.910059938879429320e-02
-1.660551505518254034e-02
1.462131236518150051e-02
6.633907107024433758e-02
3.521743549005051932e-02
6.997069586622980952e-02
2.472435441047424881e-02
1.895953475855875758e-02
7.413110448510608352e-02
-9.426044683001809366e-03
5.689367079681342115e-02
8.838696809925382369e-02
8.015731538112774723e-02
5.815881607918606255e-03
3.384647300202295317e-02
7.579643555900653085e-02
9.808354750134620770e-02
1.034238595034154551e-01
9.147930183310104546e-02
1.166919541887607992e-01
1.104290873520877014e-01
9.538615248814152903e-02
1.166551782423357331e-01
8.173054657297781911e-02
1.202245417740504807e-01
7.501885576525929578e-02
1.137086101396005688e-01
1.110063393015392197e-01
8.560003912160069062e-02
1.105165269315753762e-01
1.341669059110049134e-01
5.329632714674520377e-02
1.082239919694708286e-01
1.077092321922613893e-01
6.438791417810443840e-02
9.030477941692369170e-02
5.475855599327403983e-02
9.698601585595109653e-02
-2.474608712815816458e-02
1.006507176275790727e-01
2.623961525293310587e-02
6.782687271125842354e-02
5.036647965376764291e-02
1.345072881635825668e-01
1.038442110734404400e-01
1.229575610207471054e-01
2.097898151278236034e-01
2.444601096228702364e-01
2.687443499934866198e-01
3.153996188205195339e-01
3.874901985915613634e-01
5.444232419975206794e-01
6.106669338753669685e-01
6.998292144625536393e-01
8.074277215177393385e-01
8.301170488513934798e-01
9.686823460226294813e-01
1.049211776911975091e+00
1.153393025762883273e+00
1.128430116178660514e+00
1.232873979742727055e+00
1.262519695469925152e+00
1.142772823164334151e+00
1.159476049447128787e+00
1.119392431218157791e+00
1.059614563607439219e+00
8.845469767816939166e-01
8.666198166669110137e-01
7.519123459688416000e-01
6.508079589760801253e-01
6.245383317844034332e-01
4.643981452211098926e-01
4.002255874469357044e-01
3.079636437095417123e-01
2.534540495301996765e-01
2.074470510752087493e-01
1.720290015650681736e-01
8.531647518202603586e-02
8.471337795498146139e-02
6.433841205942775199e-02
-6.211386379321170992e-03
4.065500435782083699e-03
5.280568033188040578e-02
8.752120241537583722e-03
9.990139454603423619e-02
5.121941814703402651e-02
3.806376060847961595e-02
7.305044010387184983e-02
5.494069460632152596e-02
4.190668477057234165e-02
-9.611960707684025218e-04
6.687296719381857768e-02
9.455802313693320582e-02
4.085757225206126247e-02
1.005445154915488720e-02
3.912131895236666684e-02
1.304821358357119154e-01
8.675024169478834368e-02
1.348685423033570419e-01
9.845225494972517644e-02
8.984021897463906337e-02
1.756527653618448759e-01
1.073429331425161393e-01
1.178659258873789584e-01
1.459442490273438475e-01
1.301235604148252012e-01
1.687547952934688733e-01
1.652233263729305512e-01
1.726689259588414793e-01
1.456537281026966946e-01
1.200931667637348405e-01
1.505445632074149387e-01
1.584396200499627871e-01
1.944652789295246709e-01
1.658114875322401482e-01
1.505091891093863210e-01
1.638783197271727332e-01
2.132957242045223079e-01
2.252453888927203329e-01
1.919276246051082602e-01
1.971633212313291805e-01
2.291471254313783845e-01
2.167702785411960709e-01
2.479756836626291205e-01
2.077591487044282981e-01
1.871491943492327170e-01
2.437993602570658058e-01
2.005003874278504794e-01
1.843354337803689291e-01
2.324794972601459397e-01
2.464222317547542229e-01
2.052615149467340860e-01
1.660436863851967038e-01
2.382338321448313478e-01
1.991434330180792966e-01
1.897436714149145498e-01
1.660268674888973617e-01
2.067477349345621662e-01
1.340470101217290377e-01
1.254078059339791273e-01
2.123740539429679330e-01
1.235161194422225300e-01
1.718903170411906767e-01
1.780549529236058470e-01
1.365293957033204553e-01
9.726606714283508870e-02
1.360395979348351103e-01
1.523537259855976544e-01
1.143595843702817499e-01
7.523085465254256143e-02
1.004237098963054742e-01
4.341933065779747525e-02
4.958354648492661193e-02
6.500660368871494232e-02
6.873713139492551583e-02
2.512370077510864275e-02
6.315022058015140605e-02
6.597251261352331253e-02
3.874583770946096045e-02
-2.448607744204310543e-02
3.867912263372122461e-02
8.549410986165495441e-02
4.050268107370633835e-02
2.318333806279804232e-02
7.705521279557127345e-03
3.257623017042947378e-02
1.811635437868323872e-02
2.989593971858256830e-02
-2.719140042471070856e-02
6.564051466370263155e-03
-1.348934262658327450e-02
9.107526436426219285e-03
-6.261087231499318229e-02
-1.805295741162683820e-02
8.143317576694134030e-03
1.128251659888786229e-02
-1.229093987904770167e-02
-7.759173789673283472e-02
5.193023532695312944e-03
3.233677489827989360e-02
-4.137183317939650828e-02
-2.989385074613817861e-02
6.273137266032482312e-03
6.365415265070478723e-03
1.365948330268847155e-02
1.065044254078039224e-02
-6.621588741375861176e-02
-3.502212511916305560e-02
-2.174612414836015611e-03
-2.382135547993583305e-02
-1.047481856219941755e-02
-2.553093245238458389e-02
-3.481621123276921331e-02
-2.907963632028428419e-02
-5.552468799770846064e-02
-4.358752632889786871e-02
-2.387597196364821955e-02
-2.328787883541920747e-02
-4.731883711780668356e-03
-3.022514853042183522e-02
2.871170748386716806e-02
1.546339707588864285e-02
-3.636109646287247893e-02
-1.519555650953243256e-02
1.543107509032418806e-02
-3.998447949253579325e-02
-4.298949757467575294e-02
1.864481663357446875e-02
6.437664949298961548e-04
1.237245100560579666e-02
-1.010317169754714958e-02
-2.691515391074039004e-02
-5.920234530828326347e-02
-1.448857988862423986e-02
1.875334012752584087e-02
1.952783332774615452e-02
1.480413564944732183e-02
6.817371556102177349e-03
5.011150498389338459e-02
-6.212502444135737517e-02
-7.919337326704162239e-03
-4.213534349619210695e-02
3.345783252370517630e-02
-2.866242886467013432e-02
1.933221612449652002e-02
-2.309844570698902158e-02
4.453717707707097184e-03
-9.770009298925099589e-03
-5.096116594586759529e-03
7.367040976911735581e-03
2.720907117609321427e-02
-1.149156029183409297e-03
3.163303270989901994e-02
3.905768183903762097e-02
-1.280129206265962286e-03
7.138813173861366379e-02
4.108191040165573571e-02
9.975615215485225326e-03
4.582669496002295118e-02
6.333738076789358074e-02
5.493409378520696523e-02
4.862423614254104964e-02
-5.540404888611283329e-02
2.490411838402286498e-02
8.025759330186960083e-02
3.640818905561182817e-02
8.767469342525129050e-02
1.050960766413098213e-01
8.148119999608036124e-02
3.818067316160861369e-02
7.517677620850866937e-02
1.238189803428369345e-01
1.467575722200290811e-01
5.208829692044310983e-02
1.221057862008444461e-01
8.039824873032239139e-02
1.314217408508640828e-01
1.277755433866771817e-01
2.065243173286879785e-01
1.221853003282966643e-01
1.718286833415451076e-01
1.720055366976951383e-01
1.366040589551084372e-01
1.460668384476757065e-01
1.419072663552963520e-01
1.183269553928256029e-01
1.138583091563030586e-01
1.240139757287267996e-01
9.916310705157699301e-02
1.148363479340770987e-01
1.201229883370768525e-01
1.266882066345690616e-01
1.308282366353267778e-01
1.073156527682935651e-01
8.603982396013565292e-02
1.182806044919746391e-01
1.264933049342571725e-01
8.673665452385581620e-02
7.223961857136977638e-02
9.127792270596579716e-02
1.055232948627655709e-01
1.559248512995251024e-01
1.583344857824771079e-01
1.598309930093445574e-01
2.469379430207147563e-01
2.274792789608165999e-01
3.190091843738850352e-01
3.713128332570517776e-01
4.373772871108037030e-01
4.903166174724876702e-01
5.705272930627862671e-01
6.602057497370804606e-01
7.827183627235443364e-01
8.316412685288666617e-01
9.427902385911899330e-01
1.089309268859678381e+00
1.135866549786710422e+00
1.209135423672615506e+00
1.189499645666166616e+00
1.238678598660754471e+00
1.265671909110269278e+00
1.236705891401154389e+00
1.162681514202316135e+00
1.164924123663801492e+00
1.101243853161909314e+00
9.748140445100296203e-01
9.133039493200587611e-01
8.519861392099907782e-01
7.380025711384281539e-01
5.890000401567735411e-01
4.727360776588742097e-01
4.301320181277573651e-01
4.201792396963778820e-01
3.263263655879698466e-01
2.324050554490009468e-01
2.354797283518824391e-01
1.885954873063792614e-01
6.941755456647019651e-02
1.379926369398721542e-01
9.523759796287029067e-02
5.595856213618732866e-02
7.878514393793227544e-02
8.556230906219119969e-02
4.871114548256400001e-02
7.010107935512330246e-02
6.626808129597455688e-02
1.035435800323303568e-01
7.489191719283129489e-02
3.775691337438860651e-02
8.059434680854665745e-02
7.124425472333935361e-02
6.671314955746172892e-02
1.470789013580563742e-01
1.421065615926680181e-01
9.549050018375113136e-02
9.305728898329981846e-02
1.348160188540695192e-01
1.050409073788445419e-01
1.444006333097742345e-01
1.607416894423668863e-01
1.747419491447627926e-01
1.827842843502918702e-01
1.560950315312254200e-01
1.885063472963143527e-01
2.315846674782053305e-01
1.369100434955913825e-01
2.160953163939256516e-01
1.772920558154108539e-01
2.608614073269562295e-01
2.491138724467622800e-01
2.537438782916184854e-01
2.098724167664726969e-01
2.483445089009172491e-01
2.562864391858492019e-01
1.781178718852711174e-01
2.574706579482769486e-01
2.748735666014986423e-01
2.170143586711255068e-01
2.800005511761052279e-01
2.669669743540020179e-01
3.069726808777817340e-01
2.542118123524084727e-01
2.725124974890694718e-01
2.775054194877556446e-01
1.826320663086831719e-01
2.553232245192136318e-01
2.671687927584431854e-01
1.920310594058735332e-01
2.806379313377748153e-01
2.602268010770004136e-01
2.568679350711982057e-01
2.724979046064942567e-01
2.345505232255800099e-01
2.438244651281002984e-01
2.637879737249101408e-01
2.344978198214773824e-01
1.722339214208198077e-01
2.235525979171602284e-01
2.181562657494714175e-01
2.372919606580385921e-01
1.938484887281196056e-01
1.685419072919259187e-01
1.622699217785589509e-01
2.283429141292644127e-01
1.872486469436123735e-01
2.138041746376879160e-01
2.116402340726769860e-01
1.367739918859222636e-01
1.280662734090084187e-01
1.424994214786066415e-01
1.585281482375647810e-01
9.193570057425594355e-02
1.416546029796932060e-01
1.343142889665388529e-01
8.277224542728381373e-02
7.835272115617797350e-02
1.191174890860653424e-01
1.628927284111585938e-01
8.698339303678262469e-02
1.010611927069276772e-01
6.857440465715192168e-02
8.959376971082885777e-02
5.973180312535437964e-02
6.693847627896673536e-02
1.446107305653221708e-01
7.099515009260312648e-02
1.771438370784540056e-02
8.098782679795707429e-02
9.284617770592379360e-02
7.668989360880593131e-02
4.876827308080221302e-02
2.437816067180965246e-02
2.311642512811058411e-02
4.237381999403182220e-02
3.538503416518093414e-02
2.811586309093993402e-02
7.993584449230083100e-02
6.985802334167545702e-02
7.910416535258348036e-02
1.643126085173163622e-02
1.155530667910877746e-02
4.069882223465802473e-02
5.011874219140060455e-02
3.919370373713013112e-02
4.691242087223737589e-02
8.359111673226723993e-02
2.908770494807561002e-02
5.951507434458137846e-02
5.055768832749295283e-02
3.764729102785020765e-02
5.743403886210107778e-02
1.142157153315659368e-02
5.283162632521151009e-03
4.727079845235231809e-02
-1.489604952105570007e-02
4.957871738908348896e-02
4.000148085119767383e-04
7.981785161212938406e-02
2.244714575519925898e-02
7.800552458197396177e-02
2.817427289925991674e-02
2.699837982618190357e-02
6.070240452151125232e-02
4.364816854717069178e-02
3.300607353005524658e-02
2.304576174715302489e-02
2.350863103964666995e-02
1.062623944232340134e-01
-1.451455750470474759e-02
-1.050010437225051829e-04
7.152520233162407148e-02
6.954659233263987828e-02
9.115678209415934569e-03
-1.544934047971644603e-02
7.566383469232582093e-02
6.504973349141157657e-03
2.364183540222347668e-02
4.178443840432972956e-02
7.316982917909727047e-03
6.790143917068892920e-02
4.155970724228606056e-02
1.533642168135894782e-02
1.896114337740175543e-02
8.279950100612143427e-02
3.678381527179400839e-02
6.499757941697800745e-02
4.785791649441190065e-02
-2.691460306741083608e-03
7.434786758463790557e-02
8.638189082260901153e-02
1.119051034939717859e-01
2.336897730290568576e-03
-3.240810869642333364e-02
8.478948104389213980e-02
5.119745560256760281e-02
3.013126299379030593e-02
8.040798293692534571e-02
6.814787901788196822e-02
4.807412323783739894e-02
8.888592449078447366e-02
1.136356056207709353e-01
1.073986846745634272e-01
1.133488911953711153e-01
1.270795183956086594e-01
6.908089380861032192e-02
1.244288254888749057e-01
1.393639670555464616e-01
1.270247447509110783e-01
1.196226180212115603e-01
1.281494162877591103e-01
1.475888204693172612e-01
1.894430067135450813e-01
2.131535550512818900e-01
2.120103931726939339e-01
1.300418298224980951e-01
1.527750916858525709e-01
2.042529712481742088e-01
2.265656951999030222e-01
1.609578129106692679e-01
1.972521103060640435e-01
1.589419558584392045e-01
2.016753575634314122e-01
1.738956173403778949e-01
1.978465174772007784e-01
1.545217597245848729e-01
1.397602397212203140e-01
2.790471048362399009e-01
1.849728091490728810e-01
2.432647083489143658e-01
2.204455360977940204e-01
1.217820638575710102e-01
1.772406042765425072e-01
1.231237253679465793e-01
1.489008591027986550e-01
9.761437570036238243e-02
1.042231258636982932e-01
1.244747508519645773e-01
1.343740045943860872e-01
1.552039447136980277e-01
1.297472449827013485e-01
1.765674093353948593e-01
2.229396682632093230e-01
2.205054571683911502e-01
2.414471168395100342e-01
2.936650159883594235e-01
2.898950712923600848e-01
4.210873719479528154e-01
4.262492636289817449e-01
5.878884541446607326e-01
6.518770842409452593e-01
7.391873480380714012e-01
8.378839331315816041e-01
9.175843878455050007e-01
9.884218257673239583e-01
1.070732437460178765e+00
1.227101876113128265e+00
1.238145728807429347e+00
1.243906381434622066e+00
1.314747565295486531e+00
1.309816850867227211e+00
1.268281957012769023e+00
1.209307344136911322e+00
1.198015143839068708e+00
1.128673355043922522e+00
1.022596102343600322e+00
9.199644805444241458e-01
7.955081153538002825e-01
7.345730659011334707e-01
6.056816604977858232e-01
4.971344675101141419e-01
4.876999563457762865e-01
3.509762238291585512e-01
2.628343204045529014e-01
3.068392236055051403e-01
1.725846524320684416e-01
1.793279293758920923e-01
1.320280739304878215e-01
1.237558642969104339e-01
1.983778266709037286e-01
1.193825159876978209e-01
1.276674451454936632e-01
1.378993306437884259e-01
9.430845888112020237e-02
1.471793900579876357e-01
1.286865066104614652e-01
1.434549913731952009e-01
1.032517128920931171e-01
1.430162628424605231e-01
1.345554008049780204e-01
1.741804008801623171e-01
1.298158332478427657e-01
2.129576535540710358e-01
1.683094183324150839e-01
1.607095450849850282e-01
1.636546606168708395e-01
1.772812322377430305e-01
1.652809733211623722e-01
2.108603815249004698e-01
1.972586429727906654e-01
2.626948104200850231e-01
1.981435237152798512e-01
2.142390229758269204e-01
2.114741293230525399e-01
2.871202036012160397e-01
1.940930525535086992e-01
2.465305579969753746e-01
2.591772976310786625e-01
2.217935751052628746e-01
3.405266229588643778e-01
2.386320840928328468e-01
2.725659143665824513e-01
3.267583993266555131e-01
2.693035269721394953e-01
2.887989432206959362e-01
2.776760491807255260e-01
2.895245396690331874e-01
3.262271345947991286e-01
2.833380334439729586e-01
2.180819311547788908e-01
2.979759095738871988e-01
3.016120717532502216e-01
3.058544078947186828e-01
2.942640253165441089e-01
2.731654523606603657e-01
2.904764975359091506e-01
3.490937673791829621e-01
2.927117655522905593e-01
3.109359871458924340e-01
2.572682353961610047e-01
2.760422948730832937e-01
2.508646615061955187e-01
3.154066227436322367e-01
2.252755785488484985e-01
2.781381431215648181e-01
2.718970994035617150e-01
2.643810626019457155e-01
1.799331935313824848e-01
1.835464661720868640e-01
2.415095069047746568e-01
2.039060347043202270e-01
2.057843990543451462e-01
2.057029741320129113e-01
1.801472360323367328e-01
1.682307451066336057e-01
1.982265096707959140e-01
1.342948645509560168e-01
1.695888651184191687e-01
1.580864612209386677e-01
1.708271793802775274e-01
2.366858048216263777e-01
1.292675928715673328e-01
1.647131438777730827e-01
1.530979527856783928e-01
1.573930214450540710e-01
1.285013498275557331e-01
1.726399638451859564e-01
1.446521458236842972e-01
1.400338457465082898e-01
7.168735510257306931e-02
1.123384236157466409e-01
8.970431684870598665e-02
7.492167511492670018e-02
7.796599000168863425e-02
9.128809609888943744e-02
1.030879882520887858e-01
1.154622813566500983e-01
1.108890865655593472e-01
8.866252720132782039e-02
7.877699978638452727e-02
6.478665641793129870e-02
6.468554810348677020e-02
4.646820092458323753e-02
5.495048225717508172e-02
7.650189290914964635e-02
1.103279088160266375e-01
5.799490240103982036e-02
3.675661421130976131e-02
8.868795157633981019e-02
-1.723977065429926903e-03
8.848825758155995369e-02
1.315348459851112956e-02
7.489053251026471514e-02
4.001542487256834479e-02
6.312626414457532531e-02
1.152664722845957584e-01
2.697775432595149459e-02
2.149393092716276460e-02
5.331117329040753472e-02
9.622894736119941284e-02
5.539358743290746095e-02
5.094752680990327631e-02
5.430875429586274478e-02
1.875669843371990594e-02
5.396403189995080396e-02
3.651943382248024755e-02
8.771943198640036465e-02
7.174809320483678532e-02
7.878821289919686610e-03
3.889701023072778679e-02
6.304693002056836748e-02
1.759287198512688929e-02
1.450600190559183517e-02
3.288383544953839277e-02
5.694892303590879529e-02
7.761627600641000935e-02
5.336410231112340141e-02
1.201873056992169148e-01
2.594643126059397592e-02
6.841053810728239815e-02
1.289914652845843696e-02
9.449801268153558420e-02
8.697619881560580968e-02
6.759744745620152595e-02
-5.740728402351957804e-03
6.755867203564189238e-02
2.211202516451360456e-02
6.054996033253639415e-02
3.627222757912128281e-03
5.577185369167932116e-02
3.756336703881151678e-02
2.542486212035460075e-02
6.726962773337973045e-02
4.880441673547728648e-02
4.519376403804643838e-02
7.462075512988719517e-02
1.109656427941531631e-01
6.365513226669906877e-02
2.956361611063405836e-03
1.236658437485934139e-02
6.340600957322145570e-02
9.461470199931446001e-02
7.061493663007578636e-02
8.495544496256841882e-02
7.116837817534178712e-02
1.054150024374838346e-01
9.896558708682851035e-02
5.408891869234659644e-02
1.026055977130522490e-01
4.766254286078589614e-02
1.124099676265747638e-01
9.575732249935653417e-02
1.145239544271295373e-01
1.250687998666530909e-01
1.295785116439799878e-01
1.695269411938200854e-01
1.339423231404716641e-01
1.444961435149961226e-01
1.845673530076184232e-01
2.072980236350099870e-01
1.554004007039568036e-01
1.458621722776406171e-01
1.523368892336413039e-01
1.843566230580106491e-01
1.689341742186749873e-01
1.262841143920214737e-01
2.156554862166358832e-01
2.090619951679673072e-01
2.210339235603686614e-01
2.283622854230755173e-01
1.945102002440882161e-01
1.966997248499480488e-01
2.185100677918484224e-01
1.506295012912557130e-01
1.746381546083476399e-01
1.809533660137528366e-01
2.073407929258148652e-01
1.599555501435423466e-01
1.507296722763748487e-01
1.547810879297212561e-01
1.771605344010461214e-01
1.562710984466180453e-01
1.101121770372039121e-01
1.116420051309740952e-01
1.495626722997256963e-01
1.477601632598689596e-01
1.421558349693264334e-01
1.279381346612408488e-01
1.692128209380300841e-01
1.638267882884824056e-01
1.746078008256787550e-01
1.931795185401044279e-01
2.543252621023038840e-01
2.079413371418915024e-01
2.672249788060742093e-01
3.206374693990808322e-01
4.294200942885225136e-01
4.514587074389636023e-01
5.192281430246611373e-01
6.281565554896788584e-01
7.287238451940171169e-01
8.588916508308210851e-01
9.088065358656512993e-01
9.927383598567304235e-01
1.071170008433983245e+00
1.161210941328868040e+00
1.305882484474481409e+00
1.279270457817278883e+00
1.303886063806265039e+00
1.282374262957908462e+00
1.261401279125886177e+00
1.235511237004561558e+00
1.165488652122138591e+00
1.080979758916637001e+00
9.818091299793222371e-01
8.744986897981441576e-01
7.984469917759459134e-01
6.894862924609367338e-01
6.560577100614400914e-01
5.351048782681466776e-01
4.031660380318595749e-01
3.175772141786035174e-01
2.799566877368005469e-01
2.085605124652342435e-01
1.858794332019949591e-01
1.377178702519524511e-01
1.317729560664524791e-01
1.134278267477515367e-01
1.140343070714061324e-01
9.458053364576121669e-02
6.841464622253935757e-02
1.293843927373478364e-01
1.046002753290509735e-01
7.735881547668579938e-02
6.950278938403475770e-02
5.537440169281634961e-02
5.716962801834446495e-02
1.393257021610838919e-01
1.410677779009439914e-01
1.005550425213093124e-01
1.645875292715077987e-01
1.478456503269704181e-01
1.413676291954680531e-01
1.672135272260057148e-01
1.661270553068627531e-01
1.585099873862338693e-01
1.531095736338833335e-01
1.635667594505405831e-01
1.250506617032635659e-01
1.557848255745526156e-01
2.403108612912180087e-01
1.679360623338881087e-01
1.436197301543883642e-01
2.325341566141141125e-01
2.190157968671700428e-01
2.266817569030317725e-01
2.185939252424489720e-01
2.562023240950005443e-01
2.800757823441520911e-01
2.235654484241006712e-01
2.629080840871632629e-01
2.818518668974303587e-01
2.349766976136011265e-01
3.012232430238830916e-01
2.926090881886297401e-01
2.246841012040832475e-01
3.121389834709823452e-01
2.304873333381782519e-01
2.469639341325705340e-01
2.890276047101565382e-01
3.002028961594769840e-01
2.718679043213356739e-01
2.494659234692015726e-01
2.595208156393052912e-01
2.544444978224330023e-01
2.890306911051219729e-01
2.491433335441321506e-01
2.388335321848904236e-01
2.107001288110346982e-01
2.333965361007231676e-01
2.434758523718420220e-01
2.085383789370651997e-01
1.851760760778880799e-01
2.616537631484625037e-01
1.966765465387350920e-01
1.815682943788738679e-01
2.618473741547784339e-01
2.339221749729665789e-01
2.327350058746135986e-01
2.104822691057368911e-01
2.278977917583402402e-01
2.081933808055930479e-01
1.644264068471791018e-01
1.358386508456899955e-01
1.223159389830756894e-01
1.496557742020649118e-01
1.139246407891067597e-01
1.161368378963897746e-01
1.287287350248550177e-01
1.685721118135251884e-01
7.478343054097644216e-02
1.146016081576707313e-01
6.993534398891104731e-02
8.472950296779586943e-02
1.234415366177619294e-01
6.441684996063018476e-02
7.648961280117780315e-02
8.335470090336108417e-02
9.510704060697335038e-02
5.280029121004073400e-02
1.024453707080948267e-01
4.687293702292743419e-02
7.058158246859833063e-02
4.639483135162623950e-02
7.057480032146980220e-02
1.056382642572918917e-01
3.315555261621634664e-02
3.787303465099718658e-02
2.245574859188263772e-02
1.508748183156354353e-02
